32-1,404530732,-294
32-2,404534638,469
32-3,404538544,1145
32-4,404542450,1195
32-5,404546356,440
32-6,404550262,-705
32-7,404554168,-1380
32-8,404558074,-1159
32-9,404561980,-300
32-10,404565886,561
32-11,404569792,800
32-12,404573698,289
32-13,404577604,-666
32-14,404581510,-1468
32-15,404585416,-1554
32-16,404589322,-897
32-17,404593228,137
32-18,404597134,956
32-19,404601040,1087
32-20,404604946,473
32-21,404608852,-551
32-22,404612758,-1287
32-23,404616664,-1213
32-24,404620570,-447
32-25,404624476,449
32-26,404628382,848
32-27,404632288,567
32-28,404636194,-40
32-29,404640100,-531
32-30,404644006,-551
32-31,404647912,-145
32-32,404651818,439
32-1,404655730,1035
32-2,404659636,1393
32-3,404663542,1257
32-4,404667448,485
32-5,404671354,-544
32-6,404675260,-1094
32-7,404679166,-828
32-8,404683072,-42
32-9,404686978,587
32-10,404690884,572
32-11,404694790,-78
32-12,404698696,-989
32-13,404702602,-1558
32-14,404706508,-1399
32-15,404710414,-631
32-16,404714320,351
32-17,404718226,977
32-18,404722132,875
32-19,404726038,81
32-20,404729944,-938
32-21,404733850,-1431
32-22,404737756,-1108
32-23,404741662,-307
32-24,404745568,396
32-25,404749474,452
32-26,404753380,-128
32-27,404757286,-876
32-28,404761192,-1258
32-29,404765098,-966
32-30,404769004,-205
32-31,404772910,653
32-32,404776816,1343
32-1,404780728,1657
32-2,404784634,1434
32-3,404788540,679
32-4,404792446,-215
32-5,404796352,-663
32-6,404800258,-437
32-7,404804164,161
32-8,404808070,525
32-9,404811976,316
32-10,404815882,-374
32-11,404819788,-1166
32-12,404823694,-1490
32-13,404827600,-1128
32-14,404831506,-267
32-15,404835412,654
32-16,404839318,1072
32-17,404843224,745
32-18,404847130,-181
32-19,404851036,-1133
32-20,404854942,-1433
32-21,404858848,-923
32-22,404862754,38
32-23,404866660,857
32-24,404870566,1015
32-25,404874472,416
32-26,404878378,-575
32-27,404882284,-1275
32-28,404886190,-1172
32-29,404890096,-372
32-30,404894002,676
32-31,404897908,1377
32-32,404901814,1362
32-1,405030723,-784
32-2,405034629,-1277
32-3,405038535,-945
32-4,405042441,2
32-5,405046347,1029
32-6,405050253,1479
32-7,405054159,1093
32-8,405058065,56
32-9,405061971,-979
32-10,405065877,-1294
32-11,405069783,-768
32-12,405073689,165
32-13,405077595,809
32-14,405081501,720
32-15,405085407,-31
32-16,405089313,-1008
32-17,405093219,-1545
32-18,405097125,-1281
32-19,405101031,-416
32-20,405104937,570
32-21,405108843,1071
32-22,405112749,823
32-23,405116655,-27
32-24,405120561,-972
32-25,405124467,-1319
32-26,405128373,-928
32-27,405132279,-104
32-28,405136185,757
32-29,405140091,1198
32-30,405143997,1037
32-31,405147903,317
32-32,405151809,-572
32-1,405155721,-994
32-2,405159627,-683
32-3,405163533,214
32-4,405167439,1151
32-5,405171345,1458
32-6,405175251,887
32-7,405179157,-231
32-8,405183063,-1128
32-9,405186969,-1204
32-10,405190875,-511
32-11,405194781,402
32-12,405198687,855
32-13,405202593,546
32-14,405206499,-327
32-15,405210405,-1236
32-16,405214311,-1541
32-17,405218217,-1063
32-18,405222123,-106
32-19,405226029,785
32-20,405229935,1074
32-21,405233841,639
32-22,405237747,-294
32-23,405241653,-1118
32-24,405245559,-1222
32-25,405249465,-618
32-26,405253371,274
32-27,405257277,940
32-28,405261183,1105
32-29,405265089,812
32-30,405268995,210
32-31,405272901,-352
32-32,405276807,-515
32-1,405280718,-176
32-2,405284624,574
32-3,405288530,1280
32-4,405292436,1398
32-5,405296342,728
32-6,405300248,-362
32-7,405304154,-1048
32-8,405308060,-905
32-9,405311966,-136
32-10,405315872,666
32-11,405319778,903
32-12,405323684,423
32-13,405327590,-507
32-14,405331496,-1293
32-15,405335402,-1372
32-16,405339308,-723
32-17,405343214,267
32-18,405347120,1004
32-19,405351026,1048
32-20,405354932,372
32-21,405358838,-617
32-22,405362744,-1205
32-23,405366650,-1028
32-24,405370556,-405
32-25,405374462,96
32-26,405378368,85
32-27,405382274,-310
32-28,405386180,-656
32-29,405390086,-710
32-30,405393992,-416
32-31,405397898,13
32-32,405401804,474
32-1,405405716,1026
32-2,405409622,1535
32-3,405413528,1728
32-4,405417434,1312
32-5,405421340,473
32-6,405425246,-187
32-7,405429152,-272
32-8,405433058,127
32-9,405436964,520
32-10,405440870,458
32-11,405444776,-106
32-12,405448682,-915
32-13,405452588,-1423
32-14,405456494,-1241
32-15,405460400,-486
32-16,405464306,442
32-17,405468212,982
32-18,405472118,813
32-19,405476024,20
32-20,405479930,-958
32-21,405483836,-1432
32-22,405487742,-1102
32-23,405491648,-192
32-24,405495554,787
32-25,405499460,1158
32-26,405503366,714
32-27,405507272,-198
32-28,405511178,-929
32-29,405515084,-890
32-30,405518990,-173
32-31,405522896,739
32-32,405526802,1363
32-1,405530714,1380
32-2,405534620,781
32-3,405538526,-216
32-4,405542432,-1090
32-5,405546338,-1274
32-6,405550244,-676
32-7,405554150,253
32-8,405558056,830
32-9,405561962,669
32-10,405565868,-107
32-11,405569774,-1046
32-12,405573680,-1500
32-13,405577586,-1175
32-14,405581492,-293
32-15,405585398,654
32-16,405589304,1084
32-17,405593210,760
32-18,405597116,-147
32-19,405601022,-1069
32-20,405604928,-1337
32-21,405608834,-812
32-22,405612740,115
32-23,405616646,855
32-24,405620552,926
32-25,405624458,279
32-26,405628364,-694
32-27,405632270,-1338
32-28,405636176,-1182
32-29,405640082,-352
32-30,405643988,719
32-31,405647894,1476
32-32,405651800,1555
32-1,405655711,924
32-2,405659617,-111
32-3,405663523,-862
32-4,405667429,-886
32-5,405671335,-210
32-6,405675241,676
32-7,405679147,1100
32-8,405683053,777
32-9,405686959,-124
32-10,405690865,-1041
32-11,405694771,-1341
32-12,405698677,-868
32-13,405702583,44
32-14,405706489,826
32-15,405710395,959
32-16,405714301,371
32-17,405718207,-511
32-18,405722113,-1100
32-19,405726019,-1142
32-20,405729925,-922
32-21,405733831,-770
32-22,405737737,-790
32-23,405741643,-885
32-24,405745549,-992
32-25,405749455,-1165
32-26,405753361,-1217
32-27,405757267,-954
32-28,405761173,-270
32-29,405765079,719
32-30,405768985,1558
32-31,405772891,1902
32-32,405776797,1616
32-1,405780709,914
32-2,405784615,322
32-3,405788521,142
32-4,405792427,310
32-5,405796333,530
32-6,405800239,435
32-7,405804145,-79
32-8,405808051,-805
32-9,405811957,-1277
32-10,405815863,-1133
32-11,405819769,-543
32-12,405823675,70
32-13,405827581,294
32-14,405831487,22
32-15,405835393,-530
32-16,405839299,-1083
32-17,405843205,-1296
32-18,405847111,-999
32-19,405851017,-264
32-20,405854923,728
32-21,405858829,1547
32-22,405862735,1736
32-23,405866641,1121
32-24,405870547,61
32-25,405874453,-686
32-26,405878359,-728
32-27,405882265,-176
32-28,405886171,549
32-29,405890077,943
32-30,405893983,775
32-31,405897889,87
32-32,405901795,-730
32-1,405905706,-1106
32-2,405909612,-778
32-3,405913518,152
32-4,405917424,1186
32-5,405921330,1671
32-6,405925236,1320
32-7,405929142,358
32-8,405933048,-531
32-9,405936954,-760
32-10,405940860,-274
32-11,405944766,502
32-12,405948672,938
32-13,405952578,709
32-14,405956484,-76
32-15,405960390,-946
32-16,405964296,-1274
32-17,405968202,-861
32-18,405972108,20
32-19,405976014,838
32-20,405979920,1067
32-21,405983826,590
32-22,405987732,-353
32-23,405991638,-1158
32-24,405995544,-1238
32-25,405999450,-621
32-26,406003356,274
32-27,406007262,944
32-28,406011168,1121
32-29,406015074,851
32-30,406018980,269
32-31,406022886,-281
32-32,406026792,-446
32-1,406030704,-114
32-2,406034610,634
32-3,406038516,1328
32-4,406042422,1414
32-5,406046328,698
32-6,406050234,-437
32-7,406054140,-1138
32-8,406058046,-958
32-9,406061952,-130
32-10,406065858,717
32-11,406069764,956
32-12,406073670,448
32-13,406077576,-517
32-14,406081482,-1329
32-15,406085388,-1412
32-16,406089294,-759
32-17,406093200,241
32-18,406097106,1005
32-19,406101012,1094
32-20,406104918,497
32-21,406108824,-461
32-22,406112730,-1136
32-23,406116636,-1038
32-24,406120542,-276
32-25,406124448,647
32-26,406128354,1109
32-27,406132260,877
32-28,406136166,252
32-29,406140072,-322
32-30,406143978,-432
32-31,406147884,-65
32-32,406151790,522
32-1,406155702,1112
32-2,406159608,1408
32-3,406163514,1189
32-4,406167420,375
32-5,406171326,-629
32-6,406175232,-1111
32-7,406179138,-764
32-8,406183044,100
32-9,406186950,810
32-10,406190856,858
32-11,406194762,217
32-12,406198668,-741
32-13,406202574,-1370
32-14,406206480,-1232
32-15,406210386,-448
32-16,406214292,529
32-17,406218198,1099
32-18,406222104,927
32-19,406226010,109
32-20,406229916,-903
32-21,406233822,-1398
32-22,406237728,-1070
32-23,406241634,-165
32-24,406245540,781
32-25,406249446,1100
32-26,406253352,623
32-27,406257258,-265
32-28,406261164,-939
32-29,406265070,-860
32-30,406268976,-142
32-31,406272882,761
32-32,406276788,1417
32-1,406280699,1508
32-2,406284605,976
32-3,406288511,-8
32-4,406292417,-923
32-5,406296323,-1153
32-6,406300229,-566
32-7,406304135,381
32-8,406308041,967
32-9,406311947,791
32-10,406315853,-18
32-11,406319759,-972
32-12,406323665,-1406
32-13,406327571,-1041
32-14,406331477,-131
32-15,406335383,805
32-16,406339289,1202
32-17,406343195,862
32-18,406347101,-26
32-19,406351007,-918
32-20,406354913,-1173
32-21,406358819,-664
32-22,406362725,262
32-23,406366631,1053
32-24,406370537,1200
32-25,406374443,601
32-26,406378349,-387
32-27,406382255,-1084
32-28,406386161,-970
32-29,406390067,-151
32-30,406393973,925
32-31,406397879,1670
32-32,406401785,1706
32-1,406405911,1003
32-2,406409817,-101
32-3,406413723,-880
32-4,406417629,-868
32-5,406421535,-136
32-6,406425441,768
32-7,406429347,1144
32-8,406433253,755
32-9,406437159,-165
32-10,406441065,-1046
32-11,406444971,-1274
32-12,406448877,-732
32-13,406452783,260
32-14,406456689,1149
32-15,406460595,1412
32-16,406464501,930
32-17,406468407,-46
32-18,406472313,-873
32-19,406476219,-965
32-20,406480125,-333
32-21,406484031,587
32-22,406487937,1182
32-23,406491843,1068
32-24,406495749,336
32-25,406499655,-608
32-26,406503561,-1103
32-27,406507467,-832
32-28,406511373,9
32-29,406515279,1005
32-30,406519185,1584
32-31,406523091,1444
32-32,406526997,639
32-1,406530695,-388
32-2,406534601,-907
32-3,406538507,-611
32-4,406542413,304
32-5,406546319,1296
32-6,406550225,1705
32-7,406554131,1277
32-8,406558037,221
32-9,406561943,-791
32-10,406565849,-1062
32-11,406569755,-498
32-12,406573661,446
32-13,406577567,1104
32-14,406581473,1016
32-15,406585379,249
32-16,406589285,-648
32-17,406593191,-1050
32-18,406597097,-839
32-19,406601003,-415
32-20,406604909,-171
32-21,406608815,-256
32-22,406612721,-509
32-23,406616627,-798
32-24,406620533,-1038
32-25,406624439,-1015
32-26,406628345,-650
32-27,406632251,135
32-28,406636157,1149
32-29,406640063,1918
32-30,406643969,2114
32-31,406647875,1580
32-32,406651781,663
32-1,406655692,-2
32-2,406659598,-61
32-3,406663504,413
32-4,406667410,919
32-5,406671316,954
32-6,406675222,404
32-7,406679128,-467
32-8,406683034,-1053
32-9,406686940,-945
32-10,406690846,-272
32-11,406694752,559
32-12,406698658,994
32-13,406702564,752
32-14,406706470,-70
32-15,406710376,-1023
32-16,406714282,-1415
32-17,406718188,-1013
32-18,406722094,-106
32-19,406726000,745
32-20,406729906,982
32-21,406733812,489
32-22,406737718,-485
32-23,406741624,-1324
32-24,406745530,-1426
32-25,406749436,-814
32-26,406753342,87
32-27,406757248,756
32-28,406761154,920
32-29,406765060,619
32-30,406768966,-6
32-31,406772872,-569
32-32,406776778,-704
32-1,406780690,-332
32-2,406784596,368
32-3,406788502,881
32-4,406792408,738
32-5,406796314,-93
32-6,406800220,-1153
32-7,406804126,-1686
32-8,406808032,-1372
32-9,406811938,-433
32-10,406815844,680
32-11,406819750,1374
32-12,406823656,1290
32-13,406827562,430
32-14,406831468,-672
32-15,406835374,-1232
32-16,406839280,-951
32-17,406843186,-123
32-18,406847092,578
32-19,406850998,621
32-20,406854904,-28
32-21,406858810,-994
32-22,406862716,-1629
32-23,406866622,-1488
32-24,406870528,-685
32-25,406874434,265
32-26,406878340,740
32-27,406882246,517
32-28,406886152,-97
32-29,406890058,-662
32-30,406893964,-760
32-31,406897870,-391
32-32,406901776,193
32-1,406905688,774
32-2,406909594,1053
32-3,406913500,807
32-4,406917406,-44
32-5,406921312,-1084
32-6,406925218,-1568
32-7,406929124,-1179
32-8,406933030,-262
32-9,406936936,472
32-10,406940842,505
32-11,406944748,-167
32-12,406948654,-1148
32-13,406952560,-1786
32-14,406956466,-1642
32-15,406960372,-852
32-16,406964278,141
32-17,406968184,747
32-18,406972090,627
32-19,406975996,-140
32-20,406979902,-1128
32-21,406983808,-1631
32-22,406987714,-1332
32-23,406991620,-460
32-24,406995526,470
32-25,406999432,793
32-26,407003338,322
32-27,407007244,-572
32-28,407011150,-1257
32-29,407015056,-1187
32-30,407018962,-466
32-31,407022868,446
32-32,407026774,1108
32-1,407030868,1199
32-2,407034774,633
32-3,407038680,-350
32-4,407042586,-1163
32-5,407046492,-1350
32-6,407050398,-988
32-7,407054304,-547
32-8,407058210,-459
32-9,407062116,-738
32-10,407066022,-1158
32-11,407069928,-1524
32-12,407073834,-1593
32-13,407077740,-1245
32-14,407081646,-471
32-15,407085552,581
32-16,407089458,1408
32-17,407093364,1548
32-18,407097270,897
32-19,407101176,-82
32-20,407105082,-678
32-21,407108988,-665
32-22,407112894,-301
32-23,407116800,-37
32-24,407120706,-160
32-25,407124612,-632
32-26,407128518,-1183
32-27,407132424,-1418
32-28,407136330,-1124
32-29,407140236,-382
32-30,407144142,591
32-31,407148048,1418
32-32,407151954,1743
32-1,407155683,1376
32-2,407159589,464
32-3,407163495,-386
32-4,407167401,-670
32-5,407171307,-284
32-6,407175213,378
32-7,407179119,653
32-8,407183025,290
32-9,407186931,-552
32-10,407190837,-1362
32-11,407194743,-1546
32-12,407198649,-1009
32-13,407202555,-57
32-14,407206461,777
32-15,407210367,998
32-16,407214273,519
32-17,407218179,-413
32-18,407222085,-1184
32-19,407225991,-1245
32-20,407229897,-609
32-21,407233803,329
32-22,407237709,973
32-23,407241615,920
32-24,407245521,195
32-25,407249427,-752
32-26,407253333,-1264
32-27,407257239,-1054
32-28,407261145,-323
32-29,407265051,491
32-30,407268957,910
32-31,407272863,730
32-32,407276769,34
32-1,407280680,-789
32-2,407284586,-1151
32-3,407288492,-836
32-4,407292398,53
32-5,407296304,1126
32-6,407300210,1843
32-7,407304116,1895
32-8,407308022,1220
32-9,407311928,267
32-10,407315834,-284
32-11,407319740,-181
32-12,407323646,351
32-13,407327552,750
32-14,407331458,610
32-15,407335364,-33
32-16,407339270,-854
32-17,407343176,-1269
32-18,407347082,-970
32-19,407350988,-135
32-20,407354894,793
32-21,407358800,1241
32-22,407362706,957
32-23,407366612,93
32-24,407370518,-831
32-25,407374424,-1139
32-26,407378330,-710
32-27,407382236,144
32-28,407386142,1017
32-29,407390048,1466
32-30,407393954,1301
32-31,407397860,566
32-32,407401766,-350
32-1,407405678,-813
32-2,407409584,-530
32-3,407413490,373
32-4,407417396,1379
32-5,407421302,1802
32-6,407425208,1341
32-7,407429114,284
32-8,407433020,-622
32-9,407436926,-772
32-10,407440832,-190
32-11,407444738,608
32-12,407448644,977
32-13,407452550,655
32-14,407456456,-167
32-15,407460362,-1010
32-16,407464268,-1284
32-17,407468174,-814
32-18,407472080,136
32-19,407475986,1046
32-20,407479892,1357
32-21,407483798,905
32-22,407487704,-87
32-23,407491610,-991
32-24,407495516,-1152
32-25,407499422,-549
32-26,407503328,391
32-27,407507234,1125
32-28,407511140,1339
32-29,407515046,1057
32-30,407518952,436
32-31,407522858,-163
32-32,407526764,-363
32-1,407530676,-45
32-2,407534582,713
32-3,407538488,1455
32-4,407542394,1614
32-5,407546300,946
32-6,407550206,-189
32-7,407554112,-935
32-8,407558018,-821
32-9,407561924,-65
32-10,407565830,712
32-11,407569736,905
32-12,407573642,401
32-13,407577548,-505
32-14,407581454,-1247
32-15,407585360,-1300
32-16,407589266,-649
32-17,407593172,361
32-18,407597078,1173
32-19,407600984,1316
32-20,407604890,726
32-21,407608796,-279
32-22,407612702,-1026
32-23,407616608,-981
32-24,407620514,-218
32-25,407624420,749
32-26,407628326,1285
32-27,407632232,1116
32-28,407636138,513
32-29,407640044,-97
32-30,407643950,-272
32-31,407647856,38
32-32,407651762,609
32-1,407655765,1202
32-2,407659671,1487
32-3,407663577,1227
32-4,407667483,359
32-5,407671389,-677
32-6,407675295,-1131
32-7,407679201,-724
32-8,407683107,159
32-9,407687013,819
32-10,407690919,783
32-11,407694825,100
32-12,407698731,-833
32-13,407702637,-1413
32-14,407706543,-1234
32-15,407710449,-415
32-16,407714355,626
32-17,407718261,1287
32-18,407722167,1184
32-19,407726073,370
32-20,407729979,-693
32-21,407733885,-1252
32-22,407737791,-975
32-23,407741697,-106
32-24,407745603,813
32-25,407749509,1122
32-26,407753415,651
32-27,407757321,-230
32-28,407761227,-910
32-29,407765133,-849
32-30,407769039,-145
32-31,407772945,757
32-32,407776851,1424
32-1,407780701,1516
32-2,407784607,976
32-3,407788513,-24
32-4,407792419,-956
32-5,407796325,-1203
32-6,407800231,-633
32-7,407804137,300
32-8,407808043,887
32-9,407811949,723
32-10,407815855,-75
32-11,407819761,-1035
32-12,407823667,-1502
32-13,407827573,-1181
32-14,407831479,-312
32-15,407835385,598
32-16,407839291,976
32-17,407843197,612
32-18,407847103,-301
32-19,407851009,-1213
32-20,407854915,-1477
32-21,407858821,-955
32-22,407862727,-3
32-23,407866633,807
32-24,407870539,960
32-25,407874445,349
32-26,407878351,-663
32-27,407882257,-1392
32-28,407886163,-1309
32-29,407890069,-504
32-30,407893975,569
32-31,407897881,1333
32-32,407901787,1400
32-1,407905669,738
32-2,407909575,-332
32-3,407913481,-1104
32-4,407917387,-1123
32-5,407921293,-447
32-6,407925199,404
32-7,407929105,772
32-8,407933011,414
32-9,407936917,-474
32-10,407940823,-1350
32-11,407944729,-1602
32-12,407948635,-1089
32-13,407952541,-140
32-14,407956447,671
32-15,407960353,832
32-16,407964259,277
32-17,407968165,-695
32-18,407972071,-1455
32-19,407975977,-1464
32-20,407979883,-769
32-21,407983789,206
32-22,407987695,849
32-23,407991601,769
32-24,407995507,28
32-25,407999413,-978
32-26,408003319,-1554
32-27,408007225,-1337
32-28,408011131,-510
32-29,408015037,492
32-30,408018943,1073
32-31,408022849,914
32-32,408026755,84
32-1,408030666,-961
32-2,408034572,-1486
32-3,408038478,-1164
32-4,408042384,-207
32-5,408046290,856
32-6,408050196,1349
32-7,408054102,981
32-8,408058008,-68
32-9,408061914,-1130
32-10,408065820,-1458
32-11,408069726,-915
32-12,408073632,43
32-13,408077538,702
32-14,408081444,607
32-15,408085350,-167
32-16,408089256,-1163
32-17,408093162,-1691
32-18,408097068,-1397
32-19,408100974,-555
32-20,408104880,281
32-21,408108786,564
32-22,408112692,172
32-23,408116598,-637
32-24,408120504,-1391
32-25,408124410,-1525
32-26,408128316,-992
32-27,408132222,-108
32-28,408136128,765
32-29,408140034,1215
32-30,408143940,1051
32-31,408147846,333
32-32,408151752,-517
32-1,408155664,-935
32-2,408159570,-670
32-3,408163476,169
32-4,408167382,1168
32-5,408171288,1750
32-6,408175194,1553
32-7,408179100,704
32-8,408183006,-192
32-9,408186912,-553
32-10,408190818,-286
32-11,408194724,256
32-12,408198630,512
32-13,408202536,216
32-14,408206442,-512
32-15,408210348,-1267
32-16,408214254,-1478
32-17,408218160,-1000
32-18,408222066,-91
32-19,408225972,743
32-20,408229878,972
32-21,408233784,489
32-22,408237690,-465
32-23,408241596,-1273
32-24,408245502,-1351
32-25,408249408,-717
32-26,408253314,189
32-27,408257220,848
32-28,408261126,983
32-29,408265032,626
32-30,408268938,69
32-31,408272844,-297
32-32,408276750,-388
32-1,408280814,-400
32-2,408284720,-454
32-3,408288626,-594
32-4,408292532,-779
32-5,408296438,-1006
32-6,408300344,-1253
32-7,408304250,-1232
32-8,408308156,-839
32-9,408312062,-61
32-10,408315968,957
32-11,408319874,1757
32-12,408323780,2025
32-13,408327686,1644
32-14,408331592,893
32-15,408335498,314
32-16,408339404,158
32-17,408343310,334
32-18,408347216,498
32-19,408351122,320
32-20,408355028,-235
32-21,408358934,-956
32-22,408362840,-1389
32-23,408366746,-1159
32-24,408370652,-342
32-25,408374558,622
32-26,408378464,1133
32-27,408382370,937
32-28,408386276,310
32-29,408390182,-288
32-30,408394088,-409
32-31,408397994,-33
32-32,408401900,575
32-1,408405659,1173
32-2,408409565,1455
32-3,408413471,1208
32-4,408417377,375
32-5,408421283,-621
32-6,408425189,-1070
32-7,408429095,-683
32-8,408433001,202
32-9,408436907,908
32-10,408440813,940
32-11,408444719,295
32-12,408448625,-660
32-13,408452531,-1310
32-14,408456437,-1215
32-15,408460343,-468
32-16,408464249,523
32-17,408468155,1156
32-18,408472061,1046
32-19,408475967,241
32-20,408479873,-823
32-21,408483779,-1389
32-22,408487685,-1099
32-23,408491591,-217
32-24,408495497,679
32-25,408499403,918
32-26,408503309,357
32-27,408507215,-563
32-28,408511121,-1200
32-29,408515027,-1053
32-30,408518933,-270
32-31,408522839,675
32-32,408526745,1370
32-1,408530687,1503
32-2,408534593,978
32-3,408538499,-44
32-4,408542405,-1018
32-5,408546311,-1302
32-6,408550217,-759
32-7,408554123,136
32-8,408558029,664
32-9,408561935,449
32-10,408565841,-353
32-11,408569747,-1276
32-12,408573653,-1682
32-13,408577559,-1303
32-14,408581465,-353
32-15,408585371,665
32-16,408589277,1141
32-17,408593183,825
32-18,408597089,-114
32-19,408600995,-1102
32-20,408604901,-1438
32-21,408608807,-952
32-22,408612713,-3
32-23,408616619,816
32-24,408620525,972
32-25,408624431,356
32-26,408628337,-674
32-27,408632243,-1433
32-28,408636149,-1364
32-29,408640055,-555
32-30,408643961,531
32-31,408647867,1278
32-32,408651773,1284
32-1,408655654,546
32-2,408659560,-578
32-3,408663466,-1344
32-4,408667372,-1292
32-5,408671278,-512
32-6,408675184,464
32-7,408679090,934
32-8,408682996,622
32-9,408686902,-277
32-10,408690808,-1203
32-11,408694714,-1494
32-12,408698620,-995
32-13,408702526,-31
32-14,408706432,821
32-15,408710338,1023
32-16,408714244,477
32-17,408718150,-540
32-18,408722056,-1383
32-19,408725962,-1455
32-20,408729868,-773
32-21,408733774,232
32-22,408737680,913
32-23,408741586,844
32-24,408745492,84
32-25,408749398,-960
32-26,408753304,-1571
32-27,408757210,-1364
32-28,408761116,-513
32-29,408765022,539
32-30,408768928,1167
32-31,408772834,1024
32-32,408776740,190
32-1,408780652,-873
32-2,408784558,-1410
32-3,408788464,-1089
32-4,408792370,-134
32-5,408796276,915
32-6,408800182,1386
32-7,408804088,997
32-8,408807994,-45
32-9,408811900,-1079
32-10,408815806,-1386
32-11,408819712,-838
32-12,408823618,113
32-13,408827524,760
32-14,408831430,654
32-15,408835336,-126
32-16,408839242,-1144
32-17,408843148,-1725
32-18,408847054,-1472
32-19,408850960,-573
32-20,408854866,481
32-21,408858772,1068
32-22,408862678,879
32-23,408866584,34
32-24,408870490,-965
32-25,408874396,-1372
32-26,408878302,-995
32-27,408882208,-138
32-28,408886114,762
32-29,408890020,1228
32-30,408893926,1068
32-31,408897832,321
32-32,408901738,-614
32-1,408905802,-1079
32-2,408909708,-763
32-3,408913614,192
32-4,408917520,1200
32-5,408921426,1522
32-6,408925332,906
32-7,408929238,-271
32-8,408933144,-1191
32-9,408937050,-1230
32-10,408940956,-467
32-11,408944862,503
32-12,408948768,983
32-13,408952674,663
32-14,408956580,-255
32-15,408960486,-1228
32-16,408964392,-1566
32-17,408968298,-1061
32-18,408972204,-44
32-19,408976110,907
32-20,408980016,1230
32-21,408983922,802
32-22,408987828,-137
32-23,408991734,-986
32-24,408995640,-1115
32-25,408999546,-524
32-26,409003452,373
32-27,409007358,1058
32-28,409011264,1230
32-29,409015170,913
32-30,409019076,281
32-31,409022982,-288
32-32,409026888,-437
32-1,409030647,-76
32-2,409034553,704
32-3,409038459,1455
32-4,409042365,1618
32-5,409046271,960
32-6,409050177,-185
32-7,409054083,-954
32-8,409057989,-848
32-9,409061895,-56
32-10,409065801,819
32-11,409069707,1106
32-12,409073613,630
32-13,409077519,-325
32-14,409081425,-1150
32-15,409085331,-1257
32-16,409089237,-611
32-17,409093143,395
32-18,409097049,1163
32-19,409100955,1231
32-20,409104861,569
32-21,409108767,-459
32-22,409112673,-1159
32-23,409116579,-1022
32-24,409120485,-180
32-25,409124391,799
32-26,409128297,1273
32-27,409132203,1031
32-28,409136109,405
32-29,409140015,-161
32-30,409143921,-259
32-31,409147827,122
32-32,409151733,738
32-1,409155645,1381
32-2,409159551,1728
32-3,409163457,1530
32-4,409167363,696
32-5,409171269,-359
32-6,409175175,-863
32-7,409179081,-491
32-8,409182987,414
32-9,409186893,1127
32-10,409190799,1123
32-11,409194705,407
32-12,409198611,-602
32-13,409202517,-1247
32-14,409206423,-1097
32-15,409210329,-310
32-16,409214235,656
32-17,409218141,1227
32-18,409222047,1067
32-19,409225953,259
32-20,409229859,-756
32-21,409233765,-1262
32-22,409237671,-936
32-23,409241577,-22
32-24,409245483,938
32-25,409249389,1258
32-26,409253295,754
32-27,409257201,-180
32-28,409261107,-891
32-29,409265013,-819
32-30,409268919,-77
32-31,409272825,856
32-32,409276731,1537
32-1,409280673,1645
32-2,409284579,1124
32-3,409288485,160
32-4,409292391,-714
32-5,409296297,-916
32-6,409300203,-397
32-7,409304109,346
32-8,409308015,692
32-9,409311921,396
32-10,409315827,-324
32-11,409319733,-1076
32-12,409323639,-1384
32-13,409327545,-1047
32-14,409331451,-199
32-15,409335357,836
32-16,409339263,1498
32-17,409343169,1392
32-18,409347075,513
32-19,409350981,-592
32-20,409354887,-1124
32-21,409358793,-779
32-22,409362699,115
32-23,409366605,901
32-24,409370511,1017
32-25,409374417,366
32-26,409378323,-633
32-27,409382229,-1305
32-28,409386135,-1168
32-29,409390041,-330
32-30,409393947,760
32-31,409397853,1531
32-32,409401759,1581
32-1,409405640,867
32-2,409409546,-269
32-3,409413452,-1072
32-4,409417358,-1063
32-5,409421264,-325
32-6,409425170,592
32-7,409429076,991
32-8,409432982,641
32-9,409436888,-246
32-10,409440794,-1133
32-11,409444700,-1401
32-12,409448606,-899
32-13,409452512,74
32-14,409456418,960
32-15,409460324,1200
32-16,409464230,660
32-17,409468136,-380
32-18,409472042,-1235
32-19,409475948,-1295
32-20,409479854,-600
32-21,409483760,355
32-22,409487666,933
32-23,409491572,782
32-24,409495478,20
32-25,409499384,-930
32-26,409503290,-1424
32-27,409507196,-1160
32-28,409511102,-315
32-29,409515008,698
32-30,409518914,1293
32-31,409522820,1134
32-32,409526726,271
32-1,409530638,-827
32-2,409534544,-1393
32-3,409538450,-1090
32-4,409542356,-119
32-5,409546262,977
32-6,409550168,1516
32-7,409554074,1201
32-8,409557980,204
32-9,409561886,-823
32-10,409565792,-1162
32-11,409569698,-701
32-12,409573604,126
32-13,409577510,673
32-14,409581416,540
32-15,409585322,-176
32-16,409589228,-1080
32-17,409593134,-1575
32-18,409597040,-1318
32-19,409600946,-467
32-20,409604852,525
32-21,409608758,1051
32-22,409612664,801
32-23,409616570,-96
32-24,409620476,-1112
32-25,409624382,-1510
32-26,409628288,-1125
32-27,409632194,-287
32-28,409636100,573
32-29,409640006,1000
32-30,409643912,821
32-31,409647818,86
32-32,409651724,-814
32-1,409655635,-1247
32-2,409659541,-929
32-3,409663447,-2
32-4,409667353,975
32-5,409671259,1301
32-6,409675165,712
32-7,409679071,-446
32-8,409682977,-1372
32-9,409686883,-1444
32-10,409690789,-705
32-11,409694695,273
32-12,409698601,772
32-13,409702507,476
32-14,409706413,-407
32-15,409710319,-1338
32-16,409714225,-1660
32-17,409718131,-1175
32-18,409722037,-192
32-19,409725943,731
32-20,409729849,1042
32-21,409733755,610
32-22,409737661,-334
32-23,409741567,-1181
32-24,409745473,-1300
32-25,409749379,-695
32-26,409753285,212
32-27,409757191,905
32-28,409761097,1094
32-29,409765003,815
32-30,409768909,206
32-31,409772815,-377
32-32,409776721,-554
32-1,409780633,-204
32-2,409784539,571
32-3,409788445,1288
32-4,409792351,1377
32-5,409796257,634
32-6,409800163,-542
32-7,409804069,-1274
32-8,409807975,-1095
32-9,409811881,-235
32-10,409815787,656
32-11,409819693,929
32-12,409823599,436
32-13,409827505,-533
32-14,409831411,-1370
32-15,409835317,-1491
32-16,409839223,-863
32-17,409843129,142
32-18,409847035,937
32-19,409850941,1061
32-20,409854847,475
32-21,409858753,-492
32-22,409862659,-1177
32-23,409866565,-1072
32-24,409870471,-286
32-25,409874377,645
32-26,409878283,1093
32-27,409882189,842
32-28,409886095,215
32-29,409890001,-346
32-30,409893907,-438
32-31,409897813,-60
32-32,409901719,527
32-1,409905631,1120
32-2,409909537,1430
32-3,409913443,1232
32-4,409917349,419
32-5,409921255,-618
32-6,409925161,-1142
32-7,409929067,-811
32-8,409932973,86
32-9,409936879,869
32-10,409940785,983
32-11,409944691,354
32-12,409948597,-658
32-13,409952503,-1384
32-14,409956409,-1323
32-15,409960315,-575
32-16,409964221,404
32-17,409968127,992
32-18,409972033,835
32-19,409975939,36
32-20,409979845,-959
32-21,409983751,-1451
32-22,409987657,-1122
32-23,409991563,-211
32-24,409995469,746
32-25,409999375,1081
32-26,410003281,567
32-27,410007187,-374
32-28,410011093,-976
32-29,410014999,-773
32-30,410018905,-127
32-31,410022811,278
32-32,410026717,135
32-1,410155626,823
32-2,410159532,-289
32-3,410163438,-1086
32-4,410167344,-1086
32-5,410171250,-351
32-6,410175156,566
32-7,410179062,959
32-8,410182968,584
32-9,410186874,-325
32-10,410190780,-1194
32-11,410194686,-1404
32-12,410198592,-839
32-13,410202498,149
32-14,410206404,997
32-15,410210310,1207
32-16,410214216,704
32-17,410218122,-241
32-18,410222028,-1016
32-19,410225934,-1070
32-20,410229840,-416
32-21,410233746,547
32-22,410237652,1210
32-23,410241558,1158
32-24,410245464,425
32-25,410249370,-593
32-26,410253276,-1184
32-27,410257182,-978
32-28,410261088,-144
32-29,410264994,857
32-30,410268900,1409
32-31,410272806,1213
32-32,410276712,356
32-1,410280624,-690
32-2,410284530,-1186
32-3,410288436,-832
32-4,410292342,155
32-5,410296248,1238
32-6,410300154,1743
32-7,410304060,1389
32-8,410307966,360
32-9,410311872,-690
32-10,410315778,-1018
32-11,410319684,-502
32-12,410323590,421
32-13,410327496,1060
32-14,410331402,971
32-15,410335308,226
32-16,410339214,-755
32-17,410343120,-1317
32-18,410347026,-1083
32-19,410350932,-217
32-20,410354838,805
32-21,410358744,1369
32-22,410362650,1162
32-23,410366556,290
32-24,410370462,-696
32-25,410374368,-1085
32-26,410378274,-738
32-27,410382180,23
32-28,410386086,778
32-29,410389992,1138
32-30,410393898,972
32-31,410397804,326
32-32,410401710,-472
32-1,410405621,-859
32-2,410409527,-576
32-3,410413433,310
32-4,410417339,1319
32-5,410421245,1778
32-6,410425151,1371
32-7,410429057,318
32-8,410432963,-646
32-9,410436869,-885
32-10,410440775,-360
32-11,410444681,444
32-12,410448587,854
32-13,410452493,557
32-14,410456399,-274
32-15,410460305,-1146
32-16,410464211,-1442
32-17,410468117,-972
32-18,410472023,-10
32-19,410475929,921
32-20,410479835,1260
32-21,410483741,830
32-22,410487647,-155
32-23,410491553,-1067
32-24,410495459,-1253
32-25,410499365,-685
32-26,410503271,213
32-27,410507177,915
32-28,410511083,1124
32-29,410514989,858
32-30,410518895,257
32-31,410522801,-325
32-32,410526707,-507
32-1,410530619,-177
32-2,410534525,580
32-3,410538431,1298
32-4,410542337,1420
32-5,410546243,734
32-6,410550149,-386
32-7,410554055,-1093
32-8,410557961,-946
32-9,410561867,-184
32-10,410565773,584
32-11,410569679,775
32-12,410573585,284
32-13,410577491,-598
32-14,410581397,-1322
32-15,410585303,-1381
32-16,410589209,-748
32-17,410593115,243
32-18,410597021,1030
32-19,410600927,1145
32-20,410604833,520
32-21,410608739,-528
32-22,410612645,-1303
32-23,410616551,-1264
32-24,410620457,-492
32-25,410624363,474
32-26,410628269,976
32-27,410632175,775
32-28,410636081,171
32-29,410639987,-406
32-30,410643893,-535
32-31,410647799,-192
32-32,410651705,391
32-1,410655616,1007
32-2,410659522,1336
32-3,410663428,1124
32-4,410667334,276
32-5,410671240,-779
32-6,410675146,-1271
32-7,410679052,-872
32-8,410682958,65
32-9,410686864,819
32-10,410690770,859
32-11,410694676,184
32-12,410698582,-810
32-13,410702488,-1474
32-14,410706394,-1360
32-15,410710300,-577
32-16,410714206,429
32-17,410718112,1056
32-18,410722018,940
32-19,410725924,156
32-20,410729830,-853
32-21,410733736,-1371
32-22,410737642,-1077
32-23,410741548,-196
32-24,410745454,748
32-25,410749360,1090
32-26,410753266,629
32-27,410757172,-278
32-28,410761078,-991
32-29,410764984,-944
32-30,410768890,-227
32-31,410772796,694
32-32,410776702,1357
32-1,410780675,1438
32-2,410784581,894
32-3,410788487,-103
32-4,410792393,-1028
32-5,410796299,-1265
32-6,410800205,-688
32-7,410804111,248
32-8,410808017,829
32-9,410811923,657
32-10,410815829,-139
32-11,410819735,-1093
32-12,410823641,-1546
32-13,410827547,-1200
32-14,410831453,-288
32-15,410835359,680
32-16,410839265,1110
32-17,410843171,782
32-18,410847077,-118
32-19,410850983,-1036
32-20,410854889,-1305
32-21,410858795,-793
32-22,410862701,138
32-23,410866607,931
32-24,410870513,1081
32-25,410874419,476
32-26,410878325,-519
32-27,410882231,-1237
32-28,410886137,-1151
32-29,410890043,-345
32-30,410893949,727
32-31,410897855,1487
32-32,410901761,1543
32-1,410905612,854
32-2,410909518,-251
32-3,410913424,-1045
32-4,410917330,-1061
32-5,410921236,-352
32-6,410925142,542
32-7,410929048,916
32-8,410932954,520
32-9,410936860,-424
32-10,410940766,-1345
32-11,410944672,-1596
32-12,410948578,-1051
32-13,410952484,-59
32-14,410956390,795
32-15,410960296,991
32-16,410964202,465
32-17,410968108,-501
32-18,410972014,-1291
32-19,410975920,-1346
32-20,410979826,-693
32-21,410983732,258
32-22,410987638,914
32-23,410991544,866
32-24,410995450,154
32-25,410999356,-835
32-26,411003262,-1420
32-27,411007168,-1221
32-28,411011074,-402
32-29,411014980,601
32-30,411018886,1191
32-31,411022792,1041
32-32,411026698,213
32-1,411155607,-1170
32-2,411159513,-920
32-3,411163419,-44
32-4,411167325,861
32-5,411171231,1144
32-6,411175137,547
32-7,411179043,-586
32-8,411182949,-1454
32-9,411186855,-1472
32-10,411190761,-723
32-11,411194667,231
32-12,411198573,707
32-13,411202479,404
32-14,411206385,-479
32-15,411210291,-1411
32-16,411214197,-1729
32-17,411218103,-1244
32-18,411222009,-279
32-19,411225915,624
32-20,411229821,922
32-21,411233727,483
32-22,411237633,-463
32-23,411241539,-1319
32-24,411245445,-1462
32-25,411249351,-872
32-26,411253257,44
32-27,411257163,760
32-28,411261069,966
32-29,411264975,674
32-30,411268881,34
32-31,411272787,-582
32-32,411276693,-792
32-1,411280605,-472
32-2,411284511,293
32-3,411288417,1035
32-4,411292323,1184
32-5,411296229,502
32-6,411300135,-646
32-7,411304041,-1390
32-8,411307947,-1258
32-9,411311853,-479
32-10,411315759,312
32-11,411319665,508
32-12,411323571,1
32-13,411327477,-901
32-14,411331383,-1637
32-15,411335289,-1688
32-16,411339195,-1035
32-17,411343101,-11
32-18,411347007,822
32-19,411350913,980
32-20,411354819,374
32-21,411358725,-662
32-22,411362631,-1410
32-23,411366537,-1329
32-24,411370443,-539
32-25,411374349,384
32-26,411378255,806
32-27,411382161,539
32-28,411386067,-66
32-29,411389973,-567
32-30,411393879,-603
32-31,411397785,-208
32-32,411401691,367
32-1,411405602,952
32-2,411409508,1282
32-3,411413414,1116
32-4,411417320,334
32-5,411421226,-682
32-6,411425132,-1205
32-7,411429038,-910
32-8,411432944,-109
32-9,411436850,533
32-10,411440756,540
32-11,411444662,-84
32-12,411448568,-977
32-13,411452474,-1560
32-14,411456380,-1423
32-15,411460286,-656
32-16,411464192,347
32-17,411468098,997
32-18,411472004,902
32-19,411475910,104
32-20,411479816,-946
32-21,411483722,-1506
32-22,411487628,-1221
32-23,411491534,-318
32-24,411495440,661
32-25,411499346,1030
32-26,411503252,589
32-27,411507158,-296
32-28,411511064,-992
32-29,411514970,-936
32-30,411518876,-216
32-31,411522782,714
32-32,411526688,1406
32-1,411530600,1522
32-2,411534506,994
32-3,411538412,-4
32-4,411542318,-932
32-5,411546224,-1155
32-6,411550130,-566
32-7,411554036,346
32-8,411557942,878
32-9,411561848,678
32-10,411565754,-86
32-11,411569660,-972
32-12,411573566,-1381
32-13,411577472,-1035
32-14,411581378,-132
32-15,411585284,864
32-16,411589190,1366
32-17,411593096,1093
32-18,411597002,190
32-19,411600908,-775
32-20,411604814,-1106
32-21,411608720,-620
32-22,411612626,327
32-23,411616532,1148
32-24,411620438,1320
32-25,411624344,705
32-26,411628250,-314
32-27,411632156,-1008
32-28,411636062,-868
32-29,411639968,-65
32-30,411643874,817
32-31,411647780,1203
32-32,411651686,915
32-1,411655598,173
32-2,411659504,-635
32-3,411663410,-999
32-4,411667316,-751
32-5,411671222,23
32-6,411675128,1061
32-7,411679034,1902
32-8,411682940,2190
32-9,411686846,1741
32-10,411690752,824
32-11,411694658,102
32-12,411698564,-21
32-13,411702470,377
32-14,411706376,840
32-15,411710282,864
32-16,411714188,361
32-17,411718094,-442
32-18,411722000,-1030
32-19,411725906,-952
32-20,411729812,-242
32-21,411733718,749
32-22,411737624,1436
32-23,411741530,1382
32-24,411745436,590
32-25,411749342,-455
32-26,411753248,-1064
32-27,411757154,-944
32-28,411761060,-283
32-29,411764966,484
32-30,411768872,883
32-31,411772778,710
32-32,411776684,34
32-1,411780595,-773
32-2,411784501,-1132
32-3,411788407,-824
32-4,411792313,67
32-5,411796219,1152
32-6,411800125,1908
32-7,411804031,2051
32-8,411807937,1486
32-9,411811843,594
32-10,411815749,6
32-11,411819655,-26
32-12,411823561,317
32-13,411827467,584
32-14,411831373,425
32-15,411835279,-143
32-16,411839185,-872
32-17,411843091,-1267
32-18,411846997,-1018
32-19,411850903,-233
32-20,411854809,714
32-21,411858715,1252
32-22,411862621,1064
32-23,411866527,229
32-24,411870433,-758
32-25,411874339,-1184
32-26,411878245,-862
32-27,411882151,-63
32-28,411886057,807
32-29,411889963,1274
32-30,411893869,1135
32-31,411897775,423
32-32,411901681,-484
32-1,411905593,-938
32-2,411909499,-647
32-3,411913405,236
32-4,411917311,1161
32-5,411921217,1461
32-6,411925123,891
32-7,411929029,-209
32-8,411932935,-1083
32-9,411936841,-1154
32-10,411940747,-474
32-11,411944653,419
32-12,411948559,862
32-13,411952465,567
32-14,411956371,-294
32-15,411960277,-1224
32-16,411964183,-1580
32-17,411968089,-1149
32-18,411971995,-208
32-19,411975901,702
32-20,411979807,1019
32-21,411983713,597
32-22,411987619,-350
32-23,411991525,-1214
32-24,411995431,-1352
32-25,411999337,-747
32-26,412003243,173
32-27,412007149,880
32-28,412011055,1079
32-29,412014961,795
32-30,412018867,170
32-31,412022773,-434
32-32,412026679,-626
32-1,412030590,-297
32-2,412034496,458
32-3,412038402,1172
32-4,412042308,1299
32-5,412046214,637
32-6,412050120,-453
32-7,412054026,-1158
32-8,412057932,-1051
32-9,412061838,-319
32-10,412065744,475
32-11,412069650,736
32-12,412073556,296
32-13,412077462,-609
32-14,412081368,-1398
32-15,412085274,-1498
32-16,412089180,-873
32-17,412093086,102
32-18,412096992,844
32-19,412100898,901
32-20,412104804,261
32-21,412108710,-734
32-22,412112616,-1420
32-23,412116522,-1296
32-24,412120428,-478
32-25,412124334,490
32-26,412128240,975
32-27,412132146,746
32-28,412136052,111
32-29,412139958,-474
32-30,412143864,-608
32-31,412147770,-271
32-32,412151676,302
32-1,412155588,933
32-2,412159494,1363
32-3,412163400,1323
32-4,412167306,630
32-5,412171212,-381
32-6,412175118,-979
32-7,412179024,-788
32-8,412182930,-54
32-9,412186836,564
32-10,412190742,567
32-11,412194648,-60
32-12,412198554,-964
32-13,412202460,-1537
32-14,412206366,-1377
32-15,412210272,-610
32-16,412214178,343
32-17,412218084,906
32-18,412221990,746
32-19,412225896,-39
32-20,412229802,-1017
32-21,412233708,-1508
32-22,412237614,-1202
32-23,412241520,-312
32-24,412245426,660
32-25,412249332,1050
32-26,412253238,586
32-27,412257144,-363
32-28,412261050,-1027
32-29,412264956,-895
32-30,412268862,-293
32-31,412272768,107
32-32,412276674,-28
32-1,412280677,-529
32-2,412284583,-1011
32-3,412288489,-1340
32-4,412292395,-1457
32-5,412296301,-1256
32-6,412300207,-673
32-7,412304113,279
32-8,412308019,1229
32-9,412311925,1750
32-10,412315831,1606
32-11,412319737,873
32-12,412323643,89
32-13,412327549,-268
32-14,412331455,-144
32-15,412335361,172
32-16,412339267,220
32-17,412343173,-190
32-18,412347079,-909
32-19,412350985,-1561
32-20,412354891,-1665
32-21,412358797,-1126
32-22,412362703,-208
32-23,412366609,612
32-24,412370515,814
32-25,412374421,230
32-26,412378327,-816
32-27,412382233,-1611
32-28,412386139,-1584
32-29,412390045,-795
32-30,412393951,282
32-31,412397857,1024
32-32,412401763,1034
32-1,412405583,315
32-2,412409489,-792
32-3,412413395,-1578
32-4,412417301,-1570
32-5,412421207,-797
32-6,412425113,250
32-7,412429019,840
32-8,412432925,609
32-9,412436831,-320
32-10,412440737,-1380
32-11,412444643,-1824
32-12,412448549,-1401
32-13,412452455,-435
32-14,412456361,458
32-15,412460267,708
32-16,412464173,204
32-17,412468079,-767
32-18,412471985,-1579
32-19,412475891,-1648
32-20,412479797,-983
32-21,412483703,-3
32-22,412487609,673
32-23,412491515,623
32-24,412495421,-110
32-25,412499327,-1130
32-26,412503233,-1729
32-27,412507139,-1530
32-28,412511045,-706
32-29,412514951,296
32-30,412518857,877
32-31,412522763,725
32-32,412526669,-88
32-1,412530550,-1120
32-2,412534456,-1655
32-3,412538362,-1365
32-4,412542268,-427
32-5,412546174,642
32-6,412550080,1155
32-7,412553986,795
32-8,412557892,-272
32-9,412561798,-1372
32-10,412565704,-1722
32-11,412569610,-1177
32-12,412573516,-196
32-13,412577422,493
32-14,412581328,419
32-15,412585234,-342
32-16,412589140,-1344
32-17,412593046,-1913
32-18,412596952,-1664
32-19,412600858,-786
32-20,412604764,222
32-21,412608670,749
32-22,412612576,513
32-23,412616482,-346
32-24,412620388,-1325
32-25,412624294,-1708
32-26,412628200,-1320
32-27,412632106,-461
32-28,412636012,451
32-29,412639918,925
32-30,412643824,746
32-31,412647730,-32
32-32,412651636,-980
32-1,412655579,-1424
32-2,412659485,-1084
32-3,412663391,-139
32-4,412667297,829
32-5,412671203,1135
32-6,412675109,550
32-7,412679015,-584
32-8,412682921,-1498
32-9,412686827,-1582
32-10,412690733,-882
32-11,412694639,61
32-12,412698545,558
32-13,412702451,272
32-14,412706357,-617
32-15,412710263,-1567
32-16,412714169,-1886
32-17,412718075,-1345
32-18,412721981,-300
32-19,412725887,626
32-20,412729793,856
32-21,412733699,287
32-22,412737605,-800
32-23,412741511,-1741
32-24,412745417,-1868
32-25,412749323,-1193
32-26,412753229,-185
32-27,412757135,568
32-28,412761041,740
32-29,412764947,387
32-30,412768853,-298
32-31,412772759,-909
32-32,412776665,-1045
32-1,412780576,-612
32-2,412784482,252
32-3,412788388,1025
32-4,412792294,1116
32-5,412796200,334
32-6,412800106,-876
32-7,412804012,-1600
32-8,412807918,-1376
32-9,412811824,-471
32-10,412815730,461
32-11,412819636,782
32-12,412823542,353
32-13,412827448,-512
32-14,412831354,-1220
32-15,412835260,-1256
32-16,412839166,-644
32-17,412843072,235
32-18,412846978,894
32-19,412850884,955
32-20,412854790,421
32-21,412858696,-424
32-22,412862602,-1008
32-23,412866508,-918
32-24,412870414,-279
32-25,412874320,531
32-26,412878226,1011
32-27,412882132,948
32-28,412886038,468
32-29,412889944,-175
32-30,412893850,-511
32-31,412897756,-316
32-32,412901662,234
32-1,412905574,756
32-2,412909480,808
32-3,412913386,240
32-4,412917292,-738
32-5,412921198,-1628
32-6,412925104,-1836
32-7,412929010,-1192
32-8,412932916,5
32-9,412936822,1198
32-10,412940728,1764
32-11,412944634,1376
32-12,412948540,210
32-13,412952446,-924
32-14,412956352,-1224
32-15,412960258,-627
32-16,412964164,323
32-17,412968070,861
32-18,412971976,616
32-19,412975882,-211
32-20,412979788,-1105
32-21,412983694,-1424
32-22,412987600,-977
32-23,412991506,-50
32-24,412995412,907
32-25,412999318,1324
32-26,413003224,1015
32-27,413007130,292
32-28,413011036,-295
32-29,413014942,-261
32-30,413018848,312
32-31,413022754,1006
32-32,413026660,1505
32-1,413030663,1630
32-2,413034569,1348
32-3,413038475,706
32-4,413042381,5
32-5,413046287,-297
32-6,413050193,-4
32-7,413054099,650
32-8,413058005,1103
32-9,413061911,973
32-10,413065817,271
32-11,413069723,-638
32-12,413073629,-1097
32-13,413077535,-790
32-14,413081441,60
32-15,413085347,965
32-16,413089253,1345
32-17,413093159,990
32-18,413097065,99
32-19,413100971,-794
32-20,413104877,-1048
32-21,413108783,-528
32-22,413112689,412
32-23,413116595,1220
32-24,413120501,1384
32-25,413124407,790
32-26,413128313,-200
32-27,413132219,-919
32-28,413136125,-843
32-29,413140031,-53
32-30,413143937,1002
32-31,413147843,1751
32-32,413151749,1813
32-1,413155600,1156
32-2,413159506,94
32-3,413163412,-673
32-4,413167318,-699
32-5,413171224,-36
32-6,413175130,840
32-7,413179036,1265
32-8,413182942,976
32-9,413186848,142
32-10,413190754,-725
32-11,413194660,-999
32-12,413198566,-518
32-13,413202472,412
32-14,413206378,1238
32-15,413210284,1431
32-16,413214190,884
32-17,413218096,-124
32-18,413222002,-949
32-19,413225908,-1007
32-20,413229814,-334
32-21,413233720,625
32-22,413237626,1256
32-23,413241532,1194
32-24,413245438,524
32-25,413249344,-375
32-26,413253250,-874
32-27,413257156,-648
32-28,413261062,138
32-29,413264968,1096
32-30,413268874,1659
32-31,413272780,1496
32-32,413276686,659
32-1,413280567,-392
32-2,413284473,-916
32-3,413288379,-596
32-4,413292285,348
32-5,413296191,1381
32-6,413300097,1858
32-7,413304003,1533
32-8,413307909,591
32-9,413311815,-360
32-10,413315721,-645
32-11,413319627,-167
32-12,413323533,687
32-13,413327439,1300
32-14,413331345,1248
32-15,413335251,573
32-16,413339157,-356
32-17,413343063,-924
32-18,413346969,-749
32-19,413350875,23
32-20,413354781,959
32-21,413358687,1468
32-22,413362593,1243
32-23,413366499,395
32-24,413370405,-598
32-25,413374311,-1026
32-26,413378217,-689
32-27,413382123,115
32-28,413386029,958
32-29,413389935,1373
32-30,413393841,1183
32-31,413397747,454
32-32,413401653,-430
32-1,413405564,-857
32-2,413409470,-569
32-3,413413376,291
32-4,413417282,1203
32-5,413421188,1516
32-6,413425094,979
32-7,413429000,-104
32-8,413432906,-986
32-9,413436812,-1079
32-10,413440718,-448
32-11,413444624,386
32-12,413448530,788
32-13,413452436,485
32-14,413456342,-323
32-15,413460248,-1172
32-16,413464154,-1478
32-17,413468060,-1055
32-18,413471966,-157
32-19,413475872,750
32-20,413479778,1126
32-21,413483684,774
32-22,413487590,-135
32-23,413491496,-1017
32-24,413495402,-1223
32-25,413499308,-704
32-26,413503214,145
32-27,413507120,814
32-28,413511026,1006
32-29,413514932,742
32-30,413518838,167
32-31,413522744,-394
32-32,413526650,-586
32-1,413530562,-301
32-2,413534468,388
32-3,413538374,1064
32-4,413542280,1215
32-5,413546186,633
32-6,413550092,-375
32-7,413553998,-1050
32-8,413557904,-951
32-9,413561810,-238
32-10,413565716,560
32-11,413569622,860
32-12,413573528,477
32-13,413577434,-370
32-14,413581340,-1144
32-15,413585246,-1284
32-16,413589152,-730
32-17,413593058,186
32-18,413596964,917
32-19,413600870,1011
32-20,413604776,431
32-21,413608682,-511
32-22,413612588,-1187
32-23,413616494,-1110
32-24,413620400,-369
32-25,413624306,544
32-26,413628212,1027
32-27,413632118,839
32-28,413636024,257
32-29,413639930,-304
32-30,413643836,-439
32-31,413647742,-117
32-32,413651648,419
32-1,413655560,975
32-2,413659466,1283
32-3,413663372,1136
32-4,413667278,438
32-5,413671184,-488
32-6,413675090,-982
32-7,413678996,-715
32-8,413682902,64
32-9,413686808,750
32-10,413690714,847
32-11,413694620,290
32-12,413698526,-606
32-13,413702432,-1253
32-14,413706338,-1201
32-15,413710244,-521
32-16,413714150,393
32-17,413718056,972
32-18,413721962,867
32-19,413725868,142
32-20,413729774,-804
32-21,413733680,-1307
32-22,413737586,-1050
32-23,413741492,-232
32-24,413745398,670
32-25,413749304,1022
32-26,413753210,616
32-27,413757116,-217
32-28,413761022,-884
32-29,413764928,-848
32-30,413768834,-194
32-31,413772740,640
32-32,413776646,1251
32-1,413780862,1352
32-2,413784768,895
32-3,413788674,15
32-4,413792580,-836
32-5,413796486,-1097
32-6,413800392,-617
32-7,413804298,243
32-8,413808204,851
32-9,413812110,799
32-10,413816016,142
32-11,413819922,-730
32-12,413823828,-1204
32-13,413827734,-964
32-14,413831640,-196
32-15,413835546,647
32-16,413839452,1019
32-17,413843358,720
32-18,413847264,-103
32-19,413851170,-980
32-20,413855076,-1291
32-21,413858982,-833
32-22,413862888,81
32-23,413866794,872
32-24,413870700,979
32-25,413874606,273
32-26,413878512,-831
32-27,413882418,-1606
32-28,413886324,-1491
32-29,413890230,-590
32-30,413894136,590
32-31,413898042,1431
32-32,413901948,1519
32-1,413905555,814
32-2,413909461,-328
32-3,413913367,-1134
32-4,413917273,-1134
32-5,413921179,-414
32-6,413925085,483
32-7,413928991,880
32-8,413932897,542
32-9,413936803,-319
32-10,413940709,-1164
32-11,413944615,-1398
32-12,413948521,-906
32-13,413952427,11
32-14,413956333,822
32-15,413960239,1039
32-16,413964145,575
32-17,413968051,-284
32-18,413971957,-949
32-19,413975863,-948
32-20,413979769,-361
32-21,413983675,444
32-22,413987581,981
32-23,413991487,941
32-24,413995393,393
32-25,413999299,-377
32-26,414003205,-848
32-27,414007111,-749
32-28,414011017,-184
32-29,414014923,601
32-30,414018829,1157
32-31,414022735,1174
32-32,414026641,558
32-1,414030553,-427
32-2,414034459,-1071
32-3,414038365,-903
32-4,414042271,17
32-5,414046177,1131
32-6,414050083,1646
32-7,414053989,1222
32-8,414057895,89
32-9,414061801,-1033
32-10,414065707,-1364
32-11,414069613,-779
32-12,414073519,226
32-13,414077425,911
32-14,414081331,820
32-15,414085237,44
32-16,414089143,-942
32-17,414093049,-1477
32-18,414096955,-1216
32-19,414100861,-358
32-20,414104767,614
32-21,414108673,1128
32-22,414112579,912
32-23,414116485,96
32-24,414120391,-808
32-25,414124297,-1119
32-26,414128203,-724
32-27,414132109,49
32-28,414136015,821
32-29,414139921,1222
32-30,414143827,1124
32-31,414147733,556
32-32,414151639,-172
32-1,414155550,-548
32-2,414159456,-356
32-3,414163362,307
32-4,414167268,1044
32-5,414171174,1349
32-6,414175080,1040
32-7,414178986,324
32-8,414182892,-290
32-9,414186798,-402
32-10,414190704,-4
32-11,414194610,605
32-12,414198516,951
32-13,414202422,758
32-14,414206328,73
32-15,414210234,-731
32-16,414214140,-1096
32-17,414218046,-794
32-18,414221952,-9
32-19,414225858,795
32-20,414229764,1093
32-21,414233670,720
32-22,414237576,-155
32-23,414241482,-973
32-24,414245388,-1143
32-25,414249294,-643
32-26,414253200,154
32-27,414257106,775
32-28,414261012,966
32-29,414264918,770
32-30,414268824,305
32-31,414272730,-157
32-32,414276636,-319
32-1,414280548,-83
32-2,414284454,516
32-3,414288360,1136
32-4,414292266,1312
32-5,414296172,834
32-6,414300078,-52
32-7,414303984,-674
32-8,414307890,-652
32-9,414311796,-98
32-10,414315702,533
32-11,414319608,737
32-12,414323514,367
32-13,414327420,-395
32-14,414331326,-1064
32-15,414335232,-1161
32-16,414339138,-644
32-17,414343044,210
32-18,414346950,907
32-19,414350856,1015
32-20,414354762,471
32-21,414358668,-455
32-22,414362574,-1150
32-23,414366480,-1125
32-24,414370386,-440
32-25,414374292,445
32-26,414378198,945
32-27,414382104,819
32-28,414386010,330
32-29,414389916,-147
32-30,414393822,-247
32-31,414397728,42
32-32,414401634,493
32-1,414405667,954
32-2,414409573,1202
32-3,414413479,1045
32-4,414417385,380
32-5,414421291,-495
32-6,414425197,-962
32-7,414429103,-714
32-8,414433009,12
32-9,414436915,646
32-10,414440821,735
32-11,414444727,229
32-12,414448633,-578
32-13,414452539,-1142
32-14,414456445,-1068
32-15,414460351,-427
32-16,414464257,441
32-17,414468163,1004
32-18,414472069,916
32-19,414475975,214
32-20,414479881,-726
32-21,414483787,-1244
32-22,414487693,-1025
32-23,414491599,-245
32-24,414495505,643
32-25,414499411,1014
32-26,414503317,664
32-27,414507223,-97
32-28,414511129,-723
32-29,414515035,-711
32-30,414518941,-134
32-31,414522847,614
32-32,414526753,1188
32-1,414530665,1320
32-2,414534571,950
32-3,414538477,168
32-4,414542383,-643
32-5,414546289,-953
32-6,414550195,-578
32-7,414554101,185
32-8,414558007,746
32-9,414561913,709
32-10,414565819,90
32-11,414569725,-748
32-12,414573631,-1219
32-13,414577537,-1015
32-14,414581443,-300
32-15,414585349,507
32-16,414589255,884
32-17,414593161,608
32-18,414597067,-177
32-19,414600973,-1002
32-20,414604879,-1274
32-21,414608785,-843
32-22,414612691,10
32-23,414616597,779
32-24,414620503,981
32-25,414624409,485
32-26,414628315,-398
32-27,414632221,-1068
32-28,414636127,-1049
32-29,414640033,-407
32-30,414643939,479
32-31,414647845,1131
32-32,414651751,1225
32-1,414655541,729
32-2,414659447,-124
32-3,414663353,-768
32-4,414667259,-831
32-5,414671165,-323
32-6,414675071,371
32-7,414678977,688
32-8,414682883,407
32-9,414686789,-343
32-10,414690695,-1112
32-11,414694601,-1365
32-12,414698507,-970
32-13,414702413,-178
32-14,414706319,543
32-15,414710225,730
32-16,414714131,254
32-17,414718037,-614
32-18,414721943,-1258
32-19,414725849,-1270
32-20,414729755,-837
32-21,414733661,-388
32-22,414737567,-258
32-23,414741473,-478
32-24,414745379,-850
32-25,414749285,-1226
32-26,414753191,-1341
32-27,414757097,-1076
32-28,414761003,-452
32-29,414764909,438
32-30,414768815,1196
32-31,414772721,1495
32-32,414776627,1239
32-1,414780538,624
32-2,414784444,116
32-3,414788350,-35
32-4,414792256,114
32-5,414796162,322
32-6,414800068,272
32-7,414803974,-115
32-8,414807880,-728
32-9,414811786,-1228
32-10,414815692,-1221
32-11,414819598,-686
32-12,414823504,127
32-13,414827410,736
32-14,414831316,759
32-15,414835222,170
32-16,414839128,-743
32-17,414843034,-1357
32-18,414846940,-1264
32-19,414850846,-577
32-20,414854752,295
32-21,414858658,800
32-22,414862564,658
32-23,414866470,-29
32-24,414870376,-867
32-25,414874282,-1236
32-26,414878188,-947
32-27,414882094,-240
32-28,414886000,533
32-29,414889906,952
32-30,414893812,834
32-31,414897718,217
32-32,414901624,-569
32-1,414905536,-975
32-2,414909442,-753
32-3,414913348,-11
32-4,414917254,804
32-5,414921160,1113
32-6,414925066,674
32-7,414928972,-272
32-8,414932878,-1070
32-9,414936784,-1199
32-10,414940690,-654
32-11,414944596,157
32-12,414948502,646
32-13,414952408,491
32-14,414956314,-207
32-15,414960220,-1018
32-16,414964126,-1366
32-17,414968032,-1045
32-18,414971938,-283
32-19,414975844,462
32-20,414979750,698
32-21,414983656,298
32-22,414987562,-561
32-23,414991468,-1349
32-24,414995374,-1476
32-25,414999280,-909
32-26,415003186,-35
32-27,415007092,635
32-28,415010998,817
32-29,415014904,538
32-30,415018810,-81
32-31,415022716,-691
32-32,415026622,-899
32-1,415030686,-558
32-2,415034592,241
32-3,415038498,987
32-4,415042404,1092
32-5,415046310,354
32-6,415050216,-824
32-7,415054122,-1557
32-8,415058028,-1387
32-9,415061934,-551
32-10,415065840,324
32-11,415069746,615
32-12,415073652,167
32-13,415077558,-734
32-14,415081464,-1504
32-15,415085370,-1595
32-16,415089276,-992
32-17,415093182,-58
32-18,415097088,670
32-19,415100994,768
32-20,415104900,213
32-21,415108806,-688
32-22,415112712,-1313
32-23,415116618,-1228
32-24,415120524,-557
32-25,415124430,282
32-26,415128336,780
32-27,415132242,719
32-28,415136148,310
32-29,415140054,-115
32-30,415143960,-214
32-31,415147866,28
32-32,415151772,381
32-1,415155531,719
32-2,415159437,886
32-3,415163343,763
32-4,415167249,276
32-5,415171155,-365
32-6,415175061,-671
32-7,415178967,-382
32-8,415182873,302
32-9,415186779,833
32-10,415190685,783
32-11,415194591,118
32-12,415198497,-845
32-13,415202403,-1520
32-14,415206309,-1478
32-15,415210215,-770
32-16,415214121,209
32-17,415218027,849
32-18,415221933,769
32-19,415225839,10
32-20,415229745,-984
32-21,415233651,-1493
32-22,415237557,-1203
32-23,415241463,-365
32-24,415245369,507
32-25,415249275,804
32-26,415253181,376
32-27,415257087,-405
32-28,415260993,-964
32-29,415264899,-850
32-30,415268805,-202
32-31,415272711,555
32-32,415276617,1109
32-1,415280651,1270
32-2,415284557,993
32-3,415288463,349
32-4,415292369,-344
32-5,415296275,-649
32-6,415300181,-389
32-7,415304087,199
32-8,415307993,626
32-9,415311899,570
32-10,415315805,42
32-11,415319711,-640
32-12,415323617,-984
32-13,415327523,-777
32-14,415331429,-160
32-15,415335335,537
32-16,415339241,894
32-17,415343147,722
32-18,415347053,109
32-19,415350959,-574
32-20,415354865,-840
32-21,415358771,-571
32-22,415362677,34
32-23,415366583,620
32-24,415370489,825
32-25,415374395,534
32-26,415378301,-34
32-27,415382207,-465
32-28,415386113,-438
32-29,415390019,-1
32-30,415393925,570
32-31,415397831,967
32-32,415401737,1034
32-1,415405526,809
32-2,415409432,436
32-3,415413338,186
32-4,415417244,166
32-5,415421150,373
32-6,415425056,682
32-7,415428962,822
32-8,415432868,677
32-9,415436774,241
32-10,415440680,-274
32-11,415444586,-491
32-12,415448492,-280
32-13,415452398,241
32-14,415456304,784
32-15,415460210,1004
32-16,415464116,789
32-17,415468022,235
32-18,415471928,-302
32-19,415475834,-454
32-20,415479740,-170
32-21,415483646,366
32-22,415487552,801
32-23,415491458,840
32-24,415495364,445
32-25,415499270,-185
32-26,415503176,-615
32-27,415507082,-566
32-28,415510988,-112
32-29,415514894,504
32-30,415518800,920
32-31,415522706,921
32-32,415526612,525
32-1,415530524,-58
32-2,415534430,-416
32-3,415538336,-336
32-4,415542242,109
32-5,415546148,672
32-6,415550054,1002
32-7,415553960,901
32-8,415557866,410
32-9,415561772,-151
32-10,415565678,-408
32-11,415569584,-248
32-12,415573490,207
32-13,415577396,636
32-14,415581302,740
32-15,415585208,433
32-16,415589114,-121
32-17,415593020,-522
32-18,415596926,-504
32-19,415600832,-104
32-20,415604738,455
32-21,415608644,802
32-22,415612550,709
32-23,415616456,213
32-24,415620362,-413
32-25,415624268,-713
32-26,415628174,-527
32-27,415632080,-14
32-28,415635986,560
32-29,415639892,888
32-30,415643798,844
32-31,415647704,447
32-32,415651610,-97
32-1,415655522,-411
32-2,415659428,-311
32-3,415663334,152
32-4,415667240,710
32-5,415671146,995
32-6,415675052,822
32-7,415678958,300
32-8,415682864,-180
32-9,415686770,-319
32-10,415690676,-88
32-11,415694582,347
32-12,415698488,659
32-13,415702394,625
32-14,415706300,214
32-15,415710206,-345
32-16,415714112,-644
32-17,415718018,-504
32-18,415721924,-19
32-19,415725830,520
32-20,415729736,745
32-21,415733642,521
32-22,415737548,-62
32-23,415741454,-652
32-24,415745360,-829
32-25,415749266,-538
32-26,415753172,4
32-27,415757078,488
32-28,415760984,692
32-29,415764890,593
32-30,415768796,234
32-31,415772702,-199
32-32,415776608,-452
32-1,415780519,-417
32-2,415784425,-87
32-3,415788331,318
32-4,415792237,481
32-5,415796143,229
32-6,415800049,-304
32-7,415803955,-699
32-8,415807861,-726
32-9,415811767,-414
32-10,415815673,16
32-11,415819579,244
32-12,415823485,100
32-13,415827391,-393
32-14,415831297,-915
32-15,415835203,-1083
32-16,415839109,-810
32-17,415843015,-253
32-18,415846921,239
32-19,415850827,343
32-20,415854733,4
32-21,415858639,-610
32-22,415862545,-1091
32-23,415866451,-1108
32-24,415870357,-677
32-25,415874263,-68
32-26,415878169,302
32-27,415882075,245
32-28,415885981,-70
32-29,415889887,-385
32-30,415893793,-445
32-31,415897699,-248
32-32,415901605,29
32-1,415905517,306
32-2,415909423,470
32-3,415913329,430
32-4,415917235,95
32-5,415921141,-405
32-6,415925047,-717
32-7,415928953,-638
32-8,415932859,-227
32-9,415936765,215
32-10,415940671,371
32-11,415944577,103
32-12,415948483,-418
32-13,415952389,-798
32-14,415956295,-818
32-15,415960201,-606
32-16,415964107,-399
32-17,415968013,-370
32-18,415971919,-521
32-19,415975825,-751
32-20,415979731,-965
32-21,415983637,-999
32-22,415987543,-788
32-23,415991449,-322
32-24,415995355,292
32-25,415999261,738
32-26,416003167,831
32-27,416007073,589
32-28,416010979,228
32-29,416014885,55
32-30,416018791,117
32-31,416022697,318
32-32,416026603,503
32-1,416030667,508
32-2,416034573,289
32-3,416038479,-145
32-4,416042385,-574
32-5,416046291,-711
32-6,416050197,-474
32-7,416054103,-18
32-8,416058009,318
32-9,416061915,291
32-10,416065821,-112
32-11,416069727,-685
32-12,416073633,-1048
32-13,416077539,-1000
32-14,416081445,-620
32-15,416085351,-119
32-16,416089257,173
32-17,416093163,67
32-18,416097069,-422
32-19,416100975,-1006
32-20,416104881,-1267
32-21,416108787,-1067
32-22,416112693,-556
32-23,416116599,-39
32-24,416120505,149
32-25,416124411,-107
32-26,416128317,-619
32-27,416132223,-1036
32-28,416136129,-1053
32-29,416140035,-685
32-30,416143941,-153
32-31,416147847,264
32-32,416151753,366
32-1,416155512,115
32-2,416159418,-377
32-3,416163324,-803
32-4,416167230,-947
32-5,416171136,-743
32-6,416175042,-366
32-7,416178948,-169
32-8,416182854,-320
32-9,416186760,-815
32-10,416190666,-1376
32-11,416194572,-1609
32-12,416198478,-1418
32-13,416202384,-926
32-14,416206290,-415
32-15,416210196,-206
32-16,416214102,-414
32-17,416218008,-968
32-18,416221914,-1514
32-19,416225820,-1674
32-20,416229726,-1395
32-21,416233632,-854
32-22,416237538,-397
32-23,416241444,-311
32-24,416245350,-624
32-25,416249256,-1167
32-26,416253162,-1547
32-27,416257068,-1512
32-28,416260974,-1113
32-29,416264880,-521
32-30,416268786,-63
32-31,416272692,29
32-32,416276598,-284
32-1,416280510,-825
32-2,416284416,-1177
32-3,416288322,-1084
32-4,416292228,-599
32-5,416296134,27
32-6,416300040,428
32-7,416303946,405
32-8,416307852,14
32-9,416311758,-443
32-10,416315664,-622
32-11,416319570,-430
32-12,416323476,7
32-13,416327382,378
32-14,416331288,409
32-15,416335194,47
32-16,416339100,-520
32-17,416343006,-875
32-18,416346912,-771
32-19,416350818,-288
32-20,416354724,339
32-21,416358630,757
32-22,416362536,772
32-23,416366442,401
32-24,416370348,-121
32-25,416374254,-384
32-26,416378160,-233
32-27,416382066,196
32-28,416385972,684
32-29,416389878,975
32-30,416393784,941
32-31,416397690,592
32-32,416401596,116
32-1,416405508,-154
32-2,416409414,-37
32-3,416413320,423
32-4,416417226,978
32-5,416421132,1268
32-6,416425038,1116
32-7,416428944,624
32-8,416432850,165
32-9,416436756,30
32-10,416440662,253
32-11,416444568,657
32-12,416448474,911
32-13,416452380,802
32-14,416456286,314
32-15,416460192,-302
32-16,416464098,-616
32-17,416468004,-455
32-18,416471910,63
32-19,416475816,635
32-20,416479722,896
32-21,416483628,719
32-22,416487534,189
32-23,416491440,-357
32-24,416495346,-520
32-25,416499252,-250
32-26,416503158,260
32-27,416507064,702
32-28,416510970,857
32-29,416514876,736
32-30,416518782,421
32-31,416522688,101
32-32,416526594,-26
32-1,416530505,87
32-2,416534411,427
32-3,416538317,808
32-4,416542223,941
32-5,416546129,680
32-6,416550035,141
32-7,416553941,-268
32-8,416557847,-301
32-9,416561753,18
32-10,416565659,442
32-11,416569565,641
32-12,416573471,452
32-13,416577377,-86
32-14,416581283,-643
32-15,416585189,-819
32-16,416589095,-534
32-17,416593001,54
32-18,416596907,587
32-19,416600813,734
32-20,416604719,435
32-21,416608625,-157
32-22,416612531,-642
32-23,416616437,-677
32-24,416620343,-268
32-25,416624249,329
32-26,416628155,718
32-27,416632061,690
32-28,416635967,391
32-29,416639873,74
32-30,416643779,-14
32-31,416647685,156
32-32,416651591,424
32-1,416655503,711
32-2,416659409,898
32-3,416663315,874
32-4,416667221,546
32-5,416671127,32
32-6,416675033,-317
32-7,416678939,-292
32-8,416682845,79
32-9,416686751,511
32-10,416690657,693
32-11,416694563,484
32-12,416698469,-27
32-13,416702375,-461
32-14,416706281,-491
32-15,416710187,-112
32-16,416714093,464
32-17,416717999,873
32-18,416721905,866
32-19,416725811,450
32-20,416729717,-156
32-21,416733623,-519
32-22,416737529,-407
32-23,416741435,99
32-24,416745341,723
32-25,416749247,1016
32-26,416753153,812
32-27,416757059,318
32-28,416760965,-96
32-29,416764871,-91
32-30,416768777,281
32-31,416772683,733
32-32,416776589,1060
32-1,416780500,1135
32-2,416784406,961
32-3,416788312,592
32-4,416792218,193
32-5,416796124,12
32-6,416800030,165
32-7,416803936,548
32-8,416807842,860
32-9,416811748,868
32-10,416815654,514
32-11,416819560,-26
32-12,416823466,-354
32-13,416827372,-269
32-14,416831278,148
32-15,416835184,653
32-16,416839090,907
32-17,416842996,762
32-18,416846902,271
32-19,416850808,-296
32-20,416854714,-541
32-21,416858620,-333
32-22,416862526,193
32-23,416866432,731
32-24,416870338,926
32-25,416874244,634
32-26,416878150,39
32-27,416882056,-463
32-28,416885962,-503
32-29,416889868,-90
32-30,416893774,521
32-31,416897680,993
32-32,416901586,1102
32-1,416905498,827
32-2,416909404,301
32-3,416913310,-141
32-4,416917216,-291
32-5,416921122,-100
32-6,416925028,281
32-7,416928934,530
32-8,416932840,453
32-9,416936746,28
32-10,416940652,-498
32-11,416944558,-744
32-12,416948464,-579
32-13,416952370,-118
32-14,416956276,358
32-15,416960182,524
32-16,416964088,264
32-17,416967994,-309
32-18,416971900,-823
32-19,416975806,-917
32-20,416979712,-569
32-21,416983618,-4
32-22,416987524,401
32-23,416991430,365
32-24,416995336,-48
32-25,416999242,-561
32-26,417003148,-852
32-27,417007054,-812
32-28,417010960,-544
32-29,417014866,-181
32-30,417018772,94
32-31,417022678,136
32-32,417026584,-126
32-1,417030496,-561
32-2,417034402,-823
32-3,417038308,-695
32-4,417042214,-204
32-5,417046120,413
32-6,417050026,816
32-7,417053932,875
32-8,417057838,662
32-9,417061744,379
32-10,417065650,224
32-11,417069556,169
32-12,417073462,104
32-13,417077368,-52
32-14,417081274,-288
32-15,417085180,-558
32-16,417089086,-804
32-17,417092992,-903
32-18,417096898,-750
32-19,417100804,-307
32-20,417104710,279
32-21,417108616,730
32-22,417112522,849
32-23,417116428,572
32-24,417120334,71
32-25,417124240,-290
32-26,417128146,-340
32-27,417132052,-116
32-28,417135958,229
32-29,417139864,473
32-30,417143770,465
32-31,417147676,146
32-32,417151582,-305
32-1,417155493,-557
32-2,417159399,-444
32-3,417163305,-6
32-4,417167211,504
32-5,417171117,752
32-6,417175023,568
32-7,417178929,53
32-8,417182835,-425
32-9,417186741,-578
32-10,417190647,-364
32-11,417194553,52
32-12,417198459,333
32-13,417202365,269
32-14,417206271,-153
32-15,417210177,-706
32-16,417214083,-971
32-17,417217989,-790
32-18,417221895,-285
32-19,417225801,270
32-20,417229707,517
32-21,417233613,345
32-22,417237519,-154
32-23,417241425,-670
32-24,417245331,-834
32-25,417249237,-612
32-26,417253143,-190
32-27,417257049,169
32-28,417260955,291
32-29,417264861,180
32-30,417268767,-105
32-31,417272673,-400
32-32,417276579,-524
32-1,417280491,-427
32-2,417284397,-107
32-3,417288303,262
32-4,417292209,401
32-5,417296115,149
32-6,417300021,-387
32-7,417303927,-809
32-8,417307833,-862
32-9,417311739,-568
32-10,417315645,-166
32-11,417319551,19
32-12,417323457,-159
32-13,417327363,-645
32-14,417331269,-1128
32-15,417335175,-1242
32-16,417339081,-935
32-17,417342987,-365
32-18,417346893,143
32-19,417350799,295
32-20,417354705,42
32-21,417358611,-489
32-22,417362517,-936
32-23,417366423,-993
32-24,417370329,-658
32-25,417374235,-158
32-26,417378141,152
32-27,417382047,83
32-28,417385953,-217
32-29,417389859,-505
32-30,417393765,-550
32-31,417397671,-348
32-32,417401577,-71
32-1,417405489,198
32-2,417409395,353
32-3,417413301,299
32-4,417417207,-43
32-5,417421113,-546
32-6,417425019,-862
32-7,417428925,-791
32-8,417432831,-393
32-9,417436737,22
32-10,417440643,156
32-11,417444549,-109
32-12,417448455,-654
32-13,417452361,-1092
32-14,417456267,-1112
32-15,417460173,-726
32-16,417464079,-141
32-17,417467985,283
32-18,417471891,294
32-19,417475797,-104
32-20,417479703,-697
32-21,417483609,-1051
32-22,417487515,-941
32-23,417491421,-460
32-24,417495327,136
32-25,417499233,421
32-26,417503139,229
32-27,417507045,-241
32-28,417510951,-644
32-29,417514857,-638
32-30,417518763,-262
32-31,417522669,210
32-32,417526575,564
32-1,417530669,646
32-2,417534575,452
32-3,417538481,36
32-4,417542387,-406
32-5,417546293,-595
32-6,417550199,-417
32-7,417554105,19
32-8,417558011,389
32-9,417561917,445
32-10,417565823,124
32-11,417569729,-402
32-12,417573635,-742
32-13,417577541,-683
32-14,417581447,-281
32-15,417585353,235
32-16,417589259,518
32-17,417593165,388
32-18,417597071,-110
32-19,417600977,-689
32-20,417604883,-936
32-21,417608789,-717
32-22,417612695,-179
32-23,417616601,370
32-24,417620507,572
32-25,417624413,293
32-26,417628319,-291
32-27,417632225,-781
32-28,417636131,-804
32-29,417640037,-379
32-30,417643943,223
32-31,417647849,675
32-32,417651755,762
32-1,417655484,483
32-2,417659390,-20
32-3,417663296,-423
32-4,417667202,-521
32-5,417671108,-278
32-6,417675014,150
32-7,417678920,433
32-8,417682826,378
32-9,417686732,-30
32-10,417690638,-537
32-11,417694544,-760
32-12,417698450,-576
32-13,417702356,-96
32-14,417706262,395
32-15,417710168,571
32-16,417714074,327
32-17,417717980,-230
32-18,417721886,-741
32-19,417725792,-843
32-20,417729698,-508
32-21,417733604,79
32-22,417737510,556
32-23,417741416,627
32-24,417745322,272
32-25,417749228,-322
32-26,417753134,-728
32-27,417757040,-681
32-28,417760946,-254
32-29,417764852,337
32-30,417768758,754
32-31,417772664,772
32-32,417776570,387
32-1,417780481,-199
32-2,417784387,-563
32-3,417788293,-462
32-4,417792199,28
32-5,417796105,639
32-6,417800011,1005
32-7,417803917,947
32-8,417807823,537
32-9,417811729,63
32-10,417815635,-146
32-11,417819541,-9
32-12,417823447,371
32-13,417827353,721
32-14,417831259,781
32-15,417835165,469
32-16,417839071,-72
32-17,417842977,-458
32-18,417846883,-437
32-19,417850789,-47
32-20,417854695,493
32-21,417858601,833
32-22,417862507,762
32-23,417866413,306
32-24,417870319,-290
32-25,417874225,-595
32-26,417878131,-442
32-27,417882037,31
32-28,417885943,573
32-29,417889849,886
32-30,417893755,841
32-31,417897661,460
32-32,417901567,-53
32-1,417905479,-341
32-2,417909385,-240
32-3,417913291,192
32-4,417917197,707
32-5,417921103,965
32-6,417925009,799
32-7,417928915,309
32-8,417932821,-141
32-9,417936727,-265
32-10,417940633,-35
32-11,417944539,385
32-12,417948445,682
32-13,417952351,641
32-14,417956257,231
32-15,417960163,-316
32-16,417964069,-609
32-17,417967975,-480
32-18,417971881,-23
32-19,417975787,492
32-20,417979693,716
32-21,417983599,517
32-22,417987505,-22
32-23,417991411,-572
32-24,417995317,-734
32-25,417999223,-446
32-26,418003129,84
32-27,418007035,536
32-28,418010941,693
32-29,418014847,572
32-30,418018753,256
32-31,418022659,-63
32-32,418026565,-192
32-1,418030477,-90
32-2,418034383,228
32-3,418038289,585
32-4,418042195,709
32-5,418046101,452
32-6,418050007,-76
32-7,418053913,-470
32-8,418057819,-490
32-9,418061725,-169
32-10,418065631,263
32-11,418069537,489
32-12,418073443,351
32-13,418077349,-117
32-14,418081255,-622
32-15,418085161,-793
32-16,418089067,-558
32-17,418092973,-52
32-18,418096879,429
32-19,418100785,583
32-20,418104691,328
32-21,418108597,-213
32-22,418112503,-679
32-23,418116409,-746
32-24,418120315,-409
32-25,418124221,91
32-26,418128127,394
32-27,418132033,321
32-28,418135939,33
32-29,418139845,-227
32-30,418143751,-266
32-31,418147657,-91
32-32,418151563,148
32-1,418155474,389
32-2,418159380,547
32-3,418163286,523
32-4,418167192,226
32-5,418171098,-225
32-6,418175004,-521
32-7,418178910,-472
32-8,418182816,-132
32-9,418186722,205
32-10,418190628,266
32-11,418194534,-46
32-12,418198440,-623
32-13,418202346,-1075
32-14,418206252,-1082
32-15,418210158,-671
32-16,418214064,-48
32-17,418217970,420
32-18,418221876,477
32-19,418225782,115
32-20,418229688,-471
32-21,418233594,-863
32-22,418237500,-824
32-23,418241406,-413
32-24,418245312,130
32-25,418249218,390
32-26,418253124,184
32-27,418257030,-304
32-28,418260936,-721
32-29,418264842,-723
32-30,418268748,-342
32-31,418272654,143
32-32,418276560,506
32-1,418280503,589
32-2,418284409,379
32-3,418288315,-58
32-4,418292221,-516
32-5,418296127,-712
32-6,418300033,-528
32-7,418303939,-109
32-8,418307845,206
32-9,418311751,171
32-10,418315657,-238
32-11,418319563,-812
32-12,418323469,-1137
32-13,418327375,-1013
32-14,418331281,-537
32-15,418335187,57
32-16,418339093,419
32-17,418342999,376
32-18,418346905,-47
32-19,418350811,-590
32-20,418354717,-856
32-21,418358623,-700
32-22,418362529,-242
32-23,418366435,239
32-24,418370341,408
32-25,418374247,115
32-26,418378153,-468
32-27,418382059,-952
32-28,418385965,-978
32-29,418389871,-549
32-30,418393777,69
32-31,418397683,540
32-32,418401589,647
32-1,418405470,393
32-2,418409376,-71
32-3,418413282,-436
32-4,418417188,-522
32-5,418421094,-301
32-6,418425000,78
32-7,418428906,296
32-8,418432812,180
32-9,418436718,-285
32-10,418440624,-838
32-11,418444530,-1077
32-12,418448436,-869
32-13,418452342,-331
32-14,418456248,228
32-15,418460154,447
32-16,418464060,217
32-17,418467966,-352
32-18,418471872,-888
32-19,418475778,-1012
32-20,418479684,-693
32-21,418483590,-119
32-22,418487496,354
32-23,418491402,432
32-24,418495308,90
32-25,418499214,-498
32-26,418503120,-926
32-27,418507026,-907
32-28,418510932,-497
32-29,418514838,89
32-30,418518744,519
32-31,418522650,569
32-32,418526556,243
32-1,418530467,-277
32-2,418534373,-612
32-3,418538279,-552
32-4,418542185,-152
32-5,418546091,372
32-6,418549997,695
32-7,418553903,617
32-8,418557809,156
32-9,418561715,-387
32-10,418565621,-641
32-11,418569527,-486
32-12,418573433,-41
32-13,418577339,375
32-14,418581245,475
32-15,418585151,186
32-16,418589057,-342
32-17,418592963,-730
32-18,418596869,-724
32-19,418600775,-356
32-20,418604681,174
32-21,418608587,518
32-22,418612493,456
32-23,418616399,13
32-24,418620305,-569
32-25,418624211,-861
32-26,418628117,-690
32-27,418632023,-206
32-28,418635929,338
32-29,418639835,651
32-30,418643741,602
32-31,418647647,220
32-32,418651553,-285
32-1,418655434,-575
32-2,418659340,-474
32-3,418663246,-31
32-4,418667152,507
32-5,418671058,819
32-6,418674964,716
32-7,418678870,276
32-8,418682776,-153
32-9,418686682,-307
32-10,418690588,-137
32-11,418694494,218
32-12,418698400,454
32-13,418702306,385
32-14,418706212,-22
32-15,418710118,-564
32-16,418714024,-834
32-17,418717930,-676
32-18,418721836,-183
32-19,418725742,369
32-20,418729648,619
32-21,418733554,442
32-22,418737460,-86
32-23,418741366,-632
32-24,418745272,-796
32-25,418749178,-521
32-26,418753084,0
32-27,418756990,455
32-28,418760896,633
32-29,418764802,539
32-30,418768708,244
32-31,418772614,-68
32-32,418776520,-203
32-1,418780463,-120
32-2,418784369,187
32-3,418788275,546
32-4,418792181,692
32-5,418796087,465
32-6,418799993,-46
32-7,418803899,-441
32-8,418807805,-472
32-9,418811711,-157
32-10,418815617,283
32-11,418819523,525
32-12,418823429,402
32-13,418827335,-57
32-14,418831241,-548
32-15,418835147,-707
32-16,418839053,-465
32-17,418842959,31
32-18,418846865,474
32-19,418850771,570
32-20,418854677,255
32-21,418858583,-325
32-22,418862489,-798
32-23,418866395,-839
32-24,418870301,-452
32-25,418874207,116
32-26,418878113,478
32-27,418882019,435
32-28,418885925,144
32-29,418889831,-148
32-30,418893737,-219
32-31,418897643,-52
32-32,418901549,200
32-1,418905460,461
32-2,418909366,629
32-3,418913272,577
32-4,418917178,284
32-5,418921084,-107
32-6,418924990,-394
32-7,418928896,-515
32-8,418932802,-550
32-9,418936708,-600
32-10,418940614,-666
32-11,418944520,-761
32-12,418948426,-917
32-13,418952332,-1011
32-14,418956238,-902
32-15,418960144,-503
32-16,418964050,106
32-17,418967956,624
32-18,418971862,830
32-19,418975768,638
32-20,418979674,181
32-21,418983580,-195
32-22,418987486,-286
32-23,418991392,-88
32-24,418995298,245
32-25,418999204,376
32-26,419003110,167
32-27,419007016,-257
32-28,419010922,-598
32-29,419014828,-555
32-30,419018734,-182
32-31,419022640,271
32-32,419026546,595
32-1,419030641,668
32-2,419034547,496
32-3,419038453,138
32-4,419042359,-239
32-5,419046265,-413
32-6,419050171,-288
32-7,419054077,41
32-8,419057983,302
32-9,419061889,296
32-10,419065795,-27
32-11,419069701,-527
32-12,419073607,-836
32-13,419077513,-751
32-14,419081419,-334
32-15,419085325,200
32-16,419089231,510
32-17,419093137,416
32-18,419097043,-55
32-19,419100949,-631
32-20,419104855,-903
32-21,419108761,-724
32-22,419112667,-228
32-23,419116573,287
32-24,419120479,480
32-25,419124385,224
32-26,419128291,-311
32-27,419132197,-756
32-28,419136103,-775
32-29,419140009,-387
32-30,419143915,170
32-31,419147821,595
32-32,419151727,677
32-1,419155455,404
32-2,419159361,-97
32-3,419163267,-504
32-4,419167173,-601
32-5,419171079,-348
32-6,419174985,96
32-7,419178891,385
32-8,419182797,318
32-9,419186703,-127
32-10,419190609,-689
32-11,419194515,-963
32-12,419198421,-804
32-13,419202327,-320
32-14,419206233,198
32-15,419210139,408
32-16,419214045,199
32-17,419217951,-321
32-18,419221857,-801
32-19,419225763,-893
32-20,419229669,-558
32-21,419233575,17
32-22,419237481,475
32-23,419241387,547
32-24,419245293,227
32-25,419249199,-302
32-26,419253105,-651
32-27,419257011,-588
32-28,419260917,-195
32-29,419264823,345
32-30,419268729,725
32-31,419272635,738
32-32,419276541,369
32-1,419280484,-210
32-2,419284390,-572
32-3,419288296,-478
32-4,419292202,-4
32-5,419296108,599
32-6,419300014,958
32-7,419303920,884
32-8,419307826,426
32-9,419311732,-107
32-10,419315638,-354
32-11,419319544,-209
32-12,419323450,211
32-13,419327356,596
32-14,419331262,664
32-15,419335168,334
32-16,419339074,-239
32-17,419342980,-648
32-18,419346886,-628
32-19,419350792,-224
32-20,419354698,342
32-21,419358604,709
32-22,419362510,665
32-23,419366416,240
32-24,419370322,-329
32-25,419374228,-624
32-26,419378134,-478
32-27,419382040,-31
32-28,419385946,483
32-29,419389852,780
32-30,419393758,732
32-31,419397664,371
32-32,419401570,-112
32-1,419405476,-389
32-2,419409382,-302
32-3,419413288,107
32-4,419417194,606
32-5,419421100,860
32-6,419425006,686
32-7,419428912,202
32-8,419432818,-231
32-9,419436724,-356
32-10,419440630,-210
32-11,419444536,11
32-12,419448442,75
32-13,419452348,-92
32-14,419456254,-432
32-15,419460160,-771
32-16,419464066,-875
32-17,419467972,-647
32-18,419471878,-146
32-19,419475784,434
32-20,419479690,828
32-21,419483596,864
32-22,419487502,505
32-23,419491408,2
32-24,419495314,-294
32-25,419499220,-263
32-26,419503126,20
32-27,419507032,316
32-28,419510938,453
32-29,419514844,393
32-30,419518750,139
32-31,419522656,-144
32-32,419526562,-270
32-1,419530448,-171
32-2,419534354,162
32-3,419538260,540
32-4,419542166,685
32-5,419546072,456
32-6,419549978,-46
32-7,419553884,-427
32-8,419557790,-457
32-9,419561696,-159
32-10,419565602,252
32-11,419569508,469
32-12,419573414,336
32-13,419577320,-131
32-14,419581226,-638
32-15,419585132,-815
32-16,419589038,-576
32-17,419592944,-58
32-18,419596850,414
32-19,419600756,530
32-20,419604662,223
32-21,419608568,-365
32-22,419612474,-843
32-23,419616380,-876
32-24,419620286,-473
32-25,419624192,105
32-26,419628098,464
32-27,419632004,411
32-28,419635910,112
32-29,419639816,-189
32-30,419643722,-263
32-31,419647628,-91
32-32,419651534,168
32-1,419655446,431
32-2,419659352,591
32-3,419663258,552
32-4,419667164,238
32-5,419671070,-223
32-6,419674976,-515
32-7,419678882,-466
32-8,419682788,-132
32-9,419686694,222
32-10,419690600,335
32-11,419694506,93
32-12,419698412,-429
32-13,419702318,-873
32-14,419706224,-931
32-15,419710130,-593
32-16,419714036,-57
32-17,419717942,325
32-18,419721848,306
32-19,419725754,-114
32-20,419729660,-720
32-21,419733566,-1090
32-22,419737472,-1000
32-23,419741378,-531
32-24,419745284,58
32-25,419749190,337
32-26,419753096,133
32-27,419757002,-359
32-28,419760908,-790
32-29,419764814,-806
32-30,419768720,-444
32-31,419772626,16
32-32,419776532,358
32-1,419780627,428
32-2,419784533,226
32-3,419788439,-194
32-4,419792345,-644
32-5,419796251,-853
32-6,419800157,-698
32-7,419804063,-281
32-8,419807969,82
32-9,419811875,131
32-10,419815781,-202
32-11,419819687,-739
32-12,419823593,-1086
32-13,419827499,-1024
32-14,419831405,-615
32-15,419835311,-94
32-16,419839217,187
32-17,419843123,46
32-18,419847029,-468
32-19,419850935,-1058
32-20,419854841,-1303
32-21,419858747,-1069
32-22,419862653,-507
32-23,419866559,68
32-24,419870465,296
32-25,419874371,51
32-26,419878277,-500
32-27,419882183,-966
32-28,419886089,-979
32-29,419889995,-550
32-30,419893901,61
32-31,419897807,529
32-32,419901713,642
32-1,419905533,394
32-2,419909439,-81
32-3,419913345,-460
32-4,419917251,-539
32-5,419921157,-277
32-6,419925063,172
32-7,419928969,475
32-8,419932875,437
32-9,419936781,37
32-10,419940687,-480
32-11,419944593,-723
32-12,419948499,-557
32-13,419952405,-85
32-14,419956311,425
32-15,419960217,639
32-16,419964123,432
32-17,419968029,-111
32-18,419971935,-635
32-19,419975841,-762
32-20,419979747,-447
32-21,419983653,123
32-22,419987559,594
32-23,419991465,667
32-24,419995371,322
32-25,419999277,-248
32-26,420003183,-646
32-27,420007089,-612
32-28,420010995,-218
32-29,420014901,339
32-30,420018807,740
32-31,420022713,763
32-32,420026619,403
32-1,420030439,-154
32-2,420034345,-506
32-3,420038251,-439
32-4,420042157,-19
32-5,420046063,504
32-6,420049969,790
32-7,420053875,663
32-8,420057781,171
32-9,420061687,-368
32-10,420065593,-590
32-11,420069499,-400
32-12,420073405,64
32-13,420077311,481
32-14,420081217,563
32-15,420085123,253
32-16,420089029,-291
32-17,420092935,-692
32-18,420096841,-683
32-19,420100747,-308
32-20,420104653,240
32-21,420108559,622
32-22,420112465,605
32-23,420116371,199
32-24,420120277,-369
32-25,420124183,-685
32-26,420128089,-573
32-27,420131995,-169
32-28,420135901,309
32-29,420139807,593
32-30,420143713,539
32-31,420147619,158
32-32,420151525,-354
32-1,420155436,-645
32-2,420159342,-534
32-3,420163248,-72
32-4,420167154,476
32-5,420171060,755
32-6,420174966,581
32-7,420178872,79
32-8,420182778,-380
32-9,420186684,-508
32-10,420190590,-278
32-11,420194496,117
32-12,420198402,353
32-13,420202308,236
32-14,420206214,-227
32-15,420210120,-798
32-16,420214026,-1073
32-17,420217932,-895
32-18,420221838,-371
32-19,420225744,229
32-20,420229650,544
32-21,420233556,431
32-22,420237462,-56
32-23,420241368,-602
32-24,420245274,-808
32-25,420249180,-596
32-26,420253086,-143
32-27,420256992,268
32-28,420260898,436
32-29,420264804,341
32-30,420268710,46
32-31,420272616,-274
32-32,420276522,-405
32-1,420280434,-282
32-2,420284340,81
32-3,420288246,481
32-4,420292152,635
32-5,420296058,401
32-6,420299964,-102
32-7,420303870,-479
32-8,420307776,-497
32-9,420311682,-189
32-10,420315588,216
32-11,420319494,404
32-12,420323400,219
32-13,420327306,-305
32-14,420331212,-847
32-15,420335118,-1013
32-16,420339024,-724
32-17,420342930,-147
32-18,420346836,371
32-19,420350742,504
32-20,420354648,197
32-21,420358554,-401
32-22,420362460,-893
32-23,420366366,-934
32-24,420370272,-533
32-25,420374178,54
32-26,420378084,432
32-27,420381990,397
32-28,420385896,108
32-29,420389802,-193
32-30,420393708,-263
32-31,420397614,-85
32-32,420401520,174
32-1,420405432,440
32-2,420409338,598
32-3,420413244,545
32-4,420417150,200
32-5,420421056,-311
32-6,420424962,-631
32-7,420428868,-561
32-8,420432774,-159
32-9,420436680,275
32-10,420440586,438
32-11,420444492,204
32-12,420448398,-321
32-13,420452304,-768
32-14,420456210,-829
32-15,420460116,-497
32-16,420464022,37
32-17,420467928,430
32-18,420471834,425
32-19,420475740,13
32-20,420479646,-599
32-21,420483552,-982
32-22,420487458,-896
32-23,420491364,-417
32-24,420495270,192
32-25,420499176,488
32-26,420503082,289
32-27,420506988,-209
32-28,420510894,-643
32-29,420514800,-654
32-30,420518706,-265
32-31,420522612,231
32-32,420526518,593
32-1,420530826,668
32-2,420534732,470
32-3,420538638,76
32-4,420542544,-332
32-5,420546450,-510
32-6,420550356,-360
32-7,420554262,18
32-8,420558168,329
32-9,420562074,341
32-10,420565980,-7
32-11,420569886,-560
32-12,420573792,-923
32-13,420577698,-864
32-14,420581604,-436
32-15,420585510,116
32-16,420589416,422
32-17,420593322,290
32-18,420597228,-230
32-19,420601134,-833
32-20,420605040,-1087
32-21,420608946,-859
32-22,420612852,-308
32-23,420616758,248
32-24,420620664,452
32-25,420624570,170
32-26,420628476,-424
32-27,420632382,-927
32-28,420636288,-960
32-29,420640194,-539
32-30,420644100,72
32-31,420648006,540
32-32,420651912,644
32-1,420655427,380
32-2,420659333,-119
32-3,420663239,-523
32-4,420667145,-618
32-5,420671051,-367
32-6,420674957,76
32-7,420678863,367
32-8,420682769,309
32-9,420686675,-117
32-10,420690581,-655
32-11,420694487,-911
32-12,420698393,-746
32-13,420702299,-266
32-14,420706205,239
32-15,420710111,424
32-16,420714017,172
32-17,420717923,-405
32-18,420721829,-939
32-19,420725735,-1058
32-20,420729641,-733
32-21,420733547,-157
32-22,420737453,308
32-23,420741359,368
32-24,420745265,0
32-25,420749171,-602
32-26,420753077,-1018
32-27,420756983,-979
32-28,420760889,-560
32-29,420764795,24
32-30,420768701,439
32-31,420772607,464
32-32,420776513,90
32-1,420780425,-489
32-2,420784331,-861
32-3,420788237,-782
32-4,420792143,-316
32-5,420796049,288
32-6,420799955,659
32-7,420803861,603
32-8,420807767,164
32-9,420811673,-354
32-10,420815579,-590
32-11,420819485,-445
32-12,420823391,-28
32-13,420827297,358
32-14,420831203,433
32-15,420835109,125
32-16,420839015,-415
32-17,420842921,-799
32-18,420846827,-770
32-19,420850733,-369
32-20,420854639,179
32-21,420858545,516
32-22,420862451,424
32-23,420866357,-58
32-24,420870263,-675
32-25,420874169,-990
32-26,420878075,-819
32-27,420881981,-316
32-28,420885887,256
32-29,420889793,592
32-30,420893699,553
32-31,420897605,174
32-32,420901511,-331
32-1,420905422,-603
32-2,420909328,-490
32-3,420913234,-48
32-4,420917140,471
32-5,420921046,735
32-6,420924952,570
32-7,420928858,76
32-8,420932764,-365
32-9,420936670,-455
32-10,420940576,-178
32-11,420944482,280
32-12,420948388,596
32-13,420952294,551
32-14,420956200,137
32-15,420960106,-413
32-16,420964012,-697
32-17,420967918,-540
32-18,420971824,-44
32-19,420975730,523
32-20,420979636,811
32-21,420983542,672
32-22,420987448,181
32-23,420991354,-338
32-24,420995260,-500
32-25,420999166,-253
32-26,421003072,204
32-27,421006978,589
32-28,421010884,734
32-29,421014790,655
32-30,421018696,423
32-31,421022602,180
32-32,421026508,83
32-1,421030420,211
32-2,421034326,582
32-3,421038232,1015
32-4,421042138,1229
32-5,421046044,1041
32-6,421049950,543
32-7,421053856,131
32-8,421057762,55
32-9,421061668,319
32-10,421065574,709
32-11,421069480,894
32-12,421073386,729
32-13,421077292,237
32-14,421081198,-273
32-15,421085104,-400
32-16,421089010,-87
32-17,421092916,507
32-18,421096822,1057
32-19,421100728,1249
32-20,421104634,1021
32-21,421108540,493
32-22,421112446,30
32-23,421116352,-35
32-24,421120258,309
32-25,421124164,827
32-26,421128070,1152
32-27,421131976,1089
32-28,421135882,788
32-29,421139788,495
32-30,421143694,435
32-31,421147600,621
32-32,421151506,885
32-1,421155570,1147
32-2,421159476,1303
32-3,421163382,1246
32-4,421167288,893
32-5,421171194,377
32-6,421175100,46
32-7,421179006,110
32-8,421182912,496
32-9,421186818,893
32-10,421190724,996
32-11,421194630,700
32-12,421198536,128
32-13,421202442,-332
32-14,421206348,-357
32-15,421210254,34
32-16,421214160,640
32-17,421218066,1105
32-18,421221972,1165
32-19,421225878,809
32-20,421229784,226
32-21,421233690,-170
32-22,421237596,-143
32-23,421241502,245
32-24,421245408,761
32-25,421249314,1000
32-26,421253220,784
32-27,421257126,293
32-28,421261032,-122
32-29,421264938,-129
32-30,421268844,239
32-31,421272750,702
32-32,421276656,1042
32-1,421280568,1105
32-2,421284474,891
32-3,421288380,452
32-4,421292286,-18
32-5,421296192,-232
32-6,421300098,-65
32-7,421304004,370
32-8,421307910,744
32-9,421311816,791
32-10,421315722,450
32-11,421319628,-98
32-12,421323534,-450
32-13,421327440,-382
32-14,421331346,32
32-15,421335252,555
32-16,421339158,840
32-17,421343064,706
32-18,421346970,205
32-19,421350876,-379
32-20,421354782,-633
32-21,421358688,-420
32-22,421362594,115
32-23,421366500,658
32-24,421370406,855
32-25,421374312,573
32-26,421378218,-17
32-27,421382124,-517
32-28,421386030,-555
32-29,421389936,-143
32-30,421393842,466
32-31,421397748,936
32-32,421401654,1039
32-1,421405560,760
32-2,421409466,234
32-3,421413372,-197
32-4,421417278,-309
32-5,421421184,-64
32-6,421425090,373
32-7,421428996,659
32-8,421432902,601
32-9,421436808,188
32-10,421440714,-327
32-11,421444620,-564
32-12,421448526,-393
32-13,421452432,77
32-14,421456338,568
32-15,421460244,742
32-16,421464150,490
32-17,421468056,-76
32-18,421471962,-601
32-19,421475868,-716
32-20,421479774,-389
32-21,421483680,196
32-22,421487586,678
32-23,421491492,754
32-24,421495398,392
32-25,421499304,-222
32-26,421503210,-656
32-27,421507116,-624
32-28,421511022,-195
32-29,421514928,405
32-30,421518834,826
32-31,421522740,837
32-32,421526646,442
32-1,421530410,-149
32-2,421534316,-520
32-3,421538222,-433
32-4,421542128,31
32-5,421546034,609
32-6,421549940,950
32-7,421553846,878
32-8,421557752,450
32-9,421561658,-49
32-10,421565564,-284
32-11,421569470,-163
32-12,421573376,216
32-13,421577282,570
32-14,421581188,633
32-15,421585094,319
32-16,421589000,-233
32-17,421592906,-635
32-18,421596812,-623
32-19,421600718,-238
32-20,421604624,296
32-21,421608530,619
32-22,421612436,519
32-23,421616342,34
32-24,421620248,-581
32-25,421624154,-887
32-26,421628060,-719
32-27,421631966,-238
32-28,421635872,301
32-29,421639778,602
32-30,421643684,538
32-31,421647590,142
32-32,421651496,-382
32-1,421655408,-678
32-2,421659314,-580
32-3,421663220,-147
32-4,421667126,375
32-5,421671032,640
32-6,421674938,473
32-7,421678844,-22
32-8,421682750,-476
32-9,421686656,-609
32-10,421690562,-393
32-11,421694468,10
32-12,421698374,293
32-13,421702280,248
32-14,421706186,-152
32-15,421710092,-700
32-16,421713998,-1001
32-17,421717904,-874
32-18,421721810,-410
32-19,421725716,141
32-20,421729622,424
32-21,421733528,282
32-22,421737434,-233
32-23,421741340,-805
32-24,421745246,-1020
32-25,421749152,-786
32-26,421753058,-291
32-27,421756964,156
32-28,421760870,328
32-29,421764776,217
32-30,421768682,-53
32-31,421772588,-274
32-32,421776494,-343
32-1,421780406,-336
32-2,421784312,-312
32-3,421788218,-355
32-4,421792124,-517
32-5,421796030,-784
32-6,421799936,-1068
32-7,421803842,-1127
32-8,421807748,-890
32-9,421811654,-409
32-10,421815560,192
32-11,421819466,637
32-12,421823372,757
32-13,421827278,541
32-14,421831184,175
32-15,421835090,-55
32-16,421838996,-60
32-17,421842902,91
32-18,421846808,231
32-19,421850714,177
32-20,421854620,-124
32-21,421858526,-596
32-22,421862432,-967
32-23,421866338,-954
32-24,421870244,-542
32-25,421874150,35
32-26,421878056,403
32-27,421881962,384
32-28,421885868,123
32-29,421889774,-159
32-30,421893680,-230
32-31,421897586,-65
32-32,421901492,177
32-1,421905403,427
32-2,421909309,570
32-3,421913215,508
32-4,421917121,168
32-5,421921027,-309
32-6,421924933,-589
32-7,421928839,-488
32-8,421932745,-77
32-9,421936651,351
32-10,421940557,502
32-11,421944463,261
32-12,421948369,-263
32-13,421952275,-704
32-14,421956181,-753
32-15,421960087,-415
32-16,421963993,124
32-17,421967899,534
32-18,421971805,553
32-19,421975711,163
32-20,421979617,-442
32-21,421983523,-837
32-22,421987429,-775
32-23,421991335,-319
32-24,421995241,277
32-25,421999147,579
32-26,422003053,399
32-27,422006959,-57
32-28,422010865,-437
32-29,422014771,-416
32-30,422018677,-43
32-31,422022583,403
32-32,422026489,721
32-1,422030584,783
32-2,422034490,583
32-3,422038396,174
32-4,422042302,-268
32-5,422046208,-485
32-6,422050114,-337
32-7,422054020,61
32-8,422057926,377
32-9,422061832,368
32-10,422065738,-15
32-11,422069644,-584
32-12,422073550,-926
32-13,422077456,-819
32-14,422081362,-345
32-15,422085268,255
32-16,422089174,616
32-17,422093080,559
32-18,422096986,121
32-19,422100892,-433
32-20,422104798,-707
32-21,422108704,-558
32-22,422112610,-112
32-23,422116516,363
32-24,422120422,535
32-25,422124328,248
32-26,422128234,-337
32-27,422132140,-822
32-28,422136046,-838
32-29,422139952,-402
32-30,422143858,212
32-31,422147764,667
32-32,422151670,748
32-1,422155399,461
32-2,422159305,-52
32-3,422163211,-460
32-4,422167117,-550
32-5,422171023,-281
32-6,422174929,187
32-7,422178835,503
32-8,422182741,446
32-9,422186647,-8
32-10,422190553,-590
32-11,422194459,-882
32-12,422198365,-724
32-13,422202271,-229
32-14,422206177,304
32-15,422210083,517
32-16,422213989,283
32-17,422217895,-263
32-18,422221801,-765
32-19,422225707,-871
32-20,422229613,-595
32-21,422233519,-174
32-22,422237425,77
32-23,422241331,-28
32-24,422245237,-406
32-25,422249143,-857
32-26,422253049,-1075
32-27,422256955,-918
32-28,422260861,-447
32-29,422264767,192
32-30,422268673,702
32-31,422272579,882
32-32,422276485,691
32-1,422280396,300
32-2,422284302,19
32-3,422288208,-27
32-4,422292114,104
32-5,422296020,273
32-6,422299926,282
32-7,422303832,58
32-8,422307738,-366
32-9,422311644,-781
32-10,422315550,-869
32-11,422319456,-571
32-12,422323362,-31
32-13,422327268,446
32-14,422331174,579
32-15,422335080,328
32-16,422338986,-186
32-17,422342892,-605
32-18,422346798,-650
32-19,422350704,-332
32-20,422354610,157
32-21,422358516,494
32-22,422362422,457
32-23,422366328,58
32-24,422370234,-476
32-25,422374140,-759
32-26,422378046,-633
32-27,422381952,-223
32-28,422385858,255
32-29,422389764,539
32-30,422393670,488
32-31,422397576,117
32-32,422401482,-386
32-1,422405394,-675
32-2,422409300,-572
32-3,422413206,-129
32-4,422417112,401
32-5,422421018,679
32-6,422424924,529
32-7,422428830,49
32-8,422432736,-402
32-9,422436642,-534
32-10,422440548,-318
32-11,422444454,90
32-12,422448360,387
32-13,422452266,362
32-14,422456172,-18
32-15,422460078,-546
32-16,422463984,-837
32-17,422467890,-712
32-18,422471796,-258
32-19,422475702,262
32-20,422479608,500
32-21,422483514,317
32-22,422487420,-217
32-23,422491326,-775
32-24,422495232,-949
32-25,422499138,-675
32-26,422503044,-146
32-27,422506950,324
32-28,422510856,509
32-29,422514762,414
32-30,422518668,106
32-31,422522574,-227
32-32,422526480,-373
32-1,422530392,-279
32-2,422534298,52
32-3,422538204,434
32-4,422542110,577
32-5,422546016,332
32-6,422549922,-193
32-7,422553828,-587
32-8,422557734,-597
32-9,422561640,-262
32-10,422565546,189
32-11,422569452,435
32-12,422573358,307
32-13,422577264,-159
32-14,422581170,-659
32-15,422585076,-829
32-16,422588982,-589
32-17,422592888,-85
32-18,422596794,374
32-19,422600700,485
32-20,422604606,174
32-21,422608512,-414
32-22,422612418,-897
32-23,422616324,-939
32-24,422620230,-539
32-25,422624136,50
32-26,422628042,421
32-27,422631948,377
32-28,422635854,78
32-29,422639760,-230
32-30,422643666,-308
32-31,422647572,-139
32-32,422651478,115
32-1,422655389,380
32-2,422659295,543
32-3,422663201,502
32-4,422667107,169
32-5,422671013,-331
32-6,422674919,-650
32-7,422678825,-588
32-8,422682731,-193
32-9,422686637,247
32-10,422690543,427
32-11,422694449,218
32-12,422698355,-287
32-13,422702261,-725
32-14,422706167,-785
32-15,422710073,-459
32-16,422713979,64
32-17,422717885,443
32-18,422721791,425
32-19,422725697,9
32-20,422729603,-596
32-21,422733509,-967
32-22,422737415,-873
32-23,422741321,-393
32-24,422745227,210
32-25,422749133,499
32-26,422753039,303
32-27,422756945,-181
32-28,422760851,-596
32-29,422764757,-593
32-30,422768663,-205
32-31,422772569,275
32-32,422776475,627
32-1,422780570,709
32-2,422784476,532
32-3,422788382,161
32-4,422792288,-234
32-5,422796194,-415
32-6,422800100,-269
32-7,422804006,108
32-8,422807912,424
32-9,422811818,446
32-10,422815724,112
32-11,422819630,-422
32-12,422823536,-766
32-13,422827442,-696
32-14,422831348,-273
32-15,422835254,284
32-16,422839160,627
32-17,422843066,557
32-18,422846972,93
32-19,422850878,-494
32-20,422854784,-785
32-21,422858690,-618
32-22,422862596,-121
32-23,422866502,402
32-24,422870408,607
32-25,422874314,357
32-26,422878220,-173
32-27,422882126,-609
32-28,422886032,-615
32-29,422889938,-209
32-30,422893844,357
32-31,422897750,784
32-32,422901656,871
32-1,422905384,619
32-2,422909290,164
32-3,422913196,-189
32-4,422917102,-261
32-5,422921008,-29
32-6,422924914,356
32-7,422928820,591
32-8,422932726,509
32-9,422936632,93
32-10,422940538,-425
32-11,422944444,-667
32-12,422948350,-498
32-13,422952256,-19
32-14,422956162,498
32-15,422960068,722
32-16,422963974,536
32-17,422967880,26
32-18,422971786,-483
32-19,422975692,-638
32-20,422979598,-381
32-21,422983504,133
32-22,422987410,566
32-23,422991316,618
32-24,422995222,242
32-25,422999128,-374
32-26,423003034,-807
32-27,423006940,-770
32-28,423010846,-336
32-29,423014752,269
32-30,423018658,695
32-31,423022564,729
32-32,423026470,369
32-1,423030382,-181
32-2,423034288,-515
32-3,423038194,-437
32-4,423042100,-14
32-5,423046006,492
32-6,423049912,720
32-7,423053818,514
32-8,423057724,-27
32-9,423061630,-579
32-10,423065536,-754
32-11,423069442,-470
32-12,423073348,113
32-13,423077254,685
32-14,423081160,923
32-15,423085066,720
32-16,423088972,192
32-17,423092878,-296
32-18,423096784,-435
32-19,423100690,-182
32-20,423104596,263
32-21,423108502,551
32-22,423112408,462
32-23,423116314,6
32-24,423120220,-554
32-25,423124126,-808
32-26,423128032,-595
32-27,423131938,-75
32-28,423135844,487
32-29,423139750,797
32-30,423143656,742
32-31,423147562,376
32-32,423151468,-91
32-1,423155380,-341
32-2,423159286,-247
32-3,423163192,132
32-4,423167098,575
32-5,423171004,796
32-6,423174910,622
32-7,423178816,127
32-8,423182722,-331
32-9,423186628,-467
32-10,423190534,-242
32-11,423194440,169
32-12,423198346,448
32-13,423202252,388
32-14,423206158,-47
32-15,423210064,-627
32-16,423213970,-941
32-17,423217876,-805
32-18,423221782,-308
32-19,423225688,267
32-20,423229594,541
32-21,423233500,372
32-22,423237406,-163
32-23,423241312,-730
32-24,423245218,-910
32-25,423249124,-636
32-26,423253030,-104
32-27,423256936,369
32-28,423260842,558
32-29,423264748,464
32-30,423268654,160
32-31,423272560,-172
32-32,423276466,-318
32-1,423280377,-213
32-2,423284283,133
32-3,423288189,526
32-4,423292095,682
32-5,423296001,447
32-6,423299907,-66
32-7,423303813,-463
32-8,423307719,-503
32-9,423311625,-211
32-10,423315531,186
32-11,423319437,372
32-12,423323343,194
32-13,423327249,-325
32-14,423331155,-859
32-15,423335061,-1018
32-16,423338967,-724
32-17,423342873,-146
32-18,423346779,368
32-19,423350685,490
32-20,423354591,167
32-21,423358497,-420
32-22,423362403,-884
32-23,423366309,-899
32-24,423370215,-540
32-25,423374121,-121
32-26,423378027,24
32-27,423381933,-169
32-28,423385839,-433
32-29,423389745,-539
32-30,423393651,-377
32-31,423397557,-89
32-32,423401463,186
32-1,423405375,468
32-2,423409281,700
32-3,423413187,793
32-4,423417093,628
32-5,423420999,284
32-6,423424905,21
32-7,423428811,-29
32-8,423432717,90
32-9,423436623,213
32-10,423440529,183
32-11,423444435,-67
32-12,423448341,-482
32-13,423452247,-818
32-14,423456153,-825
32-15,423460059,-485
32-16,423463965,7
32-17,423467871,318
32-18,423471777,255
32-19,423475683,-138
32-20,423479589,-667
32-21,423483495,-966
32-22,423487401,-840
32-23,423491307,-371
32-24,423495213,243
32-25,423499119,628
32-26,423503025,582
32-27,423506931,205
32-28,423510837,-219
32-29,423514743,-347
32-30,423518649,-133
32-31,423522555,212
32-32,423526461,491
32-1,423530556,544
32-2,423534462,320
32-3,423538368,-60
32-4,423542274,-415
32-5,423546180,-619
32-6,423550086,-661
32-7,423553992,-648
32-8,423557898,-667
32-9,423561804,-722
32-10,423565710,-831
32-11,423569616,-979
32-12,423573522,-1026
32-13,423577428,-856
32-14,423581334,-394
32-15,423585240,227
32-16,423589146,700
32-17,423593052,831
32-18,423596958,563
32-19,423600864,91
32-20,423604770,-242
32-21,423608676,-288
32-22,423612582,-71
32-23,423616488,228
32-24,423620394,337
32-25,423624300,107
32-26,423628206,-382
32-27,423632112,-803
32-28,423636018,-810
32-29,423639924,-415
32-30,423643830,137
32-31,423647736,543
32-32,423651642,614
32-1,423655370,354
32-2,423659276,-112
32-3,423663182,-478
32-4,423667088,-558
32-5,423670994,-313
32-6,423674900,107
32-7,423678806,384
32-8,423682712,337
32-9,423686618,-62
32-10,423690524,-568
32-11,423694430,-810
32-12,423698336,-655
32-13,423702242,-204
32-14,423706148,274
32-15,423710054,452
32-16,423713960,216
32-17,423717866,-334
32-18,423721772,-851
32-19,423725678,-969
32-20,423729584,-652
32-21,423733490,-74
32-22,423737396,412
32-23,423741302,505
32-24,423745208,170
32-25,423749114,-413
32-26,423753020,-843
32-27,423756926,-829
32-28,423760832,-430
32-29,423764738,149
32-30,423768644,577
32-31,423772550,626
32-32,423776456,296
32-1,423780368,-232
32-2,423784274,-571
32-3,423788180,-506
32-4,423792086,-98
32-5,423795992,425
32-6,423799898,741
32-7,423803804,673
32-8,423807710,251
32-9,423811616,-236
32-10,423815522,-443
32-11,423819428,-277
32-12,423823334,140
32-13,423827240,516
32-14,423831146,582
32-15,423835052,272
32-16,423838958,-266
32-17,423842864,-651
32-18,423846770,-625
32-19,423850676,-223
32-20,423854582,346
32-21,423858488,722
32-22,423862394,674
32-23,423866300,223
32-24,423870206,-379
32-25,423874112,-694
32-26,423878018,-544
32-27,423881924,-78
32-28,423885830,453
32-29,423889736,763
32-30,423893642,728
32-31,423897548,388
32-32,423901454,-68
32-1,423905365,-321
32-2,423909271,-224
32-3,423913177,182
32-4,423917083,680
32-5,423920989,948
32-6,423924895,788
32-7,423928801,274
32-8,423932707,-222
32-9,423936613,-377
32-10,423940519,-133
32-11,423944425,323
32-12,423948331,628
32-13,423952237,564
32-14,423956143,131
32-15,423960049,-428
32-16,423963955,-696
32-17,423967861,-509
32-18,423971767,15
32-19,423975673,616
32-20,423979579,936
32-21,423983485,824
32-22,423987391,340
32-23,423991297,-208
32-24,423995203,-419
32-25,423999109,-209
32-26,424003015,239
32-27,424006921,647
32-28,424010827,814
32-29,424014733,722
32-30,424018639,432
32-31,424022545,117
32-32,424026451,-23
32-1,424030363,81
32-2,424034269,429
32-3,424038175,826
32-4,424042081,975
32-5,424045987,713
32-6,424049893,163
32-7,424053799,-252
32-8,424057705,-264
32-9,424061611,86
32-10,424065517,536
32-11,424069423,746
32-12,424073329,563
32-13,424077235,52
32-14,424081141,-465
32-15,424085047,-606
32-16,424088953,-309
32-17,424092859,269
32-18,424096765,817
32-19,424100671,1012
32-20,424104577,781
32-21,424108483,245
32-22,424112389,-229
32-23,424116295,-304
32-24,424120201,30
32-25,424124107,533
32-26,424128013,847
32-27,424131919,777
32-28,424135825,477
32-29,424139731,190
32-30,424143637,127
32-31,424147543,303
32-32,424151449,563
32-1,424155361,827
32-2,424159267,990
32-3,424163173,954
32-4,424167079,645
32-5,424170985,184
32-6,424174891,-110
32-7,424178797,-54
32-8,424182703,295
32-9,424186609,651
32-10,424190515,738
32-11,424194421,448
32-12,424198327,-121
32-13,424202233,-589
32-14,424206139,-634
32-15,424210045,-261
32-16,424213951,324
32-17,424217857,754
32-18,424221763,773
32-19,424225669,378
32-20,424229575,-231
32-21,424233481,-619
32-22,424237387,-542
32-23,424241293,-79
32-24,424245199,511
32-25,424249105,791
32-26,424253011,576
32-27,424256917,76
32-28,424260823,-348
32-29,424264729,-343
32-30,424268635,44
32-31,424272541,515
32-32,424276447,855
32-1,424280358,922
32-2,424284264,714
32-3,424288170,284
32-4,424292076,-185
32-5,424295982,-409
32-6,424299888,-252
32-7,424303794,184
32-8,424307700,567
32-9,424311606,624
32-10,424315512,286
32-11,424319418,-265
32-12,424323324,-631
32-13,424327230,-584
32-14,424331136,-183
32-15,424335042,338
32-16,424338948,628
32-17,424342854,504
32-18,424346760,6
32-19,424350666,-582
32-20,424354572,-845
32-21,424358478,-639
32-22,424362384,-106
32-23,424366290,450
32-24,424370196,661
32-25,424374102,381
32-26,424378008,-221
32-27,424381914,-744
32-28,424385820,-801
32-29,424389726,-394
32-30,424393632,210
32-31,424397538,672
32-32,424401444,767
32-1,424405356,490
32-2,424409262,-16
32-3,424413168,-425
32-4,424417074,-529
32-5,424420980,-291
32-6,424424886,136
32-7,424428792,421
32-8,424432698,369
32-9,424436604,-40
32-10,424440510,-572
32-11,424444416,-845
32-12,424448322,-714
32-13,424452228,-276
32-14,424456134,204
32-15,424460040,386
32-16,424463946,145
32-17,424467852,-422
32-18,424471758,-967
32-19,424475664,-1107
32-20,424479570,-796
32-21,424483476,-220
32-22,424487382,260
32-23,424491288,340
32-24,424495194,-17
32-25,424499100,-627
32-26,424503006,-1064
32-27,424506912,-1046
32-28,424510818,-640
32-29,424514724,-65
32-30,424518630,336
32-31,424522536,339
32-32,424526442,-52
32-1,424530354,-630
32-2,424534260,-987
32-3,424538166,-895
32-4,424542072,-435
32-5,424545978,145
32-6,424549884,496
32-7,424553790,442
32-8,424557696,40
32-9,424561602,-435
32-10,424565508,-655
32-11,424569414,-536
32-12,424573320,-172
32-13,424577226,167
32-14,424581132,226
32-15,424585038,-80
32-16,424588944,-623
32-17,424592850,-1016
32-18,424596756,-999
32-19,424600662,-602
32-20,424604568,-51
32-21,424608474,294
32-22,424612380,216
32-23,424616286,-255
32-24,424620192,-864
32-25,424624098,-1166
32-26,424628004,-992
32-27,424631910,-489
32-28,424635816,85
32-29,424639722,419
32-30,424643628,377
32-31,424647534,-20
32-32,424651440,-535
32-1,424655351,-811
32-2,424659257,-706
32-3,424663163,-286
32-4,424667069,154
32-5,424670975,278
32-6,424674881,-29
32-7,424678787,-595
32-8,424682693,-1030
32-9,424686599,-1053
32-10,424690505,-672
32-11,424694411,-75
32-12,424698317,425
32-13,424702223,596
32-14,424706129,376
32-15,424710035,-94
32-16,424713941,-475
32-17,424717847,-561
32-18,424721753,-347
32-19,424725659,-22
32-20,424729565,115
32-21,424733471,-68
32-22,424737377,-552
32-23,424741283,-1046
32-24,424745189,-1166
32-25,424749095,-864
32-26,424753001,-336
32-27,424756907,113
32-28,424760813,286
32-29,424764719,204
32-30,424768625,-62
32-31,424772531,-343
32-32,424776437,-459
32-1,424780318,-370
32-2,424784224,-72
32-3,424788130,266
32-4,424792036,376
32-5,424795942,100
32-6,424799848,-449
32-7,424803754,-855
32-8,424807660,-867
32-9,424811566,-525
32-10,424815472,-64
32-11,424819378,188
32-12,424823284,68
32-13,424827190,-387
32-14,424831096,-881
32-15,424835002,-1054
32-16,424838908,-831
32-17,424842814,-335
32-18,424846720,152
32-19,424850626,321
32-20,424854532,80
32-21,424858438,-468
32-22,424862344,-954
32-23,424866250,-1021
32-24,424870156,-656
32-25,424874062,-108
32-26,424877968,228
32-27,424881874,159
32-28,424885780,-132
32-29,424889686,-396
32-30,424893592,-432
32-31,424897498,-252
32-32,424901404,-13
32-1,424905347,216
32-2,424909253,362
32-3,424913159,334
32-4,424917065,55
32-5,424920971,-363
32-6,424924877,-632
32-7,424928783,-579
32-8,424932689,-256
32-9,424936595,62
32-10,424940501,129
32-11,424944407,-147
32-12,424948313,-679
32-13,424952219,-1104
32-14,424956125,-1111
32-15,424960031,-717
32-16,424963937,-112
32-17,424967843,356
32-18,424971749,434
32-19,424975655,103
32-20,424979561,-460
32-21,424983467,-840
32-22,424987373,-799
32-23,424991279,-391
32-24,424995185,149
32-25,424999091,412
32-26,425002997,208
32-27,425006903,-283
32-28,425010809,-699
32-29,425014715,-695
32-30,425018621,-302
32-31,425022527,195
32-32,425026433,562
32-1,425030344,647
32-2,425034250,444
32-3,425038156,30
32-4,425042062,-412
32-5,425045968,-615
32-6,425049874,-451
32-7,425053780,-40
32-8,425057686,295
32-9,425061592,302
32-10,425065498,-65
32-11,425069404,-623
32-12,425073310,-963
32-13,425077216,-858
32-14,425081122,-387
32-15,425085028,211
32-16,425088934,570
32-17,425092840,507
32-18,425096746,58
32-19,425100652,-507
32-20,425104558,-785
32-21,425108464,-637
32-22,425112370,-191
32-23,425116276,279
32-24,425120182,451
32-25,425124088,171
32-26,425127994,-402
32-27,425131900,-883
32-28,425135806,-924
32-29,425139712,-506
32-30,425143618,112
32-31,425147524,596
32-32,425151430,730
32-1,425155342,511
32-2,425159248,86
32-3,425163154,-243
32-4,425167060,-308
32-5,425170966,-99
32-6,425174872,243
32-7,425178778,420
32-8,425182684,296
32-9,425186590,-141
32-10,425190496,-670
32-11,425194402,-906
32-12,425198308,-725
32-13,425202214,-225
32-14,425206120,306
32-15,425210026,525
32-16,425213932,319
32-17,425217838,-224
32-18,425221744,-750
32-19,425225650,-883
32-20,425229556,-582
32-21,425233462,-18
32-22,425237368,456
32-23,425241274,539
32-24,425245180,194
32-25,425249086,-399
32-26,425252992,-825
32-27,425256898,-809
32-28,425260804,-417
32-29,425264710,153
32-30,425268616,563
32-31,425272522,587
32-32,425276428,228
32-1,425280339,-342
32-2,425284245,-744
32-3,425288151,-730
32-4,425292057,-331
32-5,425295963,253
32-6,425299869,663
32-7,425303775,672
32-8,425307681,271
32-9,425311587,-267
32-10,425315493,-552
32-11,425319399,-423
32-12,425323305,19
32-13,425327211,446
32-14,425331117,554
32-15,425335023,243
32-16,425338929,-324
32-17,425342835,-745
32-18,425346741,-767
32-19,425350647,-441
32-20,425354553,46
32-21,425358459,426
32-22,425362365,494
32-23,425366271,269
32-24,425370177,-51
32-25,425374083,-233
32-26,425377989,-228
32-27,425381895,-113
32-28,425385801,77
32-29,425389707,266
32-30,425393613,368
32-31,425397519,289
32-32,425401425,61
32-1,425405368,-131
32-2,425409274,-127
32-3,425413180,145
32-4,425417086,527
32-5,425420992,756
32-6,425424898,733
32-7,425428804,523
32-8,425432710,322
32-9,425436616,247
32-10,425440522,262
32-11,425444428,317
32-12,425448334,341
32-13,425452240,295
32-14,425456146,160
32-15,425460052,-39
32-16,425463958,-175
32-17,425467864,-156
32-18,425471770,23
32-19,425475676,264
32-20,425479582,399
32-21,425483488,344
32-22,425487394,100
32-23,425491300,-195
32-24,425495206,-330
32-25,425499112,-230
32-26,425503018,35
32-27,425506924,288
32-28,425510830,380
32-29,425514736,313
32-30,425518642,150
32-31,425522548,-6
32-32,425526454,-63
32-1,425530335,-17
32-2,425534241,128
32-3,425538147,300
32-4,425542053,373
32-5,425545959,261
32-6,425549865,0
32-7,425553771,-206
32-8,425557677,-232
32-9,425561583,-92
32-10,425565489,116
32-11,425569395,239
32-12,425573301,162
32-13,425577207,-140
32-14,425581113,-502
32-15,425585019,-678
32-16,425588925,-587
32-17,425592831,-319
32-18,425596737,-87
32-19,425600643,-82
32-20,425604549,-323
32-21,425608455,-684
32-22,425612361,-932
32-23,425616267,-902
32-24,425620173,-602
32-25,425624079,-160
32-26,425627985,191
32-27,425631891,281
32-28,425635797,130
32-29,425639703,-113
32-30,425643609,-250
32-31,425647515,-205
32-32,425651421,-68
32-1,425655332,62
32-2,425659238,113
32-3,425663144,70
32-4,425667050,-73
32-5,425670956,-255
32-6,425674862,-363
32-7,425678768,-347
32-8,425682674,-200
32-9,425686580,-21
32-10,425690486,69
32-11,425694392,-15
32-12,425698298,-289
32-13,425702204,-568
32-14,425706110,-635
32-15,425710016,-459
32-16,425713922,-128
32-17,425717828,163
32-18,425721734,244
32-19,425725640,92
32-20,425729546,-200
32-21,425733452,-420
32-22,425737358,-440
32-23,425741264,-271
32-24,425745170,3
32-25,425749076,163
32-26,425752982,85
32-27,425756888,-158
32-28,425760794,-379
32-29,425764700,-387
32-30,425768606,-187
32-31,425772512,77
32-32,425776418,268
32-1,425780330,298
32-2,425784236,188
32-3,425788142,3
32-4,425792048,-174
32-5,425795954,-255
32-6,425799860,-224
32-7,425803766,-115
32-8,425807672,-21
32-9,425811578,-15
32-10,425815484,-137
32-11,425819390,-379
32-12,425823296,-570
32-13,425827202,-571
32-14,425831108,-387
32-15,425835014,-106
32-16,425838920,101
32-17,425842826,115
32-18,425846732,-71
32-19,425850638,-336
32-20,425854544,-483
32-21,425858450,-440
32-22,425862356,-235
32-23,425866262,25
32-24,425870168,173
32-25,425874074,88
32-26,425877980,-184
32-27,425881886,-450
32-28,425885792,-507
32-29,425889698,-320
32-30,425893604,-25
32-31,425897510,193
32-32,425901416,216
32-1,425905328,63
32-2,425909234,-178
32-3,425913140,-354
32-4,425917046,-410
32-5,425920952,-350
32-6,425924858,-215
32-7,425928764,-117
32-8,425932670,-127
32-9,425936576,-296
32-10,425940482,-550
32-11,425944388,-721
32-12,425948294,-715
32-13,425952200,-543
32-14,425956106,-325
32-15,425960012,-231
32-16,425963918,-356
32-17,425967824,-632
32-18,425971730,-843
32-19,425975636,-842
32-20,425979542,-688
32-21,425983448,-513
32-22,425987354,-449
32-23,425991260,-519
32-24,425995166,-661
32-25,425999072,-816
32-26,426002978,-856
32-27,426006884,-723
32-28,426010790,-441
32-29,426014696,-77
32-30,426018602,205
32-31,426022508,316
32-32,426026414,283
32-1,426030417,188
32-2,426034323,133
32-3,426038229,103
32-4,426042135,66
32-5,426046041,46
32-6,426049947,41
32-7,426053853,29
32-8,426057759,-36
32-9,426061665,-147
32-10,426065571,-196
32-11,426069477,-139
32-12,426073383,6
32-13,426077289,150
32-14,426081195,202
32-15,426085101,142
32-16,426089007,1
32-17,426092913,-116
32-18,426096819,-127
32-19,426100725,-31
32-20,426104631,135
32-21,426108537,277
32-22,426112443,302
32-23,426116349,158
32-24,426120255,-90
32-25,426124161,-269
32-26,426128067,-257
32-27,426131973,-73
32-28,426135879,168
32-29,426139785,320
32-30,426143691,306
32-31,426147597,153
32-32,426151503,-37
32-1,426155323,-144
32-2,426159229,-113
32-3,426163135,48
32-4,426167041,249
32-5,426170947,373
32-6,426174853,336
32-7,426178759,150
32-8,426182665,-22
32-9,426186571,-67
32-10,426190477,5
32-11,426194383,147
32-12,426198289,262
32-13,426202195,281
32-14,426206101,154
32-15,426210007,-84
32-16,426213913,-249
32-17,426217819,-232
32-18,426221725,-42
32-19,426225631,221
32-20,426229537,387
32-21,426233443,360
32-22,426237349,148
32-23,426241255,-117
32-24,426245161,-237
32-25,426249067,-146
32-26,426252973,92
32-27,426256879,317
32-28,426260785,389
32-29,426264691,322
32-30,426268597,198
32-31,426272503,108
32-32,426276409,104
32-1,426280320,171
32-2,426284226,297
32-3,426288132,424
32-4,426292038,467
32-5,426295944,384
32-6,426299850,219
32-7,426303756,115
32-8,426307662,133
32-9,426311568,231
32-10,426315474,352
32-11,426319380,415
32-12,426323286,379
32-13,426327192,194
32-14,426331098,-59
32-15,426335004,-182
32-16,426338910,-102
32-17,426342816,138
32-18,426346722,400
32-19,426350628,521
32-20,426354534,440
32-21,426358440,189
32-22,426362346,-62
32-23,426366252,-131
32-24,426370158,8
32-25,426374064,271
32-26,426377970,479
32-27,426381876,503
32-28,426385782,396
32-29,426389688,277
32-30,426393594,248
32-31,426397500,322
32-32,426401406,426
32-1,426405318,520
32-2,426409224,569
32-3,426413130,545
32-4,426417036,429
32-5,426420942,264
32-6,426424848,165
32-7,426428754,179
32-8,426432660,293
32-9,426436566,423
32-10,426440472,483
32-11,426444378,422
32-12,426448284,227
32-13,426452190,26
32-14,426456096,-35
32-15,426460002,57
32-16,426463908,255
32-17,426467814,441
32-18,426471720,492
32-19,426475626,355
32-20,426479532,88
32-21,426483438,-116
32-22,426487344,-123
32-23,426491250,60
32-24,426495156,345
32-25,426499062,523
32-26,426502968,474
32-27,426506874,281
32-28,426510780,99
32-29,426514686,80
32-30,426518592,222
32-31,426522498,411
32-32,426526404,547
32-1,426530316,558
32-2,426534222,458
32-3,426538128,309
32-4,426542034,179
32-5,426545940,143
32-6,426549846,200
32-7,426553752,309
32-8,426557658,394
32-9,426561564,400
32-10,426565470,295
32-11,426569376,81
32-12,426573282,-96
32-13,426577188,-124
32-14,426581094,2
32-15,426585000,217
32-16,426588906,375
32-17,426592812,362
32-18,426596718,149
32-19,426600624,-154
32-20,426604530,-332
32-21,426608436,-296
32-22,426612342,-85
32-23,426616248,181
32-24,426620154,325
32-25,426624060,245
32-26,426627966,-4
32-27,426631872,-248
32-28,426635778,-312
32-29,426639684,-159
32-30,426643590,111
32-31,426647496,332
32-32,426651402,387
32-1,426655466,283
32-2,426659372,105
32-3,426663278,-6
32-4,426667184,-18
32-5,426671090,41
32-6,426674996,139
32-7,426678902,191
32-8,426682808,160
32-9,426686714,6
32-10,426690620,-238
32-11,426694526,-396
32-12,426698432,-361
32-13,426702338,-158
32-14,426706244,96
32-15,426710150,237
32-16,426714056,196
32-17,426717962,8
32-18,426721868,-192
32-19,426725774,-270
32-20,426729680,-213
32-21,426733586,-54
32-22,426737492,110
32-23,426741398,162
32-24,426745304,28
32-25,426749210,-251
32-26,426753116,-488
32-27,426757022,-518
32-28,426760928,-335
32-29,426764834,-38
32-30,426768740,199
32-31,426772646,247
32-32,426776552,93
32-1,426780311,-168
32-2,426784217,-356
32-3,426788123,-359
32-4,426792029,-194
32-5,426795935,38
32-6,426799841,189
32-7,426803747,181
32-8,426807653,9
32-9,426811559,-199
32-10,426815465,-297
32-11,426819371,-261
32-12,426823277,-110
32-13,426827183,53
32-14,426831089,119
32-15,426834995,18
32-16,426838901,-248
32-17,426842807,-494
32-18,426846713,-542
32-19,426850619,-370
32-20,426854525,-61
32-21,426858431,185
32-22,426862337,206
32-23,426866243,-16
32-24,426870149,-366
32-25,426874055,-596
32-26,426877961,-560
32-27,426881867,-311
32-28,426885773,6
32-29,426889679,209
32-30,426893585,193
32-31,426897491,-28
32-32,426901397,-324
32-1,426905309,-500
32-2,426909215,-446
32-3,426913121,-183
32-4,426917027,144
32-5,426920933,340
32-6,426924839,269
32-7,426928745,-32
32-8,426932651,-312
32-9,426936557,-395
32-10,426940463,-268
32-11,426944369,-22
32-12,426948275,155
32-13,426952181,141
32-14,426956087,-107
32-15,426959993,-478
32-16,426963899,-687
32-17,426967805,-603
32-18,426971711,-278
32-19,426975617,122
32-20,426979523,335
32-21,426983429,252
32-22,426987335,-93
32-23,426991241,-492
32-24,426995147,-652
32-25,426999053,-496
32-26,427002959,-142
32-27,427006865,187
32-28,427010771,311
32-29,427014677,231
32-30,427018583,27
32-31,427022489,-171
32-32,427026395,-244
32-1,427030306,-166
32-2,427034212,47
32-3,427038118,292
32-4,427042024,398
32-5,427045930,256
32-6,427049836,-72
32-7,427053742,-329
32-8,427057648,-358
32-9,427061554,-169
32-10,427065460,109
32-11,427069366,271
32-12,427073272,195
32-13,427077178,-144
32-14,427081084,-541
32-15,427084990,-701
32-16,427088896,-551
32-17,427092802,-176
32-18,427096708,202
32-19,427100614,340
32-20,427104520,168
32-21,427108426,-214
32-22,427112332,-552
32-23,427116238,-608
32-24,427120144,-400
32-25,427124050,-136
32-26,427127956,-47
32-27,427131862,-186
32-28,427135768,-364
32-29,427139674,-405
32-30,427143580,-250
32-31,427147486,-22
32-32,427151392,165
32-1,427155304,342
32-2,427159210,492
32-3,427163116,554
32-4,427167022,449
32-5,427170928,232
32-6,427174834,75
32-7,427178740,57
32-8,427182646,141
32-9,427186552,211
32-10,427190458,166
32-11,427194364,-37
32-12,427198270,-372
32-13,427202176,-663
32-14,427206082,-703
32-15,427209988,-461
32-16,427213894,-48
32-17,427217800,285
32-18,427221706,359
32-19,427225612,155
32-20,427229518,-227
32-21,427233424,-506
32-22,427237330,-502
32-23,427241236,-233
32-24,427245142,168
32-25,427249048,406
32-26,427252954,313
32-27,427256860,-1
32-28,427260766,-289
32-29,427264672,-302
32-30,427268578,-44
32-31,427272484,281
32-32,427276390,506
32-1,427280637,540
32-2,427284543,417
32-3,427288449,192
32-4,427292355,-49
32-5,427296261,-173
32-6,427300167,-92
32-7,427304073,177
32-8,427307979,433
32-9,427311885,472
32-10,427315791,164
32-11,427319697,-428
32-12,427323603,-883
32-13,427327509,-868
32-14,427331415,-374
32-15,427335321,277
32-16,427339227,595
32-17,427343133,361
32-18,427347039,-315
32-19,427350945,-1040
32-20,427354851,-1314
32-21,427358757,-995
32-22,427362663,-310
32-23,427366569,341
32-24,427370475,542
32-25,427374381,162
32-26,427378287,-553
32-27,427382193,-1114
32-28,427386099,-1099
32-29,427390005,-570
32-30,427393911,135
32-31,427397817,645
32-32,427401723,730
32-1,427405299,399
32-2,427409205,-180
32-3,427413111,-635
32-4,427417017,-733
32-5,427420923,-452
32-6,427424829,19
32-7,427428735,326
32-8,427432641,281
32-9,427436547,-112
32-10,427440453,-596
32-11,427444359,-814
32-12,427448265,-656
32-13,427452171,-231
32-14,427456077,226
32-15,427459983,411
32-16,427463889,221
32-17,427467795,-250
32-18,427471701,-693
32-19,427475607,-792
32-20,427479513,-532
32-21,427483419,-62
32-22,427487325,345
32-23,427491231,445
32-24,427495137,205
32-25,427499043,-239
32-26,427502949,-569
32-27,427506855,-562
32-28,427510761,-266
32-29,427514667,156
32-30,427518573,467
32-31,427522479,505
32-32,427526385,282
32-1,427530297,-69
32-2,427534203,-305
32-3,427538109,-287
32-4,427542015,-46
32-5,427545921,274
32-6,427549827,470
32-7,427553733,444
32-8,427557639,246
32-9,427561545,54
32-10,427565451,5
32-11,427569357,72
32-12,427573263,199
32-13,427577169,309
32-14,427581075,341
32-15,427584981,262
32-16,427588887,68
32-17,427592793,-117
32-18,427596699,-167
32-19,427600605,-62
32-20,427604511,148
32-21,427608417,329
32-22,427612323,369
32-23,427616229,288
32-24,427620135,153
32-25,427624041,65
32-26,427627947,87
32-27,427631853,200
32-28,427635759,385
32-29,427639665,585
32-30,427643571,678
32-31,427647477,478
32-32,427651383,24
32-1,427655294,-353
32-2,427659200,-341
32-3,427663106,122
32-4,427667012,695
32-5,427670918,951
32-6,427674824,662
32-7,427678730,-51
32-8,427682636,-672
32-9,427686542,-802
32-10,427690448,-433
32-11,427694354,153
32-12,427698260,535
32-13,427702166,453
32-14,427706072,-63
32-15,427709978,-706
32-16,427713884,-1021
32-17,427717790,-827
32-18,427721696,-265
32-19,427725602,362
32-20,427729508,667
32-21,427733414,503
32-22,427737320,-43
32-23,427741226,-620
32-24,427745132,-801
32-25,427749038,-527
32-26,427752944,-6
32-27,427756850,455
32-28,427760756,638
32-29,427764662,555
32-30,427768568,308
32-31,427772474,54
32-32,427776380,-54
32-1,427780292,18
32-2,427784198,274
32-3,427788104,580
32-4,427792010,716
32-5,427795916,559
32-6,427799822,187
32-7,427803728,-106
32-8,427807634,-156
32-9,427811540,19
32-10,427815446,287
32-11,427819352,436
32-12,427823258,356
32-13,427827164,42
32-14,427831070,-311
32-15,427834976,-429
32-16,427838882,-272
32-17,427842788,58
32-18,427846694,380
32-19,427850600,501
32-20,427854506,376
32-21,427858412,68
32-22,427862318,-221
32-23,427866224,-288
32-24,427870130,-125
32-25,427874036,162
32-26,427877942,387
32-27,427881848,413
32-28,427885754,297
32-29,427889660,163
32-30,427893566,119
32-31,427897472,178
32-32,427901378,271
32-1,427905290,355
32-2,427909196,390
32-3,427913102,347
32-4,427917008,228
32-5,427920914,88
32-6,427924820,2
32-7,427928726,-4
32-8,427932632,53
32-9,427936538,121
32-10,427940444,151
32-11,427944350,112
32-12,427948256,-3
32-13,427952162,-114
32-14,427956068,-135
32-15,427959974,-63
32-16,427963880,64
32-17,427967786,176
32-18,427971692,218
32-19,427975598,170
32-20,427979504,44
32-21,427983410,-65
32-22,427987316,-83
32-23,427991222,-14
32-24,427995128,98
32-25,427999034,168
32-26,428002940,150
32-27,428006846,74
32-28,428010752,-1
32-29,428014658,-15
