32-1,180271523,-36
32-2,180275429,-46
32-3,180279335,-97
32-4,180283241,-87
32-5,180287147,-69
32-6,180291053,-63
32-7,180294959,-88
32-8,180298865,-133
32-9,180302771,-126
32-10,180306677,-84
32-11,180310583,-91
32-12,180314489,-177
32-13,180318395,-255
32-14,180322301,-262
32-15,180326207,-228
32-16,180330113,-204
32-17,180334019,-178
32-18,180337925,-140
32-19,180341831,-114
32-20,180345737,-121
32-21,180349643,-132
32-22,180353549,-82
32-23,180357455,-45
32-24,180361361,-61
32-25,180365267,-42
32-26,180369173,-8
32-27,180373079,9
32-28,180376985,-67
32-29,180380891,-195
32-30,180384797,-191
32-31,180388703,-20
32-32,180392609,145
32-1,180396520,173
32-2,180400426,93
32-3,180404332,51
32-4,180408238,121
32-5,180412144,157
32-6,180416050,148
32-7,180419956,152
32-8,180423862,183
32-9,180427768,207
32-10,180431674,204
32-11,180435580,213
32-12,180439486,228
32-13,180443392,216
32-14,180447298,160
32-15,180451204,111
32-16,180455110,105
32-17,180459016,99
32-18,180462922,43
32-19,180466828,-28
32-20,180470734,-59
32-21,180474640,-78
32-22,180478546,-121
32-23,180482452,-190
32-24,180486358,-179
32-25,180490264,-49
32-26,180494170,-8
32-27,180498076,-136
32-28,180501982,-338
32-29,180505888,-439
32-30,180509794,-340
32-31,180513700,-125
32-32,180517606,55
32-1,180521518,129
32-2,180525424,63
32-3,180529330,-61
32-4,180533236,-92
32-5,180537142,-73
32-6,180541048,-18
32-7,180544954,17
32-8,180548860,27
32-9,180552766,81
32-10,180556672,147
32-11,180560578,155
32-12,180564484,86
32-13,180568390,19
32-14,180572296,15
32-15,180576202,49
32-16,180580108,59
32-17,180584014,62
32-18,180587920,93
32-19,180591826,116
32-20,180595732,81
32-21,180599638,18
32-22,180603544,28
32-23,180607450,96
32-24,180611356,191
32-25,180615262,315
32-26,180619168,357
32-27,180623074,267
32-28,180626980,49
32-29,180630886,-154
32-30,180634792,-124
32-31,180638698,123
32-32,180642604,354
32-1,180646516,408
32-2,180650422,314
32-3,180654328,244
32-4,180658234,287
32-5,180662140,277
32-6,180666046,214
32-7,180669952,169
32-8,180673858,142
32-9,180677764,117
32-10,180681670,83
32-11,180685576,64
32-12,180689482,54
32-13,180693388,1
32-14,180697294,-100
32-15,180701200,-168
32-16,180705106,-175
32-17,180709012,-175
32-18,180712918,-228
32-19,180716824,-298
32-20,180720730,-290
32-21,180724636,-234
32-22,180728542,-193
32-23,180732448,-211
32-24,180736354,-208
32-25,180740260,-136
32-26,180744166,-156
32-27,180748072,-273
32-28,180751978,-357
32-29,180755884,-285
32-30,180759790,-39
32-31,180763696,218
32-32,180767602,317
32-1,180771513,253
32-2,180775419,64
32-3,180779325,-132
32-4,180783231,-189
32-5,180787137,-162
32-6,180791043,-98
32-7,180794949,-76
32-8,180798855,-121
32-9,180802761,-140
32-10,180806667,-126
32-11,180810573,-142
32-12,180814479,-197
32-13,180818385,-235
32-14,180822291,-222
32-15,180826197,-187
32-16,180830103,-168
32-17,180834009,-131
32-18,180837915,-51
32-19,180841821,15
32-20,180845727,9
32-21,180849633,-49
32-22,180853539,-75
32-23,180857445,-107
32-24,180861351,-170
32-25,180865257,-207
32-26,180869163,-246
32-27,180873069,-314
32-28,180876975,-460
32-29,180880881,-618
32-30,180884787,-594
32-31,180888693,-351
32-32,180892599,-78
32-1,180896511,60
32-2,180900417,29
32-3,180904323,-50
32-4,180908229,-51
32-5,180912135,-66
32-6,180916041,-52
32-7,180919947,42
32-8,180923853,140
32-9,180927759,167
32-10,180931665,119
32-11,180935571,79
32-12,180939477,95
32-13,180943383,118
32-14,180947289,93
32-15,180951195,71
32-16,180955101,89
32-17,180959007,119
32-18,180962913,120
32-19,180966819,114
32-20,180970725,157
32-21,180974631,217
32-22,180978537,238
32-23,180982443,174
32-24,180986349,145
32-25,180990255,225
32-26,180994161,220
32-27,180998067,59
32-28,181001973,-163
32-29,181005879,-296
32-30,181009785,-247
32-31,181013691,-113
32-32,181017597,-14
32-1,181021508,35
32-2,181025414,7
32-3,181029320,-60
32-4,181033226,-79
32-5,181037132,-105
32-6,181041038,-119
32-7,181044944,-143
32-8,181048850,-193
32-9,181052756,-192
32-10,181056662,-142
32-11,181060568,-108
32-12,181064474,-122
32-13,181068380,-129
32-14,181072286,-92
32-15,181076192,-45
32-16,181080098,-34
32-17,181084004,-40
32-18,181087910,-37
32-19,181091816,-49
32-20,181095722,-98
32-21,181099628,-150
32-22,181103534,-138
32-23,181107440,-121
32-24,181111346,-126
32-25,181115252,-111
32-26,181119158,-122
32-27,181123064,-159
32-28,181126970,-267
32-29,181130876,-378
32-30,181134782,-315
32-31,181138688,-77
32-32,181142594,138
32-1,181146476,183
32-2,181150382,79
32-3,181154288,-8
32-4,181158194,3
32-5,181162100,-39
32-6,181166006,-114
32-7,181169912,-145
32-8,181173818,-135
32-9,181177724,-122
32-10,181181630,-135
32-11,181185536,-140
32-12,181189442,-114
32-13,181193348,-83
32-14,181197254,-69
32-15,181201160,-28
32-16,181205066,50
32-17,181208972,118
32-18,181212878,134
32-19,181216784,129
32-20,181220690,137
32-21,181224596,132
32-22,181228502,102
32-23,181232408,76
32-24,181236314,197
32-25,181240220,419
32-26,181244126,434
32-27,181248032,235
32-28,181251938,69
32-29,181255844,194
32-30,181259750,619
32-31,181263656,1033
32-32,181267562,1187
32-1,181271473,1108
32-2,181275379,892
32-3,181279285,707
32-4,181283191,635
32-5,181287097,574
32-6,181291003,523
32-7,181294909,431
32-8,181298815,298
32-9,181302721,232
32-10,181306627,232
32-11,181310533,213
32-12,181314439,112
32-13,181318345,-11
32-14,181322251,-79
32-15,181326157,-97
32-16,181330063,-141
32-17,181333969,-208
32-18,181337875,-266
32-19,181341781,-320
32-20,181345687,-392
32-21,181349593,-458
32-22,181353499,-445
32-23,181357405,-405
32-24,181361311,-366
32-25,181365217,-306
32-26,181369123,-327
32-27,181373029,-453
32-28,181376935,-664
32-29,181380841,-819
32-30,181384747,-743
32-31,181388653,-475
32-32,181392559,-248
32-1,181396471,-202
32-2,181400377,-285
32-3,181404283,-322
32-4,181408189,-243
32-5,181412095,-224
32-6,181416001,-268
32-7,181419907,-281
32-8,181423813,-276
32-9,181427719,-324
32-10,181431625,-439
32-11,181435531,-543
32-12,181439437,-587
32-13,181443343,-581
32-14,181447249,-571
32-15,181451155,-532
32-16,181455061,-451
32-17,181458967,-387
32-18,181462873,-372
32-19,181466779,-370
32-20,181470685,-326
32-21,181474591,-258
32-22,181478497,-225
32-23,181482403,-263
32-24,181486309,-238
32-25,181490215,-90
32-26,181494121,-34
32-27,181498027,-160
32-28,181501933,-386
32-29,181505839,-524
32-30,181509745,-435
32-31,181513651,-210
32-32,181517557,6
32-1,181521468,142
32-2,181525374,141
32-3,181529280,65
32-4,181533186,34
32-5,181537092,19
32-6,181540998,33
32-7,181544904,30
32-8,181548810,-28
32-9,181552716,-74
32-10,181556622,-107
32-11,181560528,-135
32-12,181564434,-157
32-13,181568340,-149
32-14,181572246,-124
32-15,181576152,-164
32-16,181580058,-290
32-17,181583964,-401
32-18,181587870,-407
32-19,181591776,-341
32-20,181595682,-290
32-21,181599588,-267
32-22,181603494,-182
32-23,181607400,-87
32-24,181611306,-39
32-25,181615212,-7
32-26,181619118,-35
32-27,181623024,-104
32-28,181626930,-197
32-29,181630836,-244
32-30,181634742,-102
32-31,181638648,194
32-32,181642554,426
32-1,181646466,458
32-2,181650372,359
32-3,181654278,325
32-4,181658184,436
32-5,181662090,494
32-6,181665996,445
32-7,181669902,374
32-8,181673808,336
32-9,181677714,320
32-10,181681620,302
32-11,181685526,311
32-12,181689432,343
32-13,181693338,358
32-14,181697244,314
32-15,181701150,264
32-16,181705056,260
32-17,181708962,266
32-18,181712868,207
32-19,181716774,92
32-20,181720680,-7
32-21,181724586,-61
32-22,181728492,-70
32-23,181732398,-87
32-24,181736304,-70
32-25,181740210,3
32-26,181744116,-47
32-27,181748022,-238
32-28,181751928,-440
32-29,181755834,-496
32-30,181759740,-344
32-31,181763646,-102
32-32,181767552,82
32-1,181771464,172
32-2,181775370,130
32-3,181779276,12
32-4,181783182,-55
32-5,181787088,-96
32-6,181790994,-106
32-7,181794900,-125
32-8,181798806,-185
32-9,181802712,-205
32-10,181806618,-165
32-11,181810524,-127
32-12,181814430,-136
32-13,181818336,-139
32-14,181822242,-92
32-15,181826148,-31
32-16,181830054,-33
32-17,181833960,-62
32-18,181837866,-65
32-19,181841772,-65
32-20,181845678,-97
32-21,181849584,-166
32-22,181853490,-206
32-23,181857396,-260
32-24,181861302,-342
32-25,181865208,-386
32-26,181869114,-419
32-27,181873020,-460
32-28,181876926,-543
32-29,181880832,-615
32-30,181884738,-524
32-31,181888644,-257
32-32,181892550,-16
32-1,181896461,67
32-2,181900367,7
32-3,181904273,-48
32-4,181908179,-9
32-5,181912085,6
32-6,181915991,28
32-7,181919897,127
32-8,181923803,254
32-9,181927709,313
32-10,181931615,265
32-11,181935521,207
32-12,181939427,208
32-13,181943333,235
32-14,181947239,215
32-15,181951145,197
32-16,181955051,230
32-17,181958957,259
32-18,181962863,209
32-19,181966769,105
32-20,181970675,47
32-21,181974581,49
32-22,181978487,61
32-23,181982393,9
32-24,181986299,-16
32-25,181990205,78
32-26,181994111,122
32-27,181998017,27
32-28,182001923,-129
32-29,182005829,-195
32-30,182009735,-77
32-31,182013641,127
32-32,182017547,273
32-1,182021459,337
32-2,182025365,281
32-3,182029271,137
32-4,182033177,24
32-5,182037083,-67
32-6,182040989,-88
32-7,182044895,-66
32-8,182048801,-61
32-9,182052707,-21
32-10,182056613,57
32-11,182060519,120
32-12,182064425,121
32-13,182068331,94
32-14,182072237,89
32-15,182076143,103
32-16,182080049,95
32-17,182083955,88
32-18,182087861,120
32-19,182091767,160
32-20,182095673,158
32-21,182099579,113
32-22,182103485,108
32-23,182107391,124
32-24,182111297,124
32-25,182115203,121
32-26,182119109,59
32-27,182123015,-56
32-28,182126921,-188
32-29,182130827,-249
32-30,182134733,-139
32-31,182138639,81
32-32,182142545,206
32-1,182146426,142
32-2,182150332,-1
32-3,182154238,-36
32-4,182158144,73
32-5,182162050,106
32-6,182165956,33
32-7,182169862,-36
32-8,182173768,-54
32-9,182177674,-59
32-10,182181580,-98
32-11,182185486,-134
32-12,182189392,-145
32-13,182193298,-139
32-14,182197204,-142
32-15,182201110,-121
32-16,182205016,-50
32-17,182208922,5
32-18,182212828,-37
32-19,182216734,-133
32-20,182220640,-160
32-21,182224546,-94
32-22,182228452,-8
32-23,182232358,-10
32-24,182236264,-29
32-25,182240170,23
32-26,182244076,8
32-27,182247982,-125
32-28,182251888,-318
32-29,182255794,-448
32-30,182259700,-423
32-31,182263606,-325
32-32,182267512,-242
32-1,182271424,-169
32-2,182275330,-158
32-3,182279236,-220
32-4,182283142,-294
32-5,182287048,-391
32-6,182290954,-434
32-7,182294860,-429
32-8,182298766,-427
32-9,182302672,-403
32-10,182306578,-384
32-11,182310484,-395
32-12,182314390,-438
32-13,182318296,-459
32-14,182322202,-422
32-15,182326108,-374
32-16,182330014,-383
32-17,182333920,-431
32-18,182337826,-454
32-19,182341732,-450
32-20,182345638,-455
32-21,182349544,-467
32-22,182353450,-425
32-23,182357356,-358
32-24,182361262,-267
32-25,182365168,-134
32-26,182369074,-47
32-27,182372980,-25
32-28,182376886,-80
32-29,182380792,-127
32-30,182384698,-17
32-31,182388604,230
32-32,182392510,422
32-1,182396421,444
32-2,182400327,345
32-3,182404233,296
32-4,182408139,350
32-5,182412045,327
32-6,182415951,255
32-7,182419857,246
32-8,182423763,309
32-9,182427669,366
32-10,182431575,342
32-11,182435481,282
32-12,182439387,245
32-13,182443293,222
32-14,182447199,177
32-15,182451105,138
32-16,182455011,128
32-17,182458917,121
32-18,182462823,64
32-19,182466729,-29
32-20,182470635,-81
32-21,182474541,-94
32-22,182478447,-109
32-23,182482353,-166
32-24,182486259,-150
32-25,182490165,-3
32-26,182494071,60
32-27,182497977,-41
32-28,182501883,-202
32-29,182505789,-233
32-30,182509695,-54
32-31,182513601,189
32-32,182517507,333
32-1,182521419,361
32-2,182525325,289
32-3,182529231,189
32-4,182533137,151
32-5,182537043,135
32-6,182540949,159
32-7,182544855,173
32-8,182548761,126
32-9,182552667,106
32-10,182556573,122
32-11,182560479,111
32-12,182564385,6
32-13,182568291,-135
32-14,182572197,-226
32-15,182576103,-253
32-16,182580009,-272
32-17,182583915,-281
32-18,182587821,-244
32-19,182591727,-192
32-20,182595633,-166
32-21,182599539,-177
32-22,182603445,-160
32-23,182607351,-133
32-24,182611257,-113
32-25,182615163,-92
32-26,182619069,-147
32-27,182622975,-254
32-28,182626881,-393
32-29,182630787,-482
32-30,182634693,-384
32-31,182638599,-118
32-32,182642505,125
32-1,182646417,213
32-2,182650323,160
32-3,182654229,121
32-4,182658135,165
32-5,182662041,152
32-6,182665947,92
32-7,182669853,86
32-8,182673759,139
32-9,182677665,167
32-10,182681571,99
32-11,182685477,-15
32-12,182689383,-94
32-13,182693289,-122
32-14,182697195,-134
32-15,182701101,-131
32-16,182705007,-96
32-17,182708913,-61
32-18,182712819,-68
32-19,182716725,-101
32-20,182720631,-103
32-21,182724537,-77
32-22,182728443,-65
32-23,182732349,-116
32-24,182736255,-106
32-25,182740161,38
32-26,182744067,98
32-27,182747973,-30
32-28,182751879,-216
32-29,182755785,-246
32-30,182759691,-51
32-31,182763597,183
32-32,182767503,265
32-1,182771414,207
32-2,182775320,84
32-3,182779226,-6
32-4,182783132,-7
32-5,182787038,-4
32-6,182790944,17
32-7,182794850,52
32-8,182798756,69
32-9,182802662,105
32-10,182806568,159
32-11,182810474,194
32-12,182814380,161
32-13,182818286,93
32-14,182822192,30
32-15,182826098,-38
32-16,182830004,-143
32-17,182833910,-232
32-18,182837816,-229
32-19,182841722,-174
32-20,182845628,-172
32-21,182849534,-249
32-22,182853440,-296
32-23,182857346,-285
32-24,182861252,-233
32-25,182865158,-150
32-26,182869064,-151
32-27,182872970,-247
32-28,182876876,-390
32-29,182880782,-464
32-30,182884688,-321
32-31,182888594,-8
32-32,182892500,244
32-1,182896412,283
32-2,182900318,159
32-3,182904224,75
32-4,182908130,134
32-5,182912036,159
32-6,182915942,119
32-7,182919848,92
32-8,182923754,93
32-9,182927660,92
32-10,182931566,60
32-11,182935472,41
32-12,182939378,61
32-13,182943284,84
32-14,182947190,53
32-15,182951096,-1
32-16,182955002,-20
32-17,182958908,-27
32-18,182962814,-90
32-19,182966720,-201
32-20,182970626,-262
32-21,182974532,-251
32-22,182978438,-224
32-23,182982344,-252
32-24,182986250,-250
32-25,182990156,-122
32-26,182994062,-31
32-27,182997968,-91
32-28,183001874,-256
32-29,183005780,-376
32-30,183009686,-328
32-31,183013592,-166
32-32,183017498,-18
32-1,183021410,65
32-2,183025316,55
32-3,183029222,-29
32-4,183033128,-78
32-5,183037034,-82
32-6,183040940,-36
32-7,183044846,-21
32-8,183048752,-107
32-9,183052658,-219
32-10,183056564,-268
32-11,183060470,-247
32-12,183064376,-216
32-13,183068282,-174
32-14,183072188,-104
32-15,183076094,-48
32-16,183080000,-68
32-17,183083906,-147
32-18,183087812,-200
32-19,183091718,-198
32-20,183095624,-175
32-21,183099530,-184
32-22,183103436,-191
32-23,183107342,-209
32-24,183111248,-231
32-25,183115154,-208
32-26,183119060,-210
32-27,183122966,-256
32-28,183126872,-340
32-29,183130778,-398
32-30,183134684,-304
32-31,183138590,-65
32-32,183142496,132
32-1,183146377,163
32-2,183150283,77
32-3,183154189,41
32-4,183158095,136
32-5,183162001,201
32-6,183165907,209
32-7,183169813,249
32-8,183173719,334
32-9,183177625,398
32-10,183181531,394
32-11,183185437,379
32-12,183189343,408
32-13,183193249,465
32-14,183197155,476
32-15,183201061,455
32-16,183204967,450
32-17,183208873,449
32-18,183212779,411
32-19,183216685,341
32-20,183220591,291
32-21,183224497,256
32-22,183228403,200
32-23,183232309,88
32-24,183236215,60
32-25,183240121,183
32-26,183244027,232
32-27,183247933,89
32-28,183251839,-157
32-29,183255745,-295
32-30,183259651,-204
32-31,183263557,-21
32-32,183267463,85
32-1,183271374,108
32-2,183275280,66
32-3,183279186,19
32-4,183283092,21
32-5,183286998,-5
32-6,183290904,-26
32-7,183294810,-47
32-8,183298716,-95
32-9,183302622,-115
32-10,183306528,-106
32-11,183310434,-120
32-12,183314340,-185
32-13,183318246,-241
32-14,183322152,-222
32-15,183326058,-140
32-16,183329964,-78
32-17,183333870,-42
32-18,183337776,26
32-19,183341682,107
32-20,183345588,129
32-21,183349494,91
32-22,183353400,66
32-23,183357306,56
32-24,183361212,76
32-25,183365118,155
32-26,183369024,202
32-27,183372930,175
32-28,183376836,46
32-29,183380742,-112
32-30,183384648,-99
32-31,183388554,118
32-32,183392460,369
32-1,183396372,466
32-2,183400278,370
32-3,183404184,250
32-4,183408090,224
32-5,183411996,176
32-6,183415902,123
32-7,183419808,122
32-8,183423714,149
32-9,183427620,153
32-10,183431526,89
32-11,183435432,26
32-12,183439338,21
32-13,183443244,39
32-14,183447150,8
32-15,183451056,-49
32-16,183454962,-58
32-17,183458868,-21
32-18,183462774,-11
32-19,183466680,-55
32-20,183470586,-89
32-21,183474492,-92
32-22,183478398,-86
32-23,183482304,-125
32-24,183486210,-120
32-25,183490116,27
32-26,183494022,118
32-27,183497928,18
32-28,183501834,-192
32-29,183505740,-303
32-30,183509646,-163
32-31,183513552,121
32-32,183517458,352
32-1,183521370,447
32-2,183525276,399
32-3,183529182,296
32-4,183533088,261
32-5,183536994,243
32-6,183540900,241
32-7,183544806,224
32-8,183548712,164
32-9,183552618,132
32-10,183556524,147
32-11,183560430,175
32-12,183564336,152
32-13,183568242,119
32-14,183572148,137
32-15,183576054,179
32-16,183579960,172
32-17,183583866,120
32-18,183587772,82
32-19,183591678,64
32-20,183595584,26
32-21,183599490,-51
32-22,183603396,-91
32-23,183607302,-92
32-24,183611208,-62
32-25,183615114,-17
32-26,183619020,-59
32-27,183622926,-181
32-28,183626832,-354
32-29,183630738,-474
32-30,183634644,-386
32-31,183638550,-100
32-32,183642456,149
32-1,183646367,171
32-2,183650273,-23
32-3,183654179,-225
32-4,183658085,-288
32-5,183661991,-331
32-6,183665897,-369
32-7,183669803,-362
32-8,183673709,-317
32-9,183677615,-270
32-10,183681521,-261
32-11,183685427,-239
32-12,183689333,-163
32-13,183693239,-74
32-14,183697145,-61
32-15,183701051,-103
32-16,183704957,-132
32-17,183708863,-108
32-18,183712769,-77
32-19,183716675,-68
32-20,183720581,-24
32-21,183724487,39
32-22,183728393,52
32-23,183732299,-49
32-24,183736205,-149
32-25,183740111,-112
32-26,183744017,-83
32-27,183747923,-175
32-28,183751829,-335
32-29,183755735,-400
32-30,183759641,-255
32-31,183763547,2
32-32,183767453,204
32-1,183771365,312
32-2,183775271,316
32-3,183779177,244
32-4,183783083,167
32-5,183786989,76
32-6,183790895,52
32-7,183794801,89
32-8,183798707,108
32-9,183802613,114
32-10,183806519,111
32-11,183810425,78
32-12,183814331,7
32-13,183818237,-48
32-14,183822143,-46
32-15,183826049,-17
32-16,183829955,-24
32-17,183833861,-60
32-18,183837767,-83
32-19,183841673,-95
32-20,183845579,-125
32-21,183849485,-163
32-22,183853391,-122
32-23,183857297,-45
32-24,183861203,12
32-25,183865109,33
32-26,183869015,-26
32-27,183872921,-109
32-28,183876827,-180
32-29,183880733,-224
32-30,183884639,-155
32-31,183888545,19
32-32,183892451,150
32-1,183896362,158
32-2,183900268,67
32-3,183904174,0
32-4,183908080,8
32-5,183911986,-76
32-6,183915892,-239
32-7,183919798,-329
32-8,183923704,-304
32-9,183927610,-247
32-10,183931516,-269
32-11,183935422,-353
32-12,183939328,-418
32-13,183943234,-430
32-14,183947140,-438
32-15,183951046,-444
32-16,183954952,-418
32-17,183958858,-384
32-18,183962764,-382
32-19,183966670,-410
32-20,183970576,-414
32-21,183974482,-387
32-22,183978388,-349
32-23,183982294,-345
32-24,183986200,-292
32-25,183990106,-144
32-26,183994012,-114
32-27,183997918,-271
32-28,184001824,-489
32-29,184005730,-558
32-30,184009636,-366
32-31,184013542,-64
32-32,184017448,159
32-1,184021360,274
32-2,184025266,284
32-3,184029172,236
32-4,184033078,204
32-5,184036984,171
32-6,184040890,186
32-7,184044796,192
32-8,184048702,109
32-9,184052608,-6
32-10,184056514,-101
32-11,184060420,-153
32-12,184064326,-196
32-13,184068232,-215
32-14,184072138,-177
32-15,184076044,-120
32-16,184079950,-95
32-17,184083856,-86
32-18,184087762,-46
32-19,184091668,5
32-20,184095574,-6
32-21,184099480,-103
32-22,184103386,-173
32-23,184107292,-184
32-24,184111198,-131
32-25,184115104,-28
32-26,184119010,-1
32-27,184122916,-79
32-28,184126822,-220
32-29,184130728,-309
32-30,184134634,-191
32-31,184138540,121
32-32,184142446,415
32-1,184146327,516
32-2,184150233,413
32-3,184154139,280
32-4,184158045,252
32-5,184161951,213
32-6,184165857,154
32-7,184169763,151
32-8,184173669,200
32-9,184177575,231
32-10,184181481,180
32-11,184185387,102
32-12,184189293,74
32-13,184193199,94
32-14,184197105,105
32-15,184201011,106
32-16,184204917,114
32-17,184208823,126
32-18,184212729,115
32-19,184216635,96
32-20,184220541,130
32-21,184224447,188
32-22,184228353,201
32-23,184232259,118
32-24,184236165,82
32-25,184240071,179
32-26,184243977,199
32-27,184247883,50
32-28,184251789,-135
32-29,184255695,-115
32-30,184259601,172
32-31,184263507,488
32-32,184267413,621
32-1,184271325,606
32-2,184275231,543
32-3,184279137,517
32-4,184283043,538
32-5,184286949,515
32-6,184290855,500
32-7,184294761,483
32-8,184298667,411
32-9,184302573,325
32-10,184306479,248
32-11,184310385,179
32-12,184314291,91
32-13,184318197,10
32-14,184322103,-21
32-15,184326009,-10
32-16,184329915,-9
32-17,184333821,-13
32-18,184337727,42
32-19,184341633,144
32-20,184345539,203
32-21,184349445,167
32-22,184353351,123
32-23,184357257,105
32-24,184361163,123
32-25,184365069,151
32-26,184368975,79
32-27,184372881,-81
32-28,184376787,-282
32-29,184380693,-400
32-30,184384599,-316
32-31,184388505,-97
32-32,184392411,38
32-1,184396322,-47
32-2,184400228,-284
32-3,184404134,-425
32-4,184408040,-359
32-5,184411946,-297
32-6,184415852,-333
32-7,184419758,-413
32-8,184423664,-455
32-9,184427570,-447
32-10,184431476,-440
32-11,184435382,-404
32-12,184439288,-318
32-13,184443194,-223
32-14,184447100,-183
32-15,184451006,-199
32-16,184454912,-211
32-17,184458818,-190
32-18,184462724,-178
32-19,184466630,-191
32-20,184470536,-173
32-21,184474442,-117
32-22,184478348,-51
32-23,184482254,-50
32-24,184486160,-35
32-25,184490066,54
32-26,184493972,41
32-27,184497878,-132
32-28,184501784,-340
32-29,184505690,-376
32-30,184509596,-156
32-31,184513502,138
32-32,184517408,291
32-1,184521320,313
32-2,184525226,258
32-3,184529132,186
32-4,184533038,130
32-5,184536944,26
32-6,184540850,-60
32-7,184544756,-114
32-8,184548662,-171
32-9,184552568,-196
32-10,184556474,-191
32-11,184560380,-199
32-12,184564286,-254
32-13,184568192,-303
32-14,184572098,-279
32-15,184576004,-207
32-16,184579910,-186
32-17,184583816,-243
32-18,184587722,-297
32-19,184591628,-298
32-20,184595534,-283
32-21,184599440,-288
32-22,184603346,-267
32-23,184607252,-237
32-24,184611158,-183
32-25,184615064,-93
32-26,184618970,-58
32-27,184622876,-95
32-28,184626782,-205
32-29,184630688,-308
32-30,184634594,-241
32-31,184638500,18
32-32,184642406,291
32-1,184646318,394
32-2,184650224,305
32-3,184654130,214
32-4,184658036,256
32-5,184661942,256
32-6,184665848,155
32-7,184669754,57
32-8,184673660,56
32-9,184677566,157
32-10,184681472,255
32-11,184685378,289
32-12,184689284,266
32-13,184693190,224
32-14,184697096,166
32-15,184701002,137
32-16,184704908,162
32-17,184708814,205
32-18,184712720,192
32-19,184716626,112
32-20,184720532,46
32-21,184724438,22
32-22,184728344,18
32-23,184732250,-34
32-24,184736156,-41
32-25,184740062,75
32-26,184743968,107
32-27,184747874,-49
32-28,184751780,-278
32-29,184755686,-355
32-30,184759592,-155
32-31,184763498,151
32-32,184767404,327
32-1,184771315,353
32-2,184775221,290
32-3,184779127,222
32-4,184783033,209
32-5,184786939,179
32-6,184790845,151
32-7,184794751,114
32-8,184798657,21
32-9,184802563,-70
32-10,184806469,-127
32-11,184810375,-148
32-12,184814281,-164
32-13,184818187,-151
32-14,184822093,-75
32-15,184825999,-6
32-16,184829905,-42
32-17,184833811,-159
32-18,184837717,-236
32-19,184841623,-216
32-20,184845529,-157
32-21,184849435,-145
32-22,184853341,-129
32-23,184857247,-107
32-24,184861153,-101
32-25,184865059,-110
32-26,184868965,-186
32-27,184872871,-293
32-28,184876777,-388
32-29,184880683,-434
32-30,184884589,-352
32-31,184888495,-162
32-32,184892401,6
32-1,184896313,51
32-2,184900219,-18
32-3,184904125,-62
32-4,184908031,4
32-5,184911937,49
32-6,184915843,27
32-7,184919749,-19
32-8,184923655,-59
32-9,184927561,-102
32-10,184931467,-183
32-11,184935373,-240
32-12,184939279,-213
32-13,184943185,-143
32-14,184947091,-131
32-15,184950997,-172
32-16,184954903,-191
32-17,184958809,-164
32-18,184962715,-135
32-19,184966621,-140
32-20,184970527,-132
32-21,184974433,-106
32-22,184978339,-87
32-23,184982245,-136
32-24,184986151,-170
32-25,184990057,-96
32-26,184993963,-72
32-27,184997869,-211
32-28,185001775,-447
32-29,185005681,-569
32-30,185009587,-454
32-31,185013493,-238
32-32,185017399,-134
32-1,185021311,-170
32-2,185025217,-299
32-3,185029123,-435
32-4,185033029,-478
32-5,185036935,-459
32-6,185040841,-365
32-7,185044747,-243
32-8,185048653,-191
32-9,185052559,-188
32-10,185056465,-191
32-11,185060371,-190
32-12,185064277,-219
32-13,185068183,-256
32-14,185072089,-261
32-15,185075995,-233
32-16,185079901,-241
32-17,185083807,-296
32-18,185087713,-309
32-19,185091619,-247
32-20,185095525,-178
32-21,185099431,-193
32-22,185103337,-246
32-23,185107243,-298
32-24,185111149,-305
32-25,185115055,-243
32-26,185118961,-223
32-27,185122867,-296
32-28,185126773,-461
32-29,185130679,-632
32-30,185134585,-653
32-31,185138491,-478
32-32,185142397,-254
32-1,185146278,-155
32-2,185150184,-206
32-3,185154090,-231
32-4,185157996,-100
32-5,185161902,27
32-6,185165808,45
32-7,185169714,7
32-8,185173620,-14
32-9,185177526,-18
32-10,185181432,-70
32-11,185185338,-152
32-12,185189244,-221
32-13,185193150,-255
32-14,185197056,-278
32-15,185200962,-287
32-16,185204868,-262
32-17,185208774,-213
32-18,185212680,-172
32-19,185216586,-147
32-20,185220492,-77
32-21,185224398,36
32-22,185228304,136
32-23,185232210,138
32-24,185236116,105
32-25,185240022,133
32-26,185243928,79
32-27,185247834,-140
32-28,185251740,-426
32-29,185255646,-558
32-30,185259552,-412
32-31,185263458,-118
32-32,185267364,106
32-1,185271275,203
32-2,185275181,187
32-3,185279087,115
32-4,185282993,89
32-5,185286899,104
32-6,185290805,191
32-7,185294711,265
32-8,185298617,212
32-9,185302523,93
32-10,185306429,17
32-11,185310335,13
32-12,185314241,13
32-13,185318147,13
32-14,185322053,54
32-15,185325959,131
32-16,185329865,185
32-17,185333771,184
32-18,185337677,171
32-19,185341583,174
32-20,185345489,186
32-21,185349395,194
32-22,185353301,216
32-23,185357207,203
32-24,185361113,144
32-25,185365019,71
32-26,185368925,-57
32-27,185372831,-192
32-28,185376737,-307
32-29,185380643,-362
32-30,185384549,-274
32-31,185388455,-38
32-32,185392361,185
32-1,185396273,236
32-2,185400179,122
32-3,185404085,40
32-4,185407991,123
32-5,185411897,216
32-6,185415803,242
32-7,185419709,256
32-8,185423615,299
32-9,185427521,334
32-10,185431427,290
32-11,185435333,205
32-12,185439239,164
32-13,185443145,202
32-14,185447051,255
32-15,185450957,283
32-16,185454863,302
32-17,185458769,325
32-18,185462675,320
32-19,185466581,284
32-20,185470487,278
32-21,185474393,305
32-22,185478299,321
32-23,185482205,239
32-24,185486111,160
32-25,185490017,224
32-26,185493923,260
32-27,185497829,131
32-28,185501735,-118
32-29,185505641,-291
32-30,185509547,-234
32-31,185513453,-59
32-32,185517359,37
32-1,185521271,33
32-2,185525177,-31
32-3,185529083,-81
32-4,185532989,-63
32-5,185536895,-56
32-6,185540801,-44
32-7,185544707,-40
32-8,185548613,-91
32-9,185552519,-143
32-10,185556425,-157
32-11,185560331,-153
32-12,185564237,-214
32-13,185568143,-315
32-14,185572049,-357
32-15,185575955,-320
32-16,185579861,-279
32-17,185583767,-301
32-18,185587673,-343
32-19,185591579,-343
32-20,185595485,-309
32-21,185599391,-285
32-22,185603297,-236
32-23,185607203,-195
32-24,185611109,-155
32-25,185615015,-104
32-26,185618921,-133
32-27,185622827,-217
32-28,185626733,-316
32-29,185630639,-371
32-30,185634545,-265
32-31,185638451,-16
32-32,185642357,204
32-1,185646268,260
32-2,185650174,152
32-3,185654080,54
32-4,185657986,92
32-5,185661892,124
32-6,185665798,115
32-7,185669704,119
32-8,185673610,164
32-9,185677516,226
32-10,185681422,236
32-11,185685328,212
32-12,185689234,213
32-13,185693140,242
32-14,185697046,240
32-15,185700952,200
32-16,185704858,167
32-17,185708764,154
32-18,185712670,131
32-19,185716576,77
32-20,185720482,36
32-21,185724388,3
32-22,185728294,-68
32-23,185732200,-231
32-24,185736106,-343
32-25,185740012,-278
32-26,185743918,-225
32-27,185747824,-321
32-28,185751730,-501
32-29,185755636,-555
32-30,185759542,-354
32-31,185763448,-52
32-32,185767354,128
32-1,185771266,169
32-2,185775172,111
32-3,185779078,24
32-4,185782984,-36
32-5,185786890,-108
32-6,185790796,-112
32-7,185794702,-57
32-8,185798608,-61
32-9,185802514,-113
32-10,185806420,-156
32-11,185810326,-175
32-12,185814232,-208
32-13,185818138,-250
32-14,185822044,-250
32-15,185825950,-197
32-16,185829856,-153
32-17,185833762,-161
32-18,185837668,-173
32-19,185841574,-152
32-20,185845480,-126
32-21,185849386,-135
32-22,185853292,-137
32-23,185857198,-121
32-24,185861104,-42
32-25,185865010,76
32-26,185868916,96
32-27,185872822,37
32-28,185876728,-41
32-29,185880634,-40
32-30,185884540,134
32-31,185888446,406
32-32,185892352,584
32-1,185896264,572
32-2,185900170,434
32-3,185904076,372
32-4,185907982,451
32-5,185911888,489
32-6,185915794,450
32-7,185919700,383
32-8,185923606,318
32-9,185927512,232
32-10,185931418,82
32-11,185935324,-52
32-12,185939230,-79
32-13,185943136,-23
32-14,185947042,4
32-15,185950948,-37
32-16,185954854,-71
32-17,185958760,-50
32-18,185962666,-47
32-19,185966572,-94
32-20,185970478,-123
32-21,185974384,-101
32-22,185978290,-32
32-23,185982196,-5
32-24,185986102,38
32-25,185990008,178
32-26,185993914,231
32-27,185997820,104
32-28,186001726,-83
32-29,186005632,-99
32-30,186009538,170
32-31,186013444,517
32-32,186017350,676
32-1,186021261,652
32-2,186025167,536
32-3,186029073,452
32-4,186032979,455
32-5,186036885,439
32-6,186040791,416
32-7,186044697,358
32-8,186048603,198
32-9,186052509,23
32-10,186056415,-69
32-11,186060321,-64
32-12,186064227,-44
32-13,186068133,-50
32-14,186072039,-50
32-15,186075945,-27
32-16,186079851,-49
32-17,186083757,-128
32-18,186087663,-192
32-19,186091569,-210
32-20,186095475,-196
32-21,186099381,-208
32-22,186103287,-213
32-23,186107193,-219
32-24,186111099,-212
32-25,186115005,-188
32-26,186118911,-247
32-27,186122817,-369
32-28,186126723,-516
32-29,186130629,-616
32-30,186134535,-542
32-31,186138441,-292
32-32,186142347,-36
32-1,186146228,70
32-2,186150134,-14
32-3,186154040,-116
32-4,186157946,-78
32-5,186161852,-35
32-6,186165758,-35
32-7,186169664,-33
32-8,186173570,-1
32-9,186177476,67
32-10,186181382,99
32-11,186185288,94
32-12,186189194,95
32-13,186193100,97
32-14,186197006,63
32-15,186200912,-4
32-16,186204818,-61
32-17,186208724,-89
32-18,186212630,-135
32-19,186216536,-225
32-20,186220442,-280
32-21,186224348,-272
32-22,186228254,-230
32-23,186232160,-242
32-24,186236066,-258
32-25,186239972,-189
32-26,186243878,-193
32-27,186247784,-348
32-28,186251690,-559
32-29,186255596,-631
32-30,186259502,-456
32-31,186263408,-179
32-32,186267314,-10
32-1,186271226,49
32-2,186275132,52
32-3,186279038,46
32-4,186282944,67
32-5,186286850,51
32-6,186290756,61
32-7,186294662,100
32-8,186298568,88
32-9,186302474,63
32-10,186306380,76
32-11,186310286,116
32-12,186314192,125
32-13,186318098,86
32-14,186322004,39
32-15,186325910,7
32-16,186329816,-59
32-17,186333722,-154
32-18,186337628,-191
32-19,186341534,-145
32-20,186345440,-69
32-21,186349346,-45
32-22,186353252,-30
32-23,186357158,6
32-24,186361064,63
32-25,186364970,116
32-26,186368876,62
32-27,186372782,-91
32-28,186376688,-283
32-29,186380594,-413
32-30,186384500,-350
32-31,186388406,-86
32-32,186392312,187
32-1,186396224,292
32-2,186400130,178
32-3,186404036,24
32-4,186407942,3
32-5,186411848,24
32-6,186415754,30
32-7,186419660,34
32-8,186423566,57
32-9,186427472,89
32-10,186431378,72
32-11,186435284,31
32-12,186439190,36
32-13,186443096,79
32-14,186447002,96
32-15,186450908,70
32-16,186454814,67
32-17,186458720,115
32-18,186462626,141
32-19,186466532,80
32-20,186470438,-22
32-21,186474344,-111
32-22,186478250,-170
32-23,186482156,-270
32-24,186486062,-329
32-25,186489968,-237
32-26,186493874,-157
32-27,186497780,-210
32-28,186501686,-362
32-29,186505592,-437
32-30,186509498,-282
32-31,186513404,-33
32-32,186517310,104
32-1,186521221,131
32-2,186525127,125
32-3,186529033,167
32-4,186532939,263
32-5,186536845,290
32-6,186540751,281
32-7,186544657,273
32-8,186548563,235
32-9,186552469,210
32-10,186556375,219
32-11,186560281,236
32-12,186564187,201
32-13,186568093,104
32-14,186571999,21
32-15,186575905,-4
32-16,186579811,-40
32-17,186583717,-129
32-18,186587623,-221
32-19,186591529,-264
32-20,186595435,-270
32-21,186599341,-306
32-22,186603247,-336
32-23,186607153,-337
32-24,186611059,-273
32-25,186614965,-153
32-26,186618871,-128
32-27,186622777,-216
32-28,186626683,-358
32-29,186630589,-449
32-30,186634495,-365
32-31,186638401,-115
32-32,186642307,116
32-1,186646219,179
32-2,186650125,73
32-3,186654031,-26
32-4,186657937,16
32-5,186661843,87
32-6,186665749,135
32-7,186669655,189
32-8,186673561,252
32-9,186677467,285
32-10,186681373,225
32-11,186685279,136
32-12,186689185,107
32-13,186693091,167
32-14,186696997,228
32-15,186700903,229
32-16,186704809,210
32-17,186708715,195
32-18,186712621,164
32-19,186716527,105
32-20,186720433,66
32-21,186724339,58
32-22,186728245,44
32-23,186732151,-72
32-24,186736057,-195
32-25,186739963,-190
32-26,186743869,-187
32-27,186747775,-286
32-28,186751681,-433
32-29,186755587,-441
32-30,186759493,-217
32-31,186763399,57
32-32,186767305,184
32-1,186771216,181
32-2,186775122,129
32-3,186779028,111
32-4,186782934,136
32-5,186786840,124
32-6,186790746,129
32-7,186794652,143
32-8,186798558,87
32-9,186802464,-11
32-10,186806370,-74
32-11,186810276,-70
32-12,186814182,-58
32-13,186818088,-69
32-14,186821994,-80
32-15,186825900,-72
32-16,186829806,-68
32-17,186833712,-69
32-18,186837618,-33
32-19,186841524,32
32-20,186845430,60
32-21,186849336,3
32-22,186853242,-60
32-23,186857148,-94
32-24,186861054,-68
32-25,186864960,-11
32-26,186868866,-25
32-27,186872772,-72
32-28,186876678,-104
32-29,186880584,-94
32-30,186884490,15
32-31,186888396,217
32-32,186892302,386
32-1,186896214,424
32-2,186900120,294
32-3,186904026,152
32-4,186907932,134
32-5,186911838,120
32-6,186915744,66
32-7,186919650,24
32-8,186923556,38
32-9,186927462,101
32-10,186931368,136
32-11,186935274,135
32-12,186939180,153
32-13,186943086,198
32-14,186946992,194
32-15,186950898,112
32-16,186954804,6
32-17,186958710,-61
32-18,186962616,-98
32-19,186966522,-148
32-20,186970428,-182
32-21,186974334,-180
32-22,186978240,-151
32-23,186982146,-165
32-24,186986052,-173
32-25,186989958,-76
32-26,186993864,-23
32-27,186997770,-140
32-28,187001676,-402
32-29,187005582,-603
32-30,187009488,-562
32-31,187013394,-366
32-32,187017300,-209
32-1,187021212,-141
32-2,187025118,-145
32-3,187029024,-161
32-4,187032930,-148
32-5,187036836,-155
32-6,187040742,-133
32-7,187044648,-89
32-8,187048554,-100
32-9,187052460,-144
32-10,187056366,-148
32-11,187060272,-101
32-12,187064178,-96
32-13,187068084,-176
32-14,187071990,-283
32-15,187075896,-351
32-16,187079802,-402
32-17,187083708,-464
32-18,187087614,-485
32-19,187091520,-427
32-20,187095426,-335
32-21,187099332,-279
32-22,187103238,-238
32-23,187107144,-211
32-24,187111050,-174
32-25,187114956,-138
32-26,187118862,-233
32-27,187122768,-425
32-28,187126674,-634
32-29,187130580,-753
32-30,187134486,-675
32-31,187138392,-429
32-32,187142298,-180
32-1,187146179,-51
32-2,187150085,-76
32-3,187153991,-105
32-4,187157897,-18
32-5,187161803,55
32-6,187165709,66
32-7,187169615,61
32-8,187173521,71
32-9,187177427,98
32-10,187181333,78
32-11,187185239,30
32-12,187189145,36
32-13,187193051,102
32-14,187196957,128
32-15,187200863,75
32-16,187204769,30
32-17,187208675,58
32-18,187212581,119
32-19,187216487,142
32-20,187220393,138
32-21,187224299,140
32-22,187228205,162
32-23,187232111,137
32-24,187236017,144
32-25,187239923,271
32-26,187243829,339
32-27,187247735,218
32-28,187251641,-47
32-29,187255547,-234
32-30,187259453,-159
32-31,187263359,78
32-32,187267265,244
32-1,187271176,299
32-2,187275082,279
32-3,187278988,240
32-4,187282894,213
32-5,187286800,152
32-6,187290706,139
32-7,187294612,196
32-8,187298518,228
32-9,187302424,201
32-10,187306330,143
32-11,187310236,91
32-12,187314142,19
32-13,187318048,-45
32-14,187321954,-50
32-15,187325860,2
32-16,187329766,42
32-17,187333672,19
32-18,187337578,-25
32-19,187341484,-39
32-20,187345390,-22
32-21,187349296,-12
32-22,187353202,37
32-23,187357108,122
32-24,187361014,222
32-25,187364920,285
32-26,187368826,215
32-27,187372732,75
32-28,187376638,-44
32-29,187380544,-78
32-30,187384450,24
32-31,187388356,235
32-32,187392262,406
32-1,187396174,423
32-2,187400080,283
32-3,187403986,150
32-4,187407892,156
32-5,187411798,160
32-6,187415704,94
32-7,187419610,5
32-8,187423516,-50
32-9,187427422,-50
32-10,187431328,-60
32-11,187435234,-85
32-12,187439140,-69
32-13,187443046,-9
32-14,187446952,23
32-15,187450858,-2
32-16,187454764,-40
32-17,187458670,-45
32-18,187462576,-35
32-19,187466482,-66
32-20,187470388,-99
32-21,187474294,-106
32-22,187478200,-101
32-23,187482106,-164
32-24,187486012,-228
32-25,187489918,-183
32-26,187493824,-176
32-27,187497730,-326
32-28,187501636,-586
32-29,187505542,-723
32-30,187509448,-581
32-31,187513354,-311
32-32,187517260,-168
32-1,187521172,-196
32-2,187525078,-304
32-3,187528984,-369
32-4,187532890,-346
32-5,187536796,-331
32-6,187540702,-300
32-7,187544608,-262
32-8,187548514,-273
32-9,187552420,-301
32-10,187556326,-291
32-11,187560232,-233
32-12,187564138,-220
32-13,187568044,-266
32-14,187571950,-284
32-15,187575856,-209
32-16,187579762,-87
32-17,187583668,-12
32-18,187587574,23
32-19,187591480,51
32-20,187595386,68
32-21,187599292,28
32-22,187603198,-26
32-23,187607104,-88
32-24,187611010,-102
32-25,187614916,-72
32-26,187618822,-142
32-27,187622728,-300
32-28,187626634,-466
32-29,187630540,-525
32-30,187634446,-366
32-31,187638352,-34
32-32,187642258,271
32-1,187646169,400
32-2,187650075,320
32-3,187653981,205
32-4,187657887,211
32-5,187661793,207
32-6,187665699,131
32-7,187669605,30
32-8,187673511,-36
32-9,187677417,-47
32-10,187681323,-73
32-11,187685229,-123
32-12,187689135,-131
32-13,187693041,-73
32-14,187696947,-14
32-15,187700853,2
32-16,187704759,-11
32-17,187708665,-10
32-18,187712571,-2
32-19,187716477,-16
32-20,187720383,-14
32-21,187724289,20
32-22,187728195,69
32-23,187732101,42
32-24,187736007,27
32-25,187739913,133
32-26,187743819,212
32-27,187747725,155
32-28,187751631,-8
32-29,187755537,-86
32-30,187759443,65
32-31,187763349,289
32-32,187767255,357
32-1,187771167,276
32-2,187775073,160
32-3,187778979,139
32-4,187782885,210
32-5,187786791,220
32-6,187790697,202
32-7,187794603,171
32-8,187798509,93
32-9,187802415,26
32-10,187806321,14
32-11,187810227,57
32-12,187814133,77
32-13,187818039,33
32-14,187821945,-22
32-15,187825851,-34
32-16,187829757,-40
32-17,187833663,-85
32-18,187837569,-128
32-19,187841475,-124
32-20,187845381,-76
32-21,187849287,-57
32-22,187853193,-68
32-23,187857099,-104
32-24,187861005,-107
32-25,187864911,-61
32-26,187868817,-88
32-27,187872723,-193
32-28,187876629,-337
32-29,187880535,-425
32-30,187884441,-342
32-31,187888347,-118
32-32,187892253,71
32-1,187896165,76
32-2,187900071,-127
32-3,187903977,-325
32-4,187907883,-325
32-5,187911789,-258
32-6,187915695,-228
32-7,187919601,-262
32-8,187923507,-322
32-9,187927413,-339
32-10,187931319,-337
32-11,187935225,-309
32-12,187939131,-232
32-13,187943037,-138
32-14,187946943,-95
32-15,187950849,-116
32-16,187954755,-148
32-17,187958661,-135
32-18,187962567,-116
32-19,187966473,-158
32-20,187970379,-206
32-21,187974285,-188
32-22,187978191,-92
32-23,187982097,-34
32-24,187986003,11
32-25,187989909,115
32-26,187993815,133
32-27,187997721,16
32-28,188001627,-136
32-29,188005533,-118
32-30,188009439,154
32-31,188013345,478
32-32,188017251,593
32-1,188021162,516
32-2,188025068,372
32-3,188028974,270
32-4,188032880,207
32-5,188036786,71
32-6,188040692,-37
32-7,188044598,-59
32-8,188048504,-62
32-9,188052410,-65
32-10,188056316,-66
32-11,188060222,-82
32-12,188064128,-159
32-13,188068034,-271
32-14,188071940,-333
32-15,188075846,-301
32-16,188079752,-248
32-17,188083658,-256
32-18,188087564,-281
32-19,188091470,-248
32-20,188095376,-162
32-21,188099282,-105
32-22,188103188,-75
32-23,188107094,-71
32-24,188111000,-36
32-25,188114906,43
32-26,188118812,44
32-27,188122718,-27
32-28,188126624,-139
32-29,188130530,-222
32-30,188134436,-185
32-31,188138342,-39
32-32,188142248,82
32-1,188146160,70
32-2,188150066,-94
32-3,188153972,-231
32-4,188157878,-186
32-5,188161784,-93
32-6,188165690,-45
32-7,188169596,-36
32-8,188173502,-15
32-9,188177408,37
32-10,188181314,63
32-11,188185220,65
32-12,188189126,72
32-13,188193032,113
32-14,188196938,146
32-15,188200844,158
32-16,188204750,191
32-17,188208656,247
32-18,188212562,268
32-19,188216468,203
32-20,188220374,125
32-21,188224280,116
32-22,188228186,170
32-23,188232092,141
32-24,188235998,61
32-25,188239904,54
32-26,188243810,19
32-27,188247716,-106
32-28,188251622,-299
32-29,188255528,-410
32-30,188259434,-317
32-31,188263340,-155
32-32,188267246,-100
32-1,188271127,-133
32-2,188275033,-176
32-3,188278939,-172
32-4,188282845,-145
32-5,188286751,-201
32-6,188290657,-242
32-7,188294563,-224
32-8,188298469,-217
32-9,188302375,-224
32-10,188306281,-239
32-11,188310187,-246
32-12,188314093,-254
32-13,188317999,-252
32-14,188321905,-179
32-15,188325811,-39
32-16,188329717,78
32-17,188333623,97
32-18,188337529,52
32-19,188341435,23
32-20,188345341,19
32-21,188349247,-23
32-22,188353153,-65
32-23,188357059,-70
32-24,188360965,-19
32-25,188364871,55
32-26,188368777,4
32-27,188372683,-134
32-28,188376589,-267
32-29,188380495,-315
32-30,188384401,-205
32-31,188388307,14
32-32,188392213,191
32-1,188396125,226
32-2,188400031,117
32-3,188403937,24
32-4,188407843,82
32-5,188411749,142
32-6,188415655,112
32-7,188419561,42
32-8,188423467,28
32-9,188427373,106
32-10,188431279,183
32-11,188435185,196
32-12,188439091,175
32-13,188442997,176
32-14,188446903,185
32-15,188450809,181
32-16,188454715,178
32-17,188458621,193
32-18,188462527,207
32-19,188466433,174
32-20,188470339,132
32-21,188474245,124
32-22,188478151,139
32-23,188482057,75
32-24,188485963,-17
32-25,188489869,-13
32-26,188493775,-26
32-27,188497681,-154
32-28,188501587,-365
32-29,188505493,-487
32-30,188509399,-379
32-31,188513305,-139
32-32,188517211,36
32-1,188521122,116
32-2,188525028,143
32-3,188528934,165
32-4,188532840,188
32-5,188536746,149
32-6,188540652,142
32-7,188544558,208
32-8,188548464,271
32-9,188552370,295
32-10,188556276,308
32-11,188560182,332
32-12,188564088,321
32-13,188567994,273
32-14,188571900,241
32-15,188575806,240
32-16,188579712,232
32-17,188583618,166
32-18,188587524,93
32-19,188591430,87
32-20,188595336,96
32-21,188599242,12
32-22,188603148,-128
32-23,188607054,-257
32-24,188610960,-276
32-25,188614866,-183
32-26,188618772,-163
32-27,188622678,-239
32-28,188626584,-365
32-29,188630490,-458
32-30,188634396,-398
32-31,188638302,-190
32-32,188642208,39
32-1,188646120,168
32-2,188650026,114
32-3,188653932,12
32-4,188657838,37
32-5,188661744,109
32-6,188665650,170
32-7,188669556,195
32-8,188673462,184
32-9,188677368,177
32-10,188681274,153
32-11,188685180,128
32-12,188689086,145
32-13,188692992,193
32-14,188696898,216
32-15,188700804,180
32-16,188704710,123
32-17,188708616,108
32-18,188712522,111
32-19,188716428,60
32-20,188720334,-22
32-21,188724240,-84
32-22,188728146,-108
32-23,188732052,-172
32-24,188735958,-222
32-25,188739864,-126
32-26,188743770,-32
32-27,188747676,-93
32-28,188751582,-310
32-29,188755488,-501
32-30,188759394,-453
32-31,188763300,-218
32-32,188767206,-12
32-1,188771118,97
32-2,188775024,125
32-3,188778930,133
32-4,188782836,149
32-5,188786742,97
32-6,188790648,63
32-7,188794554,84
32-8,188798460,65
32-9,188802366,-5
32-10,188806272,-74
32-11,188810178,-98
32-12,188814084,-98
32-13,188817990,-118
32-14,188821896,-147
32-15,188825802,-158
32-16,188829708,-186
32-17,188833614,-241
32-18,188837520,-276
32-19,188841426,-248
32-20,188845332,-184
32-21,188849238,-195
32-22,188853144,-261
32-23,188857050,-297
32-24,188860956,-207
32-25,188864862,-17
32-26,188868768,68
32-27,188872674,11
32-28,188876580,-111
32-29,188880486,-170
32-30,188884392,-56
32-31,188888298,197
32-32,188892204,407
32-1,188896115,446
32-2,188900021,302
32-3,188903927,148
32-4,188907833,137
32-5,188911739,152
32-6,188915645,124
32-7,188919551,63
32-8,188923457,16
32-9,188927363,11
32-10,188931269,-13
32-11,188935175,-65
32-12,188939081,-80
32-13,188942987,-24
32-14,188946893,42
32-15,188950799,45
32-16,188954705,-8
32-17,188958611,-58
32-18,188962517,-87
32-19,188966423,-122
32-20,188970329,-133
32-21,188974235,-103
32-22,188978141,-50
32-23,188982047,-71
32-24,188985953,-115
32-25,188989859,-68
32-26,188993765,-50
32-27,188997671,-166
32-28,189001577,-387
32-29,189005483,-507
32-30,189009389,-356
32-31,189013295,-67
32-32,189017201,97
32-1,189021113,99
32-2,189025019,28
32-3,189028925,9
32-4,189032831,47
32-5,189036737,28
32-6,189040643,6
32-7,189044549,14
32-8,189048455,-9
32-9,189052361,-68
32-10,189056267,-138
32-11,189060173,-186
32-12,189064079,-243
32-13,189067985,-328
32-14,189071891,-376
32-15,189075797,-351
32-16,189079703,-324
32-17,189083609,-373
32-18,189087515,-478
32-19,189091421,-538
32-20,189095327,-516
32-21,189099233,-485
32-22,189103139,-462
32-23,189107045,-455
32-24,189110951,-415
32-25,189114857,-325
32-26,189118763,-329
32-27,189122669,-431
32-28,189126575,-548
32-29,189130481,-610
32-30,189134387,-549
32-31,189138293,-352
32-32,189142199,-114
32-1,189146110,74
32-2,189150016,138
32-3,189153922,141
32-4,189157828,191
32-5,189161734,210
32-6,189165640,183
32-7,189169546,160
32-8,189173452,178
32-9,189177358,236
32-10,189181264,273
32-11,189185170,251
32-12,189189076,215
32-13,189192982,210
32-14,189196888,173
32-15,189200794,46
32-16,189204700,-122
32-17,189208606,-233
32-18,189212512,-254
32-19,189216418,-236
32-20,189220324,-196
32-21,189224230,-131
32-22,189228136,-42
32-23,189232042,-19
32-24,189235948,-14
32-25,189239854,58
32-26,189243760,76
32-27,189247666,-35
32-28,189251572,-236
32-29,189255478,-335
32-30,189259384,-172
32-31,189263290,140
32-32,189267196,353
32-1,189271078,397
32-2,189274984,323
32-3,189278890,246
32-4,189282796,225
32-5,189286702,184
32-6,189290608,180
32-7,189294514,226
32-8,189298420,254
32-9,189302326,243
32-10,189306232,208
32-11,189310138,163
32-12,189314044,71
32-13,189317950,-45
32-14,189321856,-99
32-15,189325762,-52
32-16,189329668,25
32-17,189333574,26
32-18,189337480,-16
32-19,189341386,12
32-20,189345292,117
32-21,189349198,216
32-22,189353104,284
32-23,189357010,297
32-24,189360916,333
32-25,189364822,407
32-26,189368728,378
32-27,189372634,261
32-28,189376540,121
32-29,189380446,68
32-30,189384352,194
32-31,189388258,443
32-32,189392164,645
32-1,189396075,678
32-2,189399981,516
32-3,189403887,348
32-4,189407793,349
32-5,189411699,405
32-6,189415605,429
32-7,189419511,398
32-8,189423417,346
32-9,189427323,305
32-10,189431229,238
32-11,189435135,137
32-12,189439041,56
32-13,189442947,44
32-14,189446853,52
32-15,189450759,21
32-16,189454665,-31
32-17,189458571,-56
32-18,189462477,-65
32-19,189466383,-123
32-20,189470289,-210
32-21,189474195,-246
32-22,189478101,-193
32-23,189482007,-164
32-24,189485913,-148
32-25,189489819,-93
32-26,189493725,-134
32-27,189497631,-288
32-28,189501537,-474
32-29,189505443,-506
32-30,189509349,-281
32-31,189513255,20
32-32,189517161,159
32-1,189521073,116
32-2,189524979,-6
32-3,189528885,-67
32-4,189532791,-61
32-5,189536697,-106
32-6,189540603,-113
32-7,189544509,-47
32-8,189548415,5
32-9,189552321,20
32-10,189556227,35
32-11,189560133,78
32-12,189564039,68
32-13,189567945,-50
32-14,189571851,-220
32-15,189575757,-344
32-16,189579663,-388
32-17,189583569,-397
32-18,189587475,-390
32-19,189591381,-366
32-20,189595287,-361
32-21,189599193,-418
32-22,189603099,-488
32-23,189607005,-536
32-24,189610911,-485
32-25,189614817,-382
32-26,189618723,-410
32-27,189622629,-522
32-28,189626535,-605
32-29,189630441,-554
32-30,189634347,-318
32-31,189638253,4
32-32,189642159,239
32-1,189646070,303
32-2,189649976,187
32-3,189653882,67
32-4,189657788,76
32-5,189661694,92
32-6,189665600,68
32-7,189669506,19
32-8,189673412,-17
32-9,189677318,-18
32-10,189681224,-38
32-11,189685130,-78
32-12,189689036,-72
32-13,189692942,-5
32-14,189696848,50
32-15,189700754,24
32-16,189704660,-58
32-17,189708566,-125
32-18,189712472,-172
32-19,189716378,-252
32-20,189720284,-328
32-21,189724190,-340
32-22,189728096,-297
32-23,189732002,-319
32-24,189735908,-383
32-25,189739814,-374
32-26,189743720,-382
32-27,189747626,-473
32-28,189751532,-613
32-29,189755438,-636
32-30,189759344,-424
32-31,189763250,-111
32-32,189767156,76
32-1,189771068,123
32-2,189774974,118
32-3,189778880,155
32-4,189782786,206
32-5,189786692,150
32-6,189790598,76
32-7,189794504,36
32-8,189798410,-43
32-9,189802316,-158
32-10,189806222,-233
32-11,189810128,-216
32-12,189814034,-175
32-13,189817940,-199
32-14,189821846,-247
32-15,189825752,-238
32-16,189829658,-173
32-17,189833564,-123
32-18,189837470,-106
32-19,189841376,-91
32-20,189845282,-58
32-21,189849188,-53
32-22,189853094,-72
32-23,189857000,-99
32-24,189860906,-76
32-25,189864812,-3
32-26,189868718,-26
32-27,189872624,-126
32-28,189876530,-207
32-29,189880436,-190
32-30,189884342,-41
32-31,189888248,172
32-32,189892154,333
32-1,189896066,375
32-2,189899972,277
32-3,189903878,184
32-4,189907784,234
32-5,189911690,329
32-6,189915596,391
32-7,189919502,411
32-8,189923408,426
32-9,189927314,466
32-10,189931220,463
32-11,189935126,388
32-12,189939032,297
32-13,189942938,257
32-14,189946844,252
32-15,189950750,232
32-16,189954656,195
32-17,189958562,175
32-18,189962468,172
32-19,189966374,161
32-20,189970280,168
32-21,189974186,229
32-22,189978092,327
32-23,189981998,318
32-24,189985904,235
32-25,189989810,221
32-26,189993716,213
32-27,189997622,143
32-28,190001528,3
32-29,190005434,-76
32-30,190009340,55
32-31,190013246,301
32-32,190017152,425
32-1,190021063,400
32-2,190024969,325
32-3,190028875,327
32-4,190032781,419
32-5,190036687,435
32-6,190040593,381
32-7,190044499,311
32-8,190048405,221
32-9,190052311,149
32-10,190056217,140
32-11,190060123,173
32-12,190064029,171
32-13,190067935,114
32-14,190071841,51
32-15,190075747,25
32-16,190079653,-7
32-17,190083559,-95
32-18,190087465,-172
32-19,190091371,-159
32-20,190095277,-89
32-21,190099183,-77
32-22,190103089,-126
32-23,190106995,-169
32-24,190110901,-110
32-25,190114807,36
32-26,190118713,68
32-27,190122619,-39
32-28,190126525,-187
32-29,190130431,-254
32-30,190134337,-164
32-31,190138243,44
32-32,190142149,226
32-1,190146061,279
32-2,190149967,171
32-3,190153873,38
32-4,190157779,36
32-5,190161685,76
32-6,190165591,112
32-7,190169497,147
32-8,190173403,198
32-9,190177309,267
32-10,190181215,278
32-11,190185121,203
32-12,190189027,123
32-13,190192933,122
32-14,190196839,169
32-15,190200745,177
32-16,190204651,134
32-17,190208557,94
32-18,190212463,69
32-19,190216369,23
32-20,190220275,-26
32-21,190224181,-56
32-22,190228087,-66
32-23,190231993,-150
32-24,190235899,-263
32-25,190239805,-270
32-26,190243711,-271
32-27,190247617,-378
32-28,190251523,-593
32-29,190255429,-737
32-30,190259335,-625
32-31,190263241,-337
32-32,190267147,-121
32-1,190271028,-59
32-2,190274934,-117
32-3,190278840,-193
32-4,190282746,-225
32-5,190286652,-282
32-6,190290558,-282
32-7,190294464,-198
32-8,190298370,-158
32-9,190302276,-213
32-10,190306182,-290
32-11,190310088,-290
32-12,190313994,-227
32-13,190317900,-167
32-14,190321806,-131
32-15,190325712,-112
32-16,190329618,-123
32-17,190333524,-177
32-18,190337430,-219
32-19,190341336,-196
32-20,190345242,-127
32-21,190349148,-105
32-22,190353054,-130
32-23,190356960,-170
32-24,190360866,-133
32-25,190364772,-5
32-26,190368678,36
32-27,190372584,-34
32-28,190376490,-148
32-29,190380396,-239
32-30,190384302,-225
32-31,190388208,-80
32-32,190392114,104
32-1,190396026,238
32-2,190399932,237
32-3,190403838,171
32-4,190407744,171
32-5,190411650,159
32-6,190415556,108
32-7,190419462,50
32-8,190423368,31
32-9,190427274,66
32-10,190431180,108
32-11,190435086,126
32-12,190438992,143
32-13,190442898,180
32-14,190446804,174
32-15,190450710,78
32-16,190454616,-44
32-17,190458522,-100
32-18,190462428,-104
32-19,190466334,-147
32-20,190470240,-229
32-21,190474146,-279
32-22,190478052,-249
32-23,190481958,-233
32-24,190485864,-236
32-25,190489770,-188
32-26,190493676,-206
32-27,190497582,-339
32-28,190501488,-525
32-29,190505394,-586
32-30,190509300,-412
32-31,190513206,-178
32-32,190517112,-143
32-1,190521023,-297
32-2,190524929,-471
32-3,190528835,-510
32-4,190532741,-423
32-5,190536647,-392
32-6,190540553,-373
32-7,190544459,-322
32-8,190548365,-312
32-9,190552271,-343
32-10,190556177,-362
32-11,190560083,-324
32-12,190563989,-262
32-13,190567895,-238
32-14,190571801,-225
32-15,190575707,-169
32-16,190579613,-98
32-17,190583519,-63
32-18,190587425,-63
32-19,190591331,-69
32-20,190595237,-67
32-21,190599143,-114
32-22,190603049,-186
32-23,190606955,-232
32-24,190610861,-197
32-25,190614767,-104
32-26,190618673,-134
32-27,190622579,-269
32-28,190626485,-394
32-29,190630391,-418
32-30,190634297,-302
32-31,190638203,-105
32-32,190642109,41
32-1,190646021,80
32-2,190649927,22
32-3,190653833,-2
32-4,190657739,121
32-5,190661645,237
32-6,190665551,246
32-7,190669457,186
32-8,190673363,153
32-9,190677269,215
32-10,190681175,305
32-11,190685081,329
32-12,190688987,300
32-13,190692893,278
32-14,190696799,261
32-15,190700705,230
32-16,190704611,202
32-17,190708517,207
32-18,190712423,222
32-19,190716329,181
32-20,190720235,109
32-21,190724141,63
32-22,190728047,75
32-23,190731953,80
32-24,190735859,98
32-25,190739765,230
32-26,190743671,345
32-27,190747577,291
32-28,190751483,46
32-29,190755389,-215
32-30,190759295,-273
32-31,190763201,-145
32-32,190767107,-34
32-1,190771019,0
32-2,190774925,7
32-3,190778831,36
32-4,190782737,96
32-5,190786643,68
32-6,190790549,5
32-7,190794455,-44
32-8,190798361,-126
32-9,190802267,-231
32-10,190806173,-303
32-11,190810079,-296
32-12,190813985,-262
32-13,190817891,-258
32-14,190821797,-250
32-15,190825703,-179
32-16,190829609,-77
32-17,190833515,-39
32-18,190837421,-71
32-19,190841327,-90
32-20,190845233,-59
32-21,190849139,-57
32-22,190853045,-110
32-23,190856951,-213
32-24,190860857,-276
32-25,190864763,-250
32-26,190868669,-285
32-27,190872575,-403
32-28,190876481,-549
32-29,190880387,-644
32-30,190884293,-599
32-31,190888199,-419
32-32,190892105,-222
32-1,190896016,-115
32-2,190899922,-171
32-3,190903828,-285
32-4,190907734,-283
32-5,190911640,-229
32-6,190915546,-193
32-7,190919452,-194
32-8,190923358,-206
32-9,190927264,-169
32-10,190931170,-96
32-11,190935076,-33
32-12,190938982,27
32-13,190942888,102
32-14,190946794,161
32-15,190950700,163
32-16,190954606,120
32-17,190958512,80
32-18,190962418,50
32-19,190966324,-10
32-20,190970230,-74
32-21,190974136,-86
32-22,190978042,-46
32-23,190981948,-47
32-24,190985854,-64
32-25,190989760,4
32-26,190993666,23
32-27,190997572,-133
32-28,191001478,-437
32-29,191005384,-643
32-30,191009290,-506
32-31,191013196,-148
32-32,191017102,101
32-1,191021014,110
32-2,191024920,-31
32-3,191028826,-130
32-4,191032732,-119
32-5,191036638,-124
32-6,191040544,-131
32-7,191044450,-117
32-8,191048356,-122
32-9,191052262,-137
32-10,191056168,-116
32-11,191060074,-35
32-12,191063980,18
32-13,191067886,-28
32-14,191071792,-113
32-15,191075698,-120
32-16,191079604,-28
32-17,191083510,73
32-18,191087416,129
32-19,191091322,167
32-20,191095228,200
32-21,191099134,181
32-22,191103040,128
32-23,191106946,66
32-24,191110852,75
32-25,191114758,163
32-26,191118664,139
32-27,191122570,-30
32-28,191126476,-263
32-29,191130382,-415
32-30,191134288,-368
32-31,191138194,-132
32-32,191142100,148
32-1,191146012,311
32-2,191149918,254
32-3,191153824,101
32-4,191157730,63
32-5,191161636,116
32-6,191165542,203
32-7,191169448,262
32-8,191173354,293
32-9,191177260,328
32-10,191181166,338
32-11,191185072,305
32-12,191188978,264
32-13,191192884,259
32-14,191196790,274
32-15,191200696,255
32-16,191204602,212
32-17,191208508,208
32-18,191212414,234
32-19,191216320,213
32-20,191220226,143
32-21,191224132,81
32-22,191228038,82
32-23,191231944,62
32-24,191235850,-2
32-25,191239756,-13
32-26,191243662,-42
32-27,191247568,-168
32-28,191251474,-403
32-29,191255380,-617
32-30,191259286,-626
32-31,191263192,-458
32-32,191267098,-305
32-1,191270979,-253
32-2,191274885,-271
32-3,191278791,-283
32-4,191282697,-242
32-5,191286603,-224
32-6,191290509,-176
32-7,191294415,-72
32-8,191298321,-2
32-9,191302227,-3
32-10,191306133,-24
32-11,191310039,14
32-12,191313945,85
32-13,191317851,122
32-14,191321757,135
32-15,191325663,154
32-16,191329569,177
32-17,191333475,168
32-18,191337381,146
32-19,191341287,182
32-20,191345193,267
32-21,191349099,283
32-22,191353005,216
32-23,191356911,127
32-24,191360817,134
32-25,191364723,264
32-26,191368629,289
32-27,191372535,158
32-28,191376441,-31
32-29,191380347,-151
32-30,191384253,-107
32-31,191388159,67
32-32,191392065,235
32-1,191395976,301
32-2,191399882,219
32-3,191403788,85
32-4,191407694,34
32-5,191411600,-6
32-6,191415506,-64
32-7,191419412,-116
32-8,191423318,-103
32-9,191427224,0
32-10,191431130,91
32-11,191435036,100
32-12,191438942,64
32-13,191442848,73
32-14,191446754,129
32-15,191450660,153
32-16,191454566,126
32-17,191458472,113
32-18,191462378,142
32-19,191466284,157
32-20,191470190,144
32-21,191474096,144
32-22,191478002,212
32-23,191481908,285
32-24,191485814,339
32-25,191489720,425
32-26,191493626,436
32-27,191497532,301
32-28,191501438,32
32-29,191505344,-198
32-30,191509250,-198
32-31,191513156,-20
32-32,191517062,126
32-1,191520974,163
32-2,191524880,126
32-3,191528786,101
32-4,191532692,128
32-5,191536598,123
32-6,191540504,140
32-7,191544410,205
32-8,191548316,222
32-9,191552222,151
32-10,191556128,61
32-11,191560034,49
32-12,191563940,94
32-13,191567846,118
32-14,191571752,96
32-15,191575658,73
32-16,191579564,57
32-17,191583470,15
32-18,191587376,-32
32-19,191591282,-27
32-20,191595188,20
32-21,191599094,38
32-22,191603000,16
32-23,191606906,-42
32-24,191610812,-63
32-25,191614718,-18
32-26,191618624,-65
32-27,191622530,-200
32-28,191626436,-345
32-29,191630342,-426
32-30,191634248,-379
32-31,191638154,-219
32-32,191642060,-44
32-1,191645972,52
32-2,191649878,-10
32-3,191653784,-125
32-4,191657690,-117
32-5,191661596,-51
32-6,191665502,-8
32-7,191669408,-36
32-8,191673314,-82
32-9,191677220,-56
32-10,191681126,20
32-11,191685032,75
32-12,191688938,75
32-13,191692844,39
32-14,191696750,-19
32-15,191700656,-96
32-16,191704562,-138
32-17,191708468,-99
32-18,191712374,-24
32-19,191716280,0
32-20,191720186,-28
32-21,191724092,-35
32-22,191727998,36
32-23,191731904,87
32-24,191735810,99
32-25,191739716,155
32-26,191743622,154
32-27,191747528,43
32-28,191751434,-156
32-29,191755340,-282
32-30,191759246,-178
32-31,191763152,59
32-32,191767058,180
32-1,191770969,122
32-2,191774875,-12
32-3,191778781,-96
32-4,191782687,-104
32-5,191786593,-174
32-6,191790499,-238
32-7,191794405,-227
32-8,191798311,-209
32-9,191802217,-236
32-10,191806123,-284
32-11,191810029,-294
32-12,191813935,-301
32-13,191817841,-372
32-14,191821747,-497
32-15,191825653,-605
32-16,191829559,-654
32-17,191833465,-655
32-18,191837371,-627
32-19,191841277,-571
32-20,191845183,-525
32-21,191849089,-554
32-22,191852995,-607
32-23,191856901,-630
32-24,191860807,-547
32-25,191864713,-405
32-26,191868619,-432
32-27,191872525,-587
32-28,191876431,-688
32-29,191880337,-605
32-30,191884243,-332
32-31,191888149,-9
32-32,191892055,194
32-1,191895967,249
32-2,191899873,176
32-3,191903779,120
32-4,191907685,207
32-5,191911591,304
32-6,191915497,330
32-7,191919403,269
32-8,191923309,173
32-9,191927215,138
32-10,191931121,142
32-11,191935027,115
32-12,191938933,71
32-13,191942839,66
32-14,191946745,87
32-15,191950651,82
32-16,191954557,28
32-17,191958463,-27
32-18,191962369,-46
32-19,191966275,-68
32-20,191970181,-102
32-21,191974087,-108
32-22,191977993,-71
32-23,191981899,-93
32-24,191985805,-173
32-25,191989711,-210
32-26,191993617,-264
32-27,191997523,-374
32-28,192001429,-545
32-29,192005335,-635
32-30,192009241,-481
32-31,192013147,-201
32-32,192017053,-57
32-1,192020964,-128
32-2,192024870,-309
32-3,192028776,-417
32-4,192032682,-392
32-5,192036588,-379
32-6,192040494,-366
32-7,192044400,-340
32-8,192048306,-365
32-9,192052212,-433
32-10,192056118,-488
32-11,192060024,-474
32-12,192063930,-417
32-13,192067836,-395
32-14,192071742,-396
32-15,192075648,-341
32-16,192079554,-227
32-17,192083460,-126
32-18,192087366,-71
32-19,192091272,-28
32-20,192095178,27
32-21,192099084,59
32-22,192102990,75
32-23,192106896,107
32-24,192110802,223
32-25,192114708,377
32-26,192118614,362
32-27,192122520,202
32-28,192126426,53
32-29,192130332,53
32-30,192134238,218
32-31,192138144,437
32-32,192142050,591
32-1,192145962,625
32-2,192149868,531
32-3,192153774,422
32-4,192157680,392
32-5,192161586,328
32-6,192165492,195
32-7,192169398,23
32-8,192173304,-96
32-9,192177210,-82
32-10,192181116,-4
32-11,192185022,47
32-12,192188928,44
32-13,192192834,52
32-14,192196740,74
32-15,192200646,55
32-16,192204552,9
32-17,192208458,9
32-18,192212364,70
32-19,192216270,114
32-20,192220176,104
32-21,192224082,78
32-22,192227988,89
32-23,192231894,69
32-24,192235800,35
32-25,192239706,69
32-26,192243612,63
32-27,192247518,-26
32-28,192251424,-172
32-29,192255330,-211
32-30,192259236,-4
32-31,192263142,316
32-32,192267048,478
32-1,192270929,436
32-2,192274835,300
32-3,192278741,230
32-4,192282647,240
32-5,192286553,161
32-6,192290459,76
32-7,192294365,69
32-8,192298271,69
32-9,192302177,13
32-10,192306083,-91
32-11,192309989,-172
32-12,192313895,-202
32-13,192317801,-215
32-14,192321707,-232
32-15,192325613,-239
32-16,192329519,-266
32-17,192333425,-330
32-18,192337331,-382
32-19,192341237,-363
32-20,192345143,-282
32-21,192349049,-221
32-22,192352955,-205
32-23,192356861,-213
32-24,192360767,-149
32-25,192364673,-43
32-26,192368579,-100
32-27,192372485,-292
32-28,192376391,-458
32-29,192380297,-461
32-30,192384203,-277
32-31,192388109,-32
32-32,192392015,127
32-1,192395927,155
32-2,192399833,47
32-3,192403739,-74
32-4,192407645,-64
32-5,192411551,-12
32-6,192415457,26
32-7,192419363,19
32-8,192423269,-22
32-9,192427175,-27
32-10,192431081,-5
32-11,192434987,-13
32-12,192438893,-21
32-13,192442799,36
32-14,192446705,132
32-15,192450611,199
32-16,192454517,198
32-17,192458423,164
32-18,192462329,151
32-19,192466235,144
32-20,192470141,145
32-21,192474047,171
32-22,192477953,214
32-23,192481859,187
32-24,192485765,133
32-25,192489671,160
32-26,192493577,155
32-27,192497483,57
32-28,192501389,-98
32-29,192505295,-120
32-30,192509201,155
32-31,192513107,560
32-32,192517013,761
32-1,192520924,689
32-2,192524830,506
32-3,192528736,438
32-4,192532642,514
32-5,192536548,510
32-6,192540454,436
32-7,192544360,364
32-8,192548266,277
32-9,192552172,176
32-10,192556078,99
32-11,192559984,76
32-12,192563890,74
32-13,192567796,33
32-14,192571702,-31
32-15,192575608,-34
32-16,192579514,5
32-17,192583420,-23
32-18,192587326,-156
32-19,192591232,-307
32-20,192595138,-376
32-21,192599044,-377
32-22,192602950,-349
32-23,192606856,-346
32-24,192610762,-309
32-25,192614668,-221
32-26,192618574,-243
32-27,192622480,-373
32-28,192626386,-503
32-29,192630292,-512
32-30,192634198,-361
32-31,192638104,-126
32-32,192642010,86
32-1,192645922,221
32-2,192649828,234
32-3,192653734,193
32-4,192657640,210
32-5,192661546,209
32-6,192665452,182
32-7,192669358,137
32-8,192673264,116
32-9,192677170,161
32-10,192681076,223
32-11,192684982,239
32-12,192688888,208
32-13,192692794,196
32-14,192696700,210
32-15,192700606,191
32-16,192704512,119
32-17,192708418,55
32-18,192712324,14
32-19,192716230,-34
32-20,192720136,-100
32-21,192724042,-162
32-22,192727948,-181
32-23,192731854,-234
32-24,192735760,-302
32-25,192739666,-265
32-26,192743572,-232
32-27,192747478,-301
32-28,192751384,-499
32-29,192755290,-668
32-30,192759196,-582
32-31,192763102,-296
32-32,192767008,-82
32-1,192770920,-64
32-2,192774826,-165
32-3,192778732,-216
32-4,192782638,-156
32-5,192786544,-142
32-6,192790450,-155
32-7,192794356,-139
32-8,192798262,-127
32-9,192802168,-140
32-10,192806074,-141
32-11,192809980,-74
32-12,192813886,19
32-13,192817792,51
32-14,192821698,13
32-15,192825604,-24
32-16,192829510,-24
32-17,192833416,-52
32-18,192837322,-134
32-19,192841228,-205
32-20,192845134,-203
32-21,192849040,-148
32-22,192852946,-76
32-23,192856852,-36
32-24,192860758,15
32-25,192864664,113
32-26,192868570,109
32-27,192872476,-25
32-28,192876382,-222
32-29,192880288,-381
32-30,192884194,-413
32-31,192888100,-338
32-32,192892006,-241
32-1,192895917,-204
32-2,192899823,-290
32-3,192903729,-421
32-4,192907635,-429
32-5,192911541,-372
32-6,192915447,-315
32-7,192919353,-293
32-8,192923259,-289
32-9,192927165,-256
32-10,192931071,-234
32-11,192934977,-263
32-12,192938883,-313
32-13,192942789,-305
32-14,192946695,-226
32-15,192950601,-139
32-16,192954507,-80
32-17,192958413,-5
32-18,192962319,102
32-19,192966225,174
32-20,192970131,175
32-21,192974037,162
32-22,192977943,204
32-23,192981849,220
32-24,192985755,182
32-25,192989661,141
32-26,192993567,22
32-27,192997473,-164
32-28,193001379,-351
32-29,193005285,-411
32-30,193009191,-237
32-31,193013097,31
32-32,193017003,171
32-1,193020915,157
32-2,193024821,87
32-3,193028727,105
32-4,193032633,201
32-5,193036539,206
32-6,193040445,200
32-7,193044351,272
32-8,193048257,380
32-9,193052163,444
32-10,193056069,446
32-11,193059975,443
32-12,193063881,420
32-13,193067787,322
32-14,193071693,169
32-15,193075599,48
32-16,193079505,-1
32-17,193083411,-11
32-18,193087317,-14
32-19,193091223,10
32-20,193095129,63
32-21,193099035,90
32-22,193102941,78
32-23,193106847,29
32-24,193110753,44
32-25,193114659,146
32-26,193118565,147
32-27,193122471,33
32-28,193126377,-94
32-29,193130283,-103
32-30,193134189,55
32-31,193138095,274
32-32,193142001,420
32-1,193145913,446
32-2,193149819,335
32-3,193153725,200
32-4,193157631,183
32-5,193161537,205
32-6,193165443,213
32-7,193169349,179
32-8,193173255,132
32-9,193177161,128
32-10,193181067,139
32-11,193184973,115
32-12,193188879,89
32-13,193192785,122
32-14,193196691,187
32-15,193200597,218
32-16,193204503,178
32-17,193208409,104
32-18,193212315,31
32-19,193216221,-80
32-20,193220127,-212
32-21,193224033,-294
32-22,193227939,-270
32-23,193231845,-229
32-24,193235751,-215
32-25,193239657,-150
32-26,193243563,-98
32-27,193247469,-146
32-28,193251375,-331
32-29,193255281,-521
32-30,193259187,-509
32-31,193263093,-305
32-32,193266999,-130
32-1,193270880,-90
32-2,193274786,-130
32-3,193278692,-132
32-4,193282598,-67
32-5,193286504,-79
32-6,193290410,-125
32-7,193294316,-115
32-8,193298222,-82
32-9,193302128,-86
32-10,193306034,-129
32-11,193309940,-154
32-12,193313846,-157
32-13,193317752,-196
32-14,193321658,-268
32-15,193325564,-283
32-16,193329470,-206
32-17,193333376,-96
32-18,193337282,-20
32-19,193341188,8
32-20,193345094,19
32-21,193349000,21
32-22,193352906,21
32-23,193356812,22
32-24,193360718,54
32-25,193364624,129
32-26,193368530,97
32-27,193372436,-59
32-28,193376342,-252
32-29,193380248,-388
32-30,193384154,-418
32-31,193388060,-358
32-32,193391966,-262
32-1,193395877,-195
32-2,193399783,-233
32-3,193403689,-338
32-4,193407595,-370
32-5,193411501,-360
32-6,193415407,-326
32-7,193419313,-280
32-8,193423219,-244
32-9,193427125,-197
32-10,193431031,-162
32-11,193434937,-155
32-12,193438843,-134
32-13,193442749,-47
32-14,193446655,68
32-15,193450561,114
32-16,193454467,70
32-17,193458373,36
32-18,193462279,83
32-19,193466185,126
32-20,193470091,93
32-21,193473997,7
32-22,193477903,-42
32-23,193481809,-64
32-24,193485715,-48
32-25,193489621,43
32-26,193493527,78
32-27,193497433,-16
32-28,193501339,-214
32-29,193505245,-345
32-30,193509151,-233
32-31,193513057,43
32-32,193516963,228
32-1,193520875,233
32-2,193524781,155
32-3,193528687,147
32-4,193532593,235
32-5,193536499,238
32-6,193540405,198
32-7,193544311,196
32-8,193548217,179
32-9,193552123,87
32-10,193556029,-71
32-11,193559935,-212
32-12,193563841,-285
32-13,193567747,-304
32-14,193571653,-295
32-15,193575559,-239
32-16,193579465,-166
32-17,193583371,-142
32-18,193587277,-173
32-19,193591183,-207
32-20,193595089,-182
32-21,193598995,-137
32-22,193602901,-114
32-23,193606807,-128
32-24,193610713,-95
32-25,193614619,11
32-26,193618525,6
32-27,193622431,-138
32-28,193626337,-320
32-29,193630243,-424
32-30,193634149,-382
32-31,193638055,-245
32-32,193641961,-117
32-1,193645873,-56
32-2,193649779,-110
32-3,193653685,-200
32-4,193657591,-188
32-5,193661497,-140
32-6,193665403,-99
32-7,193669309,-79
32-8,193673215,-57
32-9,193677121,32
32-10,193681027,133
32-11,193684933,156
32-12,193688839,120
32-13,193692745,121
32-14,193696651,192
32-15,193700557,256
32-16,193704463,258
32-17,193708369,243
32-18,193712275,239
32-19,193716181,209
32-20,193720087,139
32-21,193723993,70
32-22,193727899,51
32-23,193731805,9
32-24,193735711,-59
32-25,193739617,-76
32-26,193743523,-113
32-27,193747429,-194
32-28,193751335,-318
32-29,193755241,-382
32-30,193759147,-220
32-31,193763053,88
32-32,193766959,274
32-1,193770870,249
32-2,193774776,128
32-3,193778682,110
32-4,193782588,230
32-5,193786494,284
32-6,193790400,272
32-7,193794306,239
32-8,193798212,174
32-9,193802118,95
32-10,193806024,33
32-11,193809930,27
32-12,193813836,31
32-13,193817742,-19
32-14,193821648,-110
32-15,193825554,-177
32-16,193829460,-198
32-17,193833366,-208
32-18,193837272,-235
32-19,193841178,-218
32-20,193845084,-127
32-21,193848990,-51
32-22,193852896,-39
32-23,193856802,-89
32-24,193860708,-98
32-25,193864614,-21
32-26,193868520,-39
32-27,193872426,-153
32-28,193876332,-241
32-29,193880238,-207
32-30,193884144,-20
32-31,193888050,207
32-32,193891956,329
32-1,193895868,311
32-2,193899774,139
32-3,193903680,-70
32-4,193907586,-124
32-5,193911492,-66
32-6,193915398,25
32-7,193919304,50
32-8,193923210,-19
32-9,193927116,-98
32-10,193931022,-141
32-11,193934928,-155
32-12,193938834,-130
32-13,193942740,-63
32-14,193946646,6
32-15,193950552,26
32-16,193954458,7
32-17,193958364,31
32-18,193962270,115
32-19,193966176,156
32-20,193970082,99
32-21,193973988,17
32-22,193977894,21
32-23,193981800,56
32-24,193985706,66
32-25,193989612,95
32-26,193993518,66
32-27,193997424,-58
32-28,194001330,-256
32-29,194005236,-398
32-30,194009142,-316
32-31,194013048,-55
32-32,194016954,147
32-1,194020865,175
32-2,194024771,86
32-3,194028677,28
32-4,194032583,56
32-5,194036489,28
32-6,194040395,-20
32-7,194044301,-1
32-8,194048207,32
32-9,194052113,13
32-10,194056019,-48
32-11,194059925,-74
32-12,194063831,-49
32-13,194067737,-18
32-14,194071643,-9
32-15,194075549,21
32-16,194079455,66
32-17,194083361,78
32-18,194087267,44
32-19,194091173,1
32-20,194095079,-19
32-21,194098985,-72
32-22,194102891,-182
32-23,194106797,-300
32-24,194110703,-295
32-25,194114609,-148
32-26,194118515,-94
32-27,194122421,-209
32-28,194126327,-384
32-29,194130233,-460
32-30,194134139,-358
32-31,194138045,-151
32-32,194141951,44
32-1,194145863,168
32-2,194149769,156
32-3,194153675,50
32-4,194157581,-15
32-5,194161487,-71
32-6,194165393,-76
32-7,194169299,-40
32-8,194173205,-11
32-9,194177111,7
32-10,194181017,-40
32-11,194184923,-161
32-12,194188829,-276
32-13,194192735,-309
32-14,194196641,-246
32-15,194200547,-171
32-16,194204453,-150
32-17,194208359,-121
32-18,194212265,-45
32-19,194216171,28
32-20,194220077,54
32-21,194223983,55
32-22,194227889,93
32-23,194231795,85
32-24,194235701,19
32-25,194239607,-16
32-26,194243513,-83
32-27,194247419,-191
32-28,194251325,-321
32-29,194255231,-360
32-30,194259137,-163
32-31,194263043,164
32-32,194266949,370
32-1,194270830,368
32-2,194274736,247
32-3,194278642,190
32-4,194282548,239
32-5,194286454,213
32-6,194290360,149
32-7,194294266,134
32-8,194298172,135
32-9,194302078,103
32-10,194305984,35
32-11,194309890,-1
32-12,194313796,10
32-13,194317702,21
32-14,194321608,20
32-15,194325514,55
32-16,194329420,127
32-17,194333326,163
32-18,194337232,121
32-19,194341138,67
32-20,194345044,79
32-21,194348950,134
32-22,194352856,172
32-23,194356762,154
32-24,194360668,188
32-25,194364574,311
32-26,194368480,315
32-27,194372386,181
32-28,194376292,44
32-29,194380198,63
32-30,194384104,277
32-31,194388010,538
32-32,194391916,690
32-1,194395828,707
32-2,194399734,597
32-3,194403640,465
32-4,194407546,432
32-5,194411452,407
32-6,194415358,360
32-7,194419264,280
32-8,194423170,188
32-9,194427076,154
32-10,194430982,175
32-11,194434888,193
32-12,194438794,189
32-13,194442700,213
32-14,194446606,258
32-15,194450512,262
32-16,194454418,197
32-17,194458324,126
32-18,194462230,108
32-19,194466136,104
32-20,194470042,61
32-21,194473948,7
32-22,194477854,9
32-23,194481760,6
32-24,194485666,-5
32-25,194489572,31
32-26,194493478,22
32-27,194497384,-76
32-28,194501290,-260
32-29,194505196,-397
32-30,194509102,-316
32-31,194513008,-69
32-32,194516914,110
32-1,194520825,121
32-2,194524731,38
32-3,194528637,11
32-4,194532543,73
32-5,194536449,48
32-6,194540355,-42
32-7,194544261,-118
32-8,194548167,-190
32-9,194552073,-281
32-10,194555979,-355
32-11,194559885,-347
32-12,194563791,-289
32-13,194567697,-259
32-14,194571603,-283
32-15,194575509,-310
32-16,194579415,-315
32-17,194583321,-352
32-18,194587227,-450
32-19,194591133,-535
32-20,194595039,-532
32-21,194598945,-480
32-22,194602851,-442
32-23,194606757,-468
32-24,194610663,-472
32-25,194614569,-402
32-26,194618475,-414
32-27,194622381,-512
32-28,194626287,-604
32-29,194630193,-603
32-30,194634099,-461
32-31,194638005,-245
32-32,194641911,-43
32-1,194645823,108
32-2,194649729,126
32-3,194653635,51
32-4,194657541,35
32-5,194661447,63
32-6,194665353,133
32-7,194669259,178
32-8,194673165,158
32-9,194677071,131
32-10,194680977,109
32-11,194684883,73
32-12,194688789,53
32-13,194692695,97
32-14,194696601,179
32-15,194700507,219
32-16,194704413,179
32-17,194708319,136
32-18,194712225,157
32-19,194716131,175
32-20,194720037,115
32-21,194723943,2
32-22,194727849,-71
32-23,194731755,-113
32-24,194735661,-120
32-25,194739567,-70
32-26,194743473,-74
32-27,194747379,-187
32-28,194751285,-392
32-29,194755191,-537
32-30,194759097,-438
32-31,194763003,-174
32-32,194766909,3
32-1,194770821,-18
32-2,194774727,-160
32-3,194778633,-254
32-4,194782539,-253
32-5,194786445,-307
32-6,194790351,-374
32-7,194794257,-379
32-8,194798163,-348
32-9,194802069,-326
32-10,194805975,-319
32-11,194809881,-266
32-12,194813787,-191
32-13,194817693,-182
32-14,194821599,-246
32-15,194825505,-273
32-16,194829411,-201
32-17,194833317,-105
32-18,194837223,-70
32-19,194841129,-74
32-20,194845035,-47
32-21,194848941,-13
32-22,194852847,-8
32-23,194856753,-56
32-24,194860659,-55
32-25,194864565,57
32-26,194868471,106
32-27,194872377,18
32-28,194876283,-136
32-29,194880189,-224
32-30,194884095,-149
32-31,194888001,43
32-32,194891907,226
32-1,194895818,322
32-2,194899724,276
32-3,194903630,148
32-4,194907536,102
32-5,194911442,124
32-6,194915348,177
32-7,194919254,178
32-8,194923160,83
32-9,194927066,-25
32-10,194930972,-102
32-11,194934878,-163
32-12,194938784,-205
32-13,194942690,-185
32-14,194946596,-117
32-15,194950502,-58
32-16,194954408,-43
32-17,194958314,-28
32-18,194962220,33
32-19,194966126,72
32-20,194970032,26
32-21,194973938,-64
32-22,194977844,-82
32-23,194981750,-27
32-24,194985656,67
32-25,194989562,195
32-26,194993468,235
32-27,194997374,156
32-28,195001280,0
32-29,195005186,-85
32-30,195009092,66
32-31,195012998,360
32-32,195016904,544
32-1,195020816,518
32-2,195024722,369
32-3,195028628,281
32-4,195032534,317
32-5,195036440,299
32-6,195040346,238
32-7,195044252,211
32-8,195048158,193
32-9,195052064,137
32-10,195055970,52
32-11,195059876,24
32-12,195063782,72
32-13,195067688,130
32-14,195071594,138
32-15,195075500,120
32-16,195079406,111
32-17,195083312,93
32-18,195087218,44
32-19,195091124,8
32-20,195095030,15
32-21,195098936,20
32-22,195102842,-15
32-23,195106748,-98
32-24,195110654,-116
32-25,195114560,-21
32-26,195118466,-16
32-27,195122372,-142
32-28,195126278,-292
32-29,195130184,-333
32-30,195134090,-223
32-31,195137996,-51
32-32,195141902,84
32-1,195145814,165
32-2,195149720,162
32-3,195153626,123
32-4,195157532,146
32-5,195161438,181
32-6,195165344,207
32-7,195169250,187
32-8,195173156,123
32-9,195177062,91
32-10,195180968,95
32-11,195184874,97
32-12,195188780,73
32-13,195192686,61
32-14,195196592,82
32-15,195200498,97
32-16,195204404,90
32-17,195208310,109
32-18,195212216,157
32-19,195216122,175
32-20,195220028,123
32-21,195223934,36
32-22,195227840,5
32-23,195231746,-27
32-24,195235652,-91
32-25,195239558,-120
32-26,195243464,-186
32-27,195247370,-302
32-28,195251276,-445
32-29,195255182,-510
32-30,195259088,-365
32-31,195262994,-106
32-32,195266900,8
32-1,195270781,-84
32-2,195274687,-251
32-3,195278593,-307
32-4,195282499,-225
32-5,195286405,-220
32-6,195290311,-279
32-7,195294217,-291
32-8,195298123,-261
32-9,195302029,-257
32-10,195305935,-290
32-11,195309841,-286
32-12,195313747,-241
32-13,195317653,-206
32-14,195321559,-224
32-15,195325465,-255
32-16,195329371,-254
32-17,195333277,-240
32-18,195337183,-240
32-19,195341089,-222
32-20,195344995,-169
32-21,195348901,-143
32-22,195352807,-170
32-23,195356713,-251
32-24,195360619,-259
32-25,195364525,-140
32-26,195368431,-106
32-27,195372337,-216
32-28,195376243,-373
32-29,195380149,-427
32-30,195384055,-307
32-31,195387961,-97
32-32,195391867,68
32-1,195395778,141
32-2,195399684,102
32-3,195403590,22
32-4,195407496,30
32-5,195411402,86
32-6,195415308,147
32-7,195419214,149
32-8,195423120,103
32-9,195427026,98
32-10,195430932,148
32-11,195434838,181
32-12,195438744,153
32-13,195442650,126
32-14,195446556,129
32-15,195450462,99
32-16,195454368,-6
32-17,195458274,-107
32-18,195462180,-111
32-19,195466086,-29
32-20,195469992,59
32-21,195473898,90
32-22,195477804,100
32-23,195481710,79
32-24,195485616,68
32-25,195489522,132
32-26,195493428,155
32-27,195497334,90
32-28,195501240,-34
32-29,195505146,-82
32-30,195509052,84
32-31,195512958,363
32-32,195516864,517
32-1,195520776,472
32-2,195524682,333
32-3,195528588,276
32-4,195532494,320
32-5,195536400,276
32-6,195540306,205
32-7,195544212,220
32-8,195548118,299
32-9,195552024,351
32-10,195555930,316
32-11,195559836,259
32-12,195563742,210
32-13,195567648,139
32-14,195571554,43
32-15,195575460,-18
32-16,195579366,-20
32-17,195583272,-21
32-18,195587178,-88
32-19,195591084,-182
32-20,195594990,-211
32-21,195598896,-205
32-22,195602802,-236
32-23,195606708,-350
32-24,195610614,-426
32-25,195614520,-384
32-26,195618426,-381
32-27,195622332,-465
32-28,195626238,-557
32-29,195630144,-543
32-30,195634050,-388
32-31,195637956,-182
32-32,195641862,-40
32-1,195645774,22
32-2,195649680,-4
32-3,195653586,-76
32-4,195657492,-102
32-5,195661398,-105
32-6,195665304,-64
32-7,195669210,-15
32-8,195673116,4
32-9,195677022,19
32-10,195680928,31
32-11,195684834,23
32-12,195688740,0
32-13,195692646,33
32-14,195696552,112
32-15,195700458,153
32-16,195704364,113
32-17,195708270,62
32-18,195712176,73
32-19,195716082,107
32-20,195719988,90
32-21,195723894,26
32-22,195727800,1
32-23,195731706,-13
32-24,195735612,-19
32-25,195739518,5
32-26,195743424,-53
32-27,195747330,-203
32-28,195751236,-400
32-29,195755142,-500
32-30,195759048,-342
32-31,195762954,-22
32-32,195766860,187
32-1,195770771,167
32-2,195774677,8
32-3,195778583,-91
32-4,195782489,-64
32-5,195786395,-88
32-6,195790301,-141
32-7,195794207,-137
32-8,195798113,-112
32-9,195802019,-136
32-10,195805925,-234
32-11,195809831,-324
32-12,195813737,-366
32-13,195817643,-377
32-14,195821549,-397
32-15,195825455,-405
32-16,195829361,-397
32-17,195833267,-424
32-18,195837173,-497
32-19,195841079,-545
32-20,195844985,-505
32-21,195848891,-427
32-22,195852797,-394
32-23,195856703,-444
32-24,195860609,-440
32-25,195864515,-319
32-26,195868421,-292
32-27,195872327,-417
32-28,195876233,-585
32-29,195880139,-632
32-30,195884045,-483
32-31,195887951,-248
32-32,195891857,-62
32-1,195895769,38
32-2,195899675,46
32-3,195903581,27
32-4,195907487,64
32-5,195911393,77
32-6,195915299,58
32-7,195919205,-6
32-8,195923111,-83
32-9,195927017,-86
32-10,195930923,-16
32-11,195934829,35
32-12,195938735,23
32-13,195942641,32
32-14,195946547,113
32-15,195950453,224
32-16,195954359,293
32-17,195958265,315
32-18,195962171,311
32-19,195966077,283
32-20,195969983,231
32-21,195973889,198
32-22,195977795,240
32-23,195981701,272
32-24,195985607,262
32-25,195989513,250
32-26,195993419,166
32-27,195997325,20
32-28,196001231,-182
32-29,196005137,-346
32-30,196009043,-308
32-31,196012949,-122
32-32,196016855,-8
32-1,196020767,-48
32-2,196024673,-167
32-3,196028579,-201
32-4,196032485,-131
32-5,196036391,-152
32-6,196040297,-229
32-7,196044203,-253
32-8,196048109,-217
32-9,196052015,-174
32-10,196055921,-165
32-11,196059827,-137
32-12,196063733,-74
32-13,196067639,-22
32-14,196071545,-19
32-15,196075451,-30
32-16,196079357,-17
32-17,196083263,2
32-18,196087169,-14
32-19,196091075,-27
32-20,196094981,4
32-21,196098887,37
32-22,196102793,23
32-23,196106699,-52
32-24,196110605,-64
32-25,196114511,49
32-26,196118417,77
32-27,196122323,-60
32-28,196126229,-263
32-29,196130135,-371
32-30,196134041,-295
32-31,196137947,-111
32-32,196141853,47
32-1,196145764,131
32-2,196149670,93
32-3,196153576,-14
32-4,196157482,-71
32-5,196161388,-112
32-6,196165294,-126
32-7,196169200,-140
32-8,196173106,-149
32-9,196177012,-77
32-10,196180918,53
32-11,196184824,144
32-12,196188730,133
32-13,196192636,75
32-14,196196542,27
32-15,196200448,-22
32-16,196204354,-108
32-17,196208260,-171
32-18,196212166,-167
32-19,196216072,-141
32-20,196219978,-151
32-21,196223884,-192
32-22,196227790,-188
32-23,196231696,-176
32-24,196235602,-169
32-25,196239508,-130
32-26,196243414,-141
32-27,196247320,-220
32-28,196251226,-350
32-29,196255132,-413
32-30,196259038,-264
32-31,196262944,29
32-32,196266850,234
32-1,196270731,252
32-2,196274637,164
32-3,196278543,137
32-4,196282449,217
32-5,196286355,235
32-6,196290261,223
32-7,196294167,261
32-8,196298073,318
32-9,196301979,323
32-10,196305885,253
32-11,196309791,200
32-12,196313697,191
32-13,196317603,163
32-14,196321509,70
32-15,196325415,-20
32-16,196329321,-33
32-17,196333227,-5
32-18,196337133,-11
32-19,196341039,-41
32-20,196344945,-33
32-21,196348851,-3
32-22,196352757,8
32-23,196356663,-31
32-24,196360569,-6
32-25,196364475,120
32-26,196368381,128
32-27,196372287,-44
32-28,196376193,-292
32-29,196380099,-425
32-30,196384005,-318
32-31,196387911,-72
32-32,196391817,135
32-1,196395729,209
32-2,196399635,115
32-3,196403541,-34
32-4,196407447,-85
32-5,196411353,-53
32-6,196415259,45
32-7,196419165,99
32-8,196423071,76
32-9,196426977,73
32-10,196430883,137
32-11,196434789,229
32-12,196438695,292
32-13,196442601,340
32-14,196446507,384
32-15,196450413,389
32-16,196454319,340
32-17,196458225,295
32-18,196462131,291
32-19,196466037,284
32-20,196469943,221
32-21,196473849,130
32-22,196477755,110
32-23,196481661,141
32-24,196485567,196
32-25,196489473,270
32-26,196493379,262
32-27,196497285,150
32-28,196501191,-36
32-29,196505097,-170
32-30,196509003,-80
32-31,196512909,178
32-32,196516815,364
32-1,196520727,341
32-2,196524633,185
32-3,196528539,89
32-4,196532445,107
32-5,196536351,61
32-6,196540257,-44
32-7,196544163,-110
32-8,196548069,-138
32-9,196551975,-173
32-10,196555881,-245
32-11,196559787,-289
32-12,196563693,-271
32-13,196567599,-229
32-14,196571505,-217
32-15,196575411,-211
32-16,196579317,-181
32-17,196583223,-157
32-18,196587129,-176
32-19,196591035,-201
32-20,196594941,-181
32-21,196598847,-150
32-22,196602753,-168
32-23,196606659,-256
32-24,196610565,-278
32-25,196614471,-165
32-26,196618377,-121
32-27,196622283,-227
32-28,196626189,-373
32-29,196630095,-377
32-30,196634001,-179
32-31,196637907,74
32-32,196641813,227
32-1,196645724,274
32-2,196649630,226
32-3,196653536,136
32-4,196657442,89
32-5,196661348,33
32-6,196665254,-24
32-7,196669160,-86
32-8,196673066,-148
32-9,196676972,-148
32-10,196680878,-92
32-11,196684784,-37
32-12,196688690,-26
32-13,196692596,-12
32-14,196696502,28
32-15,196700408,55
32-16,196704314,21
32-17,196708220,-26
32-18,196712126,-9
32-19,196716032,59
32-20,196719938,109
32-21,196723844,113
32-22,196727750,125
32-23,196731656,119
32-24,196735562,101
32-25,196739468,127
32-26,196743374,124
32-27,196747280,59
32-28,196751186,-80
32-29,196755092,-194
32-30,196758998,-120
32-31,196762904,108
32-32,196766810,291
32-1,196770722,319
32-2,196774628,247
32-3,196778534,241
32-4,196782440,321
32-5,196786346,295
32-6,196790252,204
32-7,196794158,171
32-8,196798064,210
32-9,196801970,251
32-10,196805876,212
32-11,196809782,153
32-12,196813688,120
32-13,196817594,91
32-14,196821500,46
32-15,196825406,5
32-16,196829312,-25
32-17,196833218,-70
32-18,196837124,-171
32-19,196841030,-273
32-20,196844936,-280
32-21,196848842,-237
32-22,196852748,-227
32-23,196856654,-309
32-24,196860560,-363
32-25,196864466,-292
32-26,196868372,-271
32-27,196872278,-390
32-28,196876184,-565
32-29,196880090,-647
32-30,196883996,-539
32-31,196887902,-318
32-32,196891808,-121
32-1,196895719,-2
32-2,196899625,5
32-3,196903531,-66
32-4,196907437,-94
32-5,196911343,-92
32-6,196915249,-44
32-7,196919155,-6
32-8,196923061,-17
32-9,196926967,-15
32-10,196930873,-11
32-11,196934779,-62
32-12,196938685,-184
32-13,196942591,-290
32-14,196946497,-313
32-15,196950403,-279
32-16,196954309,-265
32-17,196958215,-262
32-18,196962121,-222
32-19,196966027,-172
32-20,196969933,-175
32-21,196973839,-241
32-22,196977745,-288
32-23,196981651,-310
32-24,196985557,-290
32-25,196989463,-221
32-26,196993369,-225
32-27,196997275,-299
32-28,197001181,-407
32-29,197005087,-424
32-30,197008993,-209
32-31,197012899,137
32-32,197016805,351
32-1,197020717,324
32-2,197024623,148
32-3,197028529,45
32-4,197032435,77
32-5,197036341,60
32-6,197040247,-6
32-7,197044153,-53
32-8,197048059,-74
32-9,197051965,-78
32-10,197055871,-86
32-11,197059777,-53
32-12,197063683,5
32-13,197067589,20
32-14,197071495,-35
32-15,197075401,-74
32-16,197079307,-37
32-17,197083213,15
32-18,197087119,-4
32-19,197091025,-77
32-20,197094931,-109
32-21,197098837,-98
32-22,197102743,-110
32-23,197106649,-182
32-24,197110555,-184
32-25,197114461,-10
32-26,197118367,164
32-27,197122273,179
32-28,197126179,39
32-29,197130085,-103
32-30,197133991,-109
32-31,197137897,5
32-32,197141803,143
32-1,197145715,231
32-2,197149621,226
32-3,197153527,165
32-4,197157433,139
32-5,197161339,106
32-6,197165245,63
32-7,197169151,-12
32-8,197173057,-109
32-9,197176963,-139
32-10,197180869,-100
32-11,197184775,-68
32-12,197188681,-98
32-13,197192587,-125
32-14,197196493,-97
32-15,197200399,-49
32-16,197204305,-46
32-17,197208211,-69
32-18,197212117,-60
32-19,197216023,-16
32-20,197219929,22
32-21,197223835,38
32-22,197227741,75
32-23,197231647,96
32-24,197235553,99
32-25,197239459,105
32-26,197243365,63
32-27,197247271,-10
32-28,197251177,-128
32-29,197255083,-221
32-30,197258989,-159
32-31,197262895,15
32-32,197266801,138
32-1,197270682,123
32-2,197274588,20
32-3,197278494,-30
32-4,197282400,-8
32-5,197286306,-64
32-6,197290212,-154
32-7,197294118,-193
32-8,197298024,-178
32-9,197301930,-170
32-10,197305836,-215
32-11,197309742,-220
32-12,197313648,-130
32-13,197317554,1
32-14,197321460,90
32-15,197325366,132
32-16,197329272,164
32-17,197333178,184
32-18,197337084,161
32-19,197340990,134
32-20,197344896,149
32-21,197348802,168
32-22,197352708,145
32-23,197356614,39
32-24,197360520,-46
32-25,197364426,-22
32-26,197368332,-67
32-27,197372238,-267
32-28,197376144,-521
32-29,197380050,-657
32-30,197383956,-589
32-31,197387862,-416
32-32,197391768,-262
32-1,197395679,-143
32-2,197399585,-79
32-3,197403491,-44
32-4,197407397,35
32-5,197411303,95
32-6,197415209,127
32-7,197419115,118
32-8,197423021,79
32-9,197426927,83
32-10,197430833,130
32-11,197434739,153
32-12,197438645,97
32-13,197442551,27
32-14,197446457,23
32-15,197450363,66
32-16,197454269,73
32-17,197458175,45
32-18,197462081,28
32-19,197465987,19
32-20,197469893,-13
32-21,197473799,-68
32-22,197477705,-65
32-23,197481611,-28
32-24,197485517,11
32-25,197489423,76
32-26,197493329,84
32-27,197497235,13
32-28,197501141,-147
32-29,197505047,-318
32-30,197508953,-315
32-31,197512859,-117
32-32,197516765,93
32-1,197520677,166
32-2,197524583,89
32-3,197528489,-1
32-4,197532395,8
32-5,197536301,-4
32-6,197540207,-20
32-7,197544113,21
32-8,197548019,91
32-9,197551925,140
32-10,197555831,121
32-11,197559737,76
32-12,197563643,42
32-13,197567549,-16
32-14,197571455,-117
32-15,197575361,-183
32-16,197579267,-154
32-17,197583173,-78
32-18,197587079,-59
32-19,197590985,-98
32-20,197594891,-91
32-21,197598797,-18
32-22,197602703,66
32-23,197606609,87
32-24,197610515,117
32-25,197614421,218
32-26,197618327,227
32-27,197622233,69
32-28,197626139,-177
32-29,197630045,-343
32-30,197633951,-311
32-31,197637857,-135
32-32,197641763,54
32-1,197645675,181
32-2,197649581,205
32-3,197653487,170
32-4,197657393,190
32-5,197661299,251
32-6,197665205,343
32-7,197669111,410
32-8,197673017,403
32-9,197676923,356
32-10,197680829,292
32-11,197684735,174
32-12,197688641,3
32-13,197692547,-112
32-14,197696453,-118
32-15,197700359,-71
32-16,197704265,-62
32-17,197708171,-85
32-18,197712077,-72
32-19,197715983,-53
32-20,197719889,-85
32-21,197723795,-138
32-22,197727701,-130
32-23,197731607,-79
32-24,197735513,-3
32-25,197739419,88
32-26,197743325,103
32-27,197747231,50
32-28,197751137,-34
32-29,197755043,-47
32-30,197758949,132
32-31,197762855,419
32-32,197766761,582
32-1,197770672,510
32-2,197774578,294
32-3,197778484,164
32-4,197782390,201
32-5,197786296,219
32-6,197790202,193
32-7,197794108,175
32-8,197798014,153
32-9,197801920,103
32-10,197805826,18
32-11,197809732,-35
32-12,197813638,-46
32-13,197817544,-74
32-14,197821450,-153
32-15,197825356,-217
32-16,197829262,-194
32-17,197833168,-130
32-18,197837074,-113
32-19,197840980,-137
32-20,197844886,-125
32-21,197848792,-75
32-22,197852698,-47
32-23,197856604,-113
32-24,197860510,-179
32-25,197864416,-152
32-26,197868322,-188
32-27,197872228,-338
32-28,197876134,-505
32-29,197880040,-543
32-30,197883946,-391
32-31,197887852,-159
32-32,197891758,9
32-1,197895670,83
32-2,197899576,68
32-3,197903482,10
32-4,197907388,9
32-5,197911294,28
32-6,197915200,70
32-7,197919106,93
32-8,197923012,47
32-9,197926918,1
32-10,197930824,9
32-11,197934730,38
32-12,197938636,26
32-13,197942542,4
32-14,197946448,20
32-15,197950354,54
32-16,197954260,50
32-17,197958166,37
32-18,197962072,74
32-19,197965978,138
32-20,197969884,161
32-21,197973790,123
32-22,197977696,106
32-23,197981602,89
32-24,197985508,71
32-25,197989414,79
32-26,197993320,14
32-27,197997226,-129
32-28,198001132,-323
32-29,198005038,-476
32-30,198008944,-418
32-31,198012850,-178
32-32,198016756,21
32-1,198020668,30
32-2,198024574,-130
32-3,198028480,-251
32-4,198032386,-218
32-5,198036292,-210
32-6,198040198,-245
32-7,198044104,-251
32-8,198048010,-215
32-9,198051916,-165
32-10,198055822,-160
32-11,198059728,-168
32-12,198063634,-160
32-13,198067540,-153
32-14,198071446,-161
32-15,198075352,-168
32-16,198079258,-166
32-17,198083164,-201
32-18,198087070,-322
32-19,198090976,-448
32-20,198094882,-460
32-21,198098788,-381
32-22,198102694,-313
32-23,198106600,-372
32-24,198110506,-446
32-25,198114412,-388
32-26,198118318,-355
32-27,198122224,-441
32-28,198126130,-567
32-29,198130036,-575
32-30,198133942,-385
32-31,198137848,-129
32-32,198141754,26
32-1,198145665,78
32-2,198149571,46
32-3,198153477,-14
32-4,198157383,-9
32-5,198161289,20
32-6,198165195,86
32-7,198169101,169
32-8,198173007,215
32-9,198176913,254
32-10,198180819,299
32-11,198184725,316
32-12,198188631,263
32-13,198192537,192
32-14,198196443,158
32-15,198200349,166
32-16,198204255,166
32-17,198208161,156
32-18,198212067,185
32-19,198215973,215
32-20,198219879,165
32-21,198223785,27
32-22,198227691,-98
32-23,198231597,-178
32-24,198235503,-186
32-25,198239409,-115
32-26,198243315,-80
32-27,198247221,-123
32-28,198251127,-253
32-29,198255033,-377
32-30,198258939,-328
32-31,198262845,-114
32-32,198266751,78
32-1,198270663,108
32-2,198274569,5
32-3,198278475,-50
32-4,198282381,28
32-5,198286287,65
32-6,198290193,26
32-7,198294099,-24
32-8,198298005,-54
32-9,198301911,-72
32-10,198305817,-114
32-11,198309723,-136
32-12,198313629,-126
32-13,198317535,-119
32-14,198321441,-156
32-15,198325347,-204
32-16,198329253,-199
32-17,198333159,-178
32-18,198337065,-225
32-19,198340971,-335
32-20,198344877,-423
32-21,198348783,-449
32-22,198352689,-428
32-23,198356595,-432
32-24,198360501,-392
32-25,198364407,-257
32-26,198368313,-217
32-27,198372219,-337
32-28,198376125,-524
32-29,198380031,-611
32-30,198383937,-495
32-31,198387843,-287
32-32,198391749,-126
32-1,198395630,-32
32-2,198399536,-8
32-3,198403442,-27
32-4,198407348,-22
32-5,198411254,-12
32-6,198415160,26
32-7,198419066,39
32-8,198422972,-42
32-9,198426878,-158
32-10,198430784,-243
32-11,198434690,-276
32-12,198438596,-281
32-13,198442502,-258
32-14,198446408,-224
32-15,198450314,-226
32-16,198454220,-286
32-17,198458126,-343
32-18,198462032,-317
32-19,198465938,-223
32-20,198469844,-149
32-21,198473750,-139
32-22,198477656,-101
32-23,198481562,-20
32-24,198485468,116
32-25,198489374,262
32-26,198493280,259
32-27,198497186,163
32-28,198501092,110
32-29,198504998,254
32-30,198508904,675
32-31,198512810,1164
32-32,198516716,1418
32-1,198520628,1348
32-2,198524534,1075
32-3,198528440,873
32-4,198532346,832
32-5,198536252,743
32-6,198540158,609
32-7,198544064,513
32-8,198547970,467
32-9,198551876,423
32-10,198555782,336
32-11,198559688,266
32-12,198563594,256
32-13,198567500,276
32-14,198571406,271
32-15,198575312,257
32-16,198579218,267
32-17,198583124,272
32-18,198587030,215
32-19,198590936,117
32-20,198594842,58
32-21,198598748,56
32-22,198602654,79
32-23,198606560,53
32-24,198610466,61
32-25,198614372,153
32-26,198618278,134
32-27,198622184,-58
32-28,198626090,-288
32-29,198629996,-349
32-30,198633902,-153
32-31,198637808,144
32-32,198641714,321
32-1,198645625,326
32-2,198649531,181
32-3,198653437,-12
32-4,198657343,-117
32-5,198661249,-155
32-6,198665155,-122
32-7,198669061,-88
32-8,198672967,-128
32-9,198676873,-162
32-10,198680779,-133
32-11,198684685,-79
32-12,198688591,-71
32-13,198692497,-74
32-14,198696403,-25
32-15,198700309,38
32-16,198704215,26
32-17,198708121,-69
32-18,198712027,-179
32-19,198715933,-255
32-20,198719839,-298
32-21,198723745,-309
32-22,198727651,-236
32-23,198731557,-136
32-24,198735463,-53
32-25,198739369,11
32-26,198743275,-55
32-27,198747181,-216
32-28,198751087,-402
32-29,198754993,-501
32-30,198758899,-371
32-31,198762805,-79
32-32,198766711,147
32-1,6534122,530
32-2,6538028,397
32-3,6541934,261
32-4,6545840,237
32-5,6549746,294
32-6,6553652,401
32-7,6557558,455
32-8,6561464,396
32-9,6565370,310
32-10,6569276,270
32-11,6573182,262
32-12,6577088,215
32-13,6580994,167
32-14,6584900,172
32-15,6588806,196
32-16,6592712,164
32-17,6596618,69
32-18,6600524,-21
32-19,6604430,-75
32-20,6608336,-130
32-21,6612242,-210
32-22,6616148,-253
32-23,6620054,-262
32-24,6623960,-220
32-25,6627866,-131
32-26,6631772,-92
32-27,6635678,-102
32-28,6639584,-162
32-29,6643490,-198
32-30,6647396,-71
32-31,6651302,185
32-32,6655208,394
32-1,6659120,430
32-2,6663026,335
32-3,6666932,304
32-4,6670838,406
32-5,6674744,450
32-6,6678650,392
32-7,6682556,294
32-8,6686462,207
32-9,6690368,130
32-10,6694274,29
32-11,6698180,-48
32-12,6702086,-62
32-13,6705992,-43
32-14,6709898,-65
32-15,6713804,-107
32-16,6717710,-105
32-17,6721616,-47
32-18,6725522,-1
32-19,6729428,-5
32-20,6733334,10
32-21,6737240,52
32-22,6741146,35
32-23,6745052,-119
32-24,6748958,-276
32-25,6752864,-298
32-26,6756770,-298
32-27,6760676,-358
32-28,6764582,-426
32-29,6768488,-358
32-30,6772394,-106
32-31,6776300,180
32-32,6780206,324
32-1,6784117,322
32-2,6788023,249
32-3,6791929,167
32-4,6795835,118
32-5,6799741,65
32-6,6803647,71
32-7,6807553,127
32-8,6811459,138
32-9,6815365,129
32-10,6819271,133
32-11,6823177,127
32-12,6827083,50
32-13,6830989,-83
32-14,6834895,-202
32-15,6838801,-274
32-16,6842707,-330
32-17,6846613,-372
32-18,6850519,-365
32-19,6854425,-326
32-20,6858331,-292
32-21,6862237,-285
32-22,6866143,-251
32-23,6870049,-207
32-24,6873955,-171
32-25,6877861,-147
32-26,6881767,-217
32-27,6885673,-350
32-28,6889579,-518
32-29,6893485,-664
32-30,6897391,-650
32-31,6901297,-459
32-32,6905203,-248
32-1,6909115,-162
32-2,6913021,-226
32-3,6916927,-287
32-4,6920833,-243
32-5,6924739,-225
32-6,6928645,-238
32-7,6932551,-229
32-8,6936457,-195
32-9,6940363,-164
32-10,6944269,-182
32-11,6948175,-194
32-12,6952081,-162
32-13,6955987,-106
32-14,6959893,-93
32-15,6963799,-129
32-16,6967705,-170
32-17,6971611,-211
32-18,6975517,-292
32-19,6979423,-393
32-20,6983329,-420
32-21,6987235,-358
32-22,6991141,-286
32-23,6995047,-321
32-24,6998953,-348
32-25,7002859,-239
32-26,7006765,-146
32-27,7010671,-179
32-28,7014577,-276
32-29,7018483,-258
32-30,7022389,-53
32-31,7026295,172
32-32,7030201,231
32-1,7034112,143
32-2,7038018,2
32-3,7041924,-82
32-4,7045830,-64
32-5,7049736,-38
32-6,7053642,6
32-7,7057548,59
32-8,7061454,86
32-9,7065360,113
32-10,7069266,160
32-11,7073172,200
32-12,7077078,190
32-13,7080984,147
32-14,7084890,104
32-15,7088796,57
32-16,7092702,-42
32-17,7096608,-155
32-18,7100514,-195
32-19,7104420,-144
32-20,7108326,-80
32-21,7112232,-72
32-22,7116138,-66
32-23,7120044,-54
32-24,7123950,-30
32-25,7127856,3
32-26,7131762,-53
32-27,7135668,-180
32-28,7139574,-315
32-29,7143480,-354
32-30,7147386,-164
32-31,7151292,204
32-32,7155198,500
32-1,7159110,544
32-2,7163016,375
32-3,7166922,234
32-4,7170828,260
32-5,7174734,292
32-6,7178640,249
32-7,7182546,189
32-8,7186452,152
32-9,7190358,131
32-10,7194264,98
32-11,7198170,65
32-12,7202076,50
32-13,7205982,30
32-14,7209888,-47
32-15,7213794,-142
32-16,7217700,-182
32-17,7221606,-165
32-18,7225512,-145
32-19,7229418,-147
32-20,7233324,-122
32-21,7237230,-66
32-22,7241136,-37
32-23,7245042,-105
32-24,7248948,-159
32-25,7252854,-98
32-26,7256760,-72
32-27,7260666,-178
32-28,7264572,-330
32-29,7268478,-350
32-30,7272384,-169
32-31,7276290,47
32-32,7280196,121
32-1,7284108,72
32-2,7288014,-29
32-3,7291920,-107
32-4,7295826,-115
32-5,7299732,-134
32-6,7303638,-147
32-7,7307544,-154
32-8,7311450,-180
32-9,7315356,-170
32-10,7319262,-110
32-11,7323168,-61
32-12,7327074,-70
32-13,7330980,-87
32-14,7334886,-53
32-15,7338792,20
32-16,7342698,57
32-17,7346604,58
32-18,7350510,98
32-19,7354416,161
32-20,7358322,159
32-21,7362228,61
32-22,7366134,-28
32-23,7370040,-58
32-24,7373946,-12
32-25,7377852,56
32-26,7381758,28
32-27,7385664,-72
32-28,7389570,-200
32-29,7393476,-279
32-30,7397382,-194
32-31,7401288,28
32-32,7405194,221
32-1,7409075,262
32-2,7412981,158
32-3,7416887,86
32-4,7420793,123
32-5,7424699,97
32-6,7428605,-35
32-7,7432511,-183
32-8,7436417,-252
32-9,7440323,-241
32-10,7444229,-226
32-11,7448135,-194
32-12,7452041,-123
32-13,7455947,-32
32-14,7459853,10
32-15,7463759,-3
32-16,7467665,-21
32-17,7471571,-29
32-18,7475477,-49
32-19,7479383,-86
32-20,7483289,-111
32-21,7487195,-129
32-22,7491101,-176
32-23,7495007,-307
32-24,7498913,-392
32-25,7502819,-326
32-26,7506725,-260
32-27,7510631,-297
32-28,7514537,-384
32-29,7518443,-366
32-30,7522349,-176
32-31,7526255,45
32-32,7530161,146
32-1,7534072,144
32-2,7537978,86
32-3,7541884,8
32-4,7545790,-45
32-5,7549696,-106
32-6,7553602,-128
32-7,7557508,-139
32-8,7561414,-206
32-9,7565320,-264
32-10,7569226,-243
32-11,7573132,-164
32-12,7577038,-121
32-13,7580944,-114
32-14,7584850,-93
32-15,7588756,-52
32-16,7592662,-48
32-17,7596568,-98
32-18,7600474,-146
32-19,7604380,-155
32-20,7608286,-152
32-21,7612192,-173
32-22,7616098,-173
32-23,7620004,-168
32-24,7623910,-132
32-25,7627816,-42
32-26,7631722,31
32-27,7635628,56
32-28,7639534,1
32-29,7643440,-94
32-30,7647346,-97
32-31,7651252,26
32-32,7655158,146
32-1,7659070,135
32-2,7662976,-7
32-3,7666882,-121
32-4,7670788,-101
32-5,7674694,-84
32-6,7678600,-124
32-7,7682506,-142
32-8,7686412,-82
32-9,7690318,3
32-10,7694224,46
32-11,7698130,47
32-12,7702036,36
32-13,7705942,31
32-14,7709848,6
32-15,7713754,4
32-16,7717660,66
32-17,7721566,144
32-18,7725472,169
32-19,7729378,110
32-20,7733284,41
32-21,7737190,3
32-22,7741096,-33
32-23,7745002,-141
32-24,7748908,-208
32-25,7752814,-113
32-26,7756720,-23
32-27,7760626,-110
32-28,7764532,-361
32-29,7768438,-582
32-30,7772344,-595
32-31,7776250,-440
32-32,7780156,-280
32-1,7784068,-199
32-2,7787974,-221
32-3,7791880,-293
32-4,7795786,-312
32-5,7799692,-295
32-6,7803598,-227
32-7,7807504,-152
32-8,7811410,-144
32-9,7815316,-150
32-10,7819222,-110
32-11,7823128,-50
32-12,7827034,-50
32-13,7830940,-102
32-14,7834846,-135
32-15,7838752,-124
32-16,7842658,-129
32-17,7846564,-163
32-18,7850470,-166
32-19,7854376,-115
32-20,7858282,-57
32-21,7862188,-52
32-22,7866094,-53
32-23,7870000,-48
32-24,7873906,-16
32-25,7877812,35
32-26,7881718,-9
32-27,7885624,-128
32-28,7889530,-252
32-29,7893436,-301
32-30,7897342,-180
32-31,7901248,83
32-32,7905154,299
32-1,7909065,321
32-2,7912971,141
32-3,7916877,-53
32-4,7920783,-112
32-5,7924689,-127
32-6,7928595,-134
32-7,7932501,-125
32-8,7936407,-130
32-9,7940313,-182
32-10,7944219,-277
32-11,7948125,-329
32-12,7952031,-285
32-13,7955937,-185
32-14,7959843,-132
32-15,7963749,-143
32-16,7967655,-155
32-17,7971561,-149
32-18,7975467,-167
32-19,7979373,-220
32-20,7983279,-242
32-21,7987185,-207
32-22,7991091,-166
32-23,7994997,-201
32-24,7998903,-222
32-25,8002809,-127
32-26,8006715,-74
32-27,8010621,-163
32-28,8014527,-313
32-29,8018433,-329
32-30,8022339,-103
32-31,8026245,203
32-32,8030151,383
32-1,8034063,428
32-2,8037969,389
32-3,8041875,350
32-4,8045781,364
32-5,8049687,363
32-6,8053593,379
32-7,8057499,402
32-8,8061405,372
32-9,8065311,323
32-10,8069217,284
32-11,8073123,256
32-12,8077029,207
32-13,8080935,160
32-14,8084841,163
32-15,8088747,196
32-16,8092653,196
32-17,8096559,168
32-18,8100465,177
32-19,8104371,230
32-20,8108277,289
32-21,8112183,303
32-22,8116089,331
32-23,8119995,369
32-24,8123901,390
32-25,8127807,381
32-26,8131713,291
32-27,8135619,172
32-28,8139525,78
32-29,8143431,40
32-30,8147337,125
32-31,8151243,319
32-32,8155149,474
32-1,8159061,463
32-2,8162967,304
32-3,8166873,172
32-4,8170779,187
32-5,8174685,216
32-6,8178591,175
32-7,8182497,110
32-8,8186403,62
32-9,8190309,18
32-10,8194215,-72
32-11,8198121,-190
32-12,8202027,-278
32-13,8205933,-312
32-14,8209839,-321
32-15,8213745,-304
32-16,8217651,-238
32-17,8221557,-153
32-18,8225463,-107
32-19,8229369,-100
32-20,8233275,-68
32-21,8237181,22
32-22,8241087,114
32-23,8244993,105
32-24,8248899,88
32-25,8252805,193
32-26,8256711,302
32-27,8260617,298
32-28,8264523,202
32-29,8268429,150
32-30,8272335,251
32-31,8276241,408
32-32,8280147,477
32-1,8284058,462
32-2,8287964,383
32-3,8291870,295
32-4,8295776,243
32-5,8299682,177
32-6,8303588,136
32-7,8307494,112
32-8,8311400,57
32-9,8315306,27
32-10,8319212,60
32-11,8323118,117
32-12,8327024,115
32-13,8330930,59
32-14,8334836,20
32-15,8338742,11
32-16,8342648,-18
32-17,8346554,-83
32-18,8350460,-116
32-19,8354366,-97
32-20,8358272,-84
32-21,8362178,-125
32-22,8366084,-157
32-23,8369990,-169
32-24,8373896,-158
32-25,8377802,-132
32-26,8381708,-170
32-27,8385614,-252
32-28,8389520,-345
32-29,8393426,-391
32-30,8397332,-301
32-31,8401238,-99
32-32,8405144,76
32-1,8409025,108
32-2,8412931,5
32-3,8416837,-71
32-4,8420743,-44
32-5,8424649,-61
32-6,8428555,-156
32-7,8432461,-228
32-8,8436367,-216
32-9,8440273,-156
32-10,8444179,-129
32-11,8448085,-145
32-12,8451991,-177
32-13,8455897,-216
32-14,8459803,-296
32-15,8463709,-381
32-16,8467615,-391
32-17,8471521,-334
32-18,8475427,-307
32-19,8479333,-361
32-20,8483239,-434
32-21,8487145,-453
32-22,8491051,-416
32-23,8494957,-414
32-24,8498863,-391
32-25,8502769,-283
32-26,8506675,-260
32-27,8510581,-405
32-28,8514487,-620
32-29,8518393,-704
32-30,8522299,-540
32-31,8526205,-264
32-32,8530111,-79
32-1,8534023,-21
32-2,8537929,-65
32-3,8541835,-141
32-4,8545741,-170
32-5,8549647,-182
32-6,8553553,-144
32-7,8557459,-96
32-8,8561365,-112
32-9,8565271,-148
32-10,8569177,-139
32-11,8573083,-93
32-12,8576989,-97
32-13,8580895,-152
32-14,8584801,-189
32-15,8588707,-185
32-16,8592613,-170
32-17,8596519,-155
32-18,8600425,-100
32-19,8604331,-3
32-20,8608237,56
32-21,8612143,36
32-22,8616049,32
32-23,8619955,75
32-24,8623861,167
32-25,8627767,254
32-26,8631673,205
32-27,8635579,58
32-28,8639485,-99
32-29,8643391,-161
32-30,8647297,-21
32-31,8651203,241
32-32,8655109,424
32-1,8659021,405
32-2,8662927,218
32-3,8666833,66
32-4,8670739,73
32-5,8674645,92
32-6,8678551,75
32-7,8682457,74
32-8,8686363,122
32-9,8690269,172
32-10,8694175,142
32-11,8698081,67
32-12,8701987,21
32-13,8705893,18
32-14,8709799,-2
32-15,8713705,-43
32-16,8717611,-58
32-17,8721517,-39
32-18,8725423,-28
32-19,8729329,-46
32-20,8733235,-45
32-21,8737141,-17
32-22,8741047,8
32-23,8744953,-46
32-24,8748859,-76
32-25,8752765,2
32-26,8756671,8
32-27,8760577,-158
32-28,8764483,-402
32-29,8768389,-498
32-30,8772295,-320
32-31,8776201,-31
32-32,8780107,141
32-1,8784018,180
32-2,8787924,133
32-3,8791830,67
32-4,8795736,17
32-5,8799642,-83
32-6,8803548,-160
32-7,8807454,-192
32-8,8811360,-226
32-9,8815266,-237
32-10,8819172,-204
32-11,8823078,-156
32-12,8826984,-149
32-13,8830890,-156
32-14,8834796,-126
32-15,8838702,-61
32-16,8842608,-14
32-17,8846514,2
32-18,8850420,31
32-19,8854326,81
32-20,8858232,93
32-21,8862138,31
32-22,8866044,-7
32-23,8869950,2
32-24,8873856,57
32-25,8877762,117
32-26,8881668,78
32-27,8885574,-18
32-28,8889480,-122
32-29,8893386,-188
32-30,8897292,-129
32-31,8901198,51
32-32,8905104,221
32-1,8909016,278
32-2,8912922,208
32-3,8916828,153
32-4,8920734,206
32-5,8924640,230
32-6,8928546,191
32-7,8932452,167
32-8,8936358,206
32-9,8940264,280
32-10,8944170,304
32-11,8948076,279
32-12,8951982,255
32-13,8955888,256
32-14,8959794,243
32-15,8963700,220
32-16,8967606,237
32-17,8971512,295
32-18,8975418,323
32-19,8979324,282
32-20,8983230,235
32-21,8987136,230
32-22,8991042,243
32-23,8994948,183
32-24,8998854,125
32-25,9002760,154
32-26,9006666,135
32-27,9010572,-2
32-28,9014478,-186
32-29,9018384,-248
32-30,9022290,-99
32-31,9026196,127
32-32,9030102,256
32-1,9034014,268
32-2,9037920,212
32-3,9041826,169
32-4,9045732,176
32-5,9049638,171
32-6,9053544,188
32-7,9057450,198
32-8,9061356,157
32-9,9065262,122
32-10,9069168,126
32-11,9073074,143
32-12,9076980,100
32-13,9080886,32
32-14,9084792,23
32-15,9088698,65
32-16,9092604,78
32-17,9096510,30
32-18,9100416,-28
32-19,9104322,-63
32-20,9108228,-111
32-21,9112134,-206
32-22,9116040,-266
32-23,9119946,-270
32-24,9123852,-209
32-25,9127758,-100
32-26,9131664,-78
32-27,9135570,-140
32-28,9139476,-267
32-29,9143382,-384
32-30,9147288,-345
32-31,9151194,-144
32-32,9155100,71
32-1,9159011,174
32-2,9162917,144
32-3,9166823,136
32-4,9170729,239
32-5,9174635,265
32-6,9178541,183
32-7,9182447,96
32-8,9186353,78
32-9,9190259,130
32-10,9194165,151
32-11,9198071,135
32-12,9201977,126
32-13,9205883,126
32-14,9209789,98
32-15,9213695,45
32-16,9217601,8
32-17,9221507,-14
32-18,9225413,-79
32-19,9229319,-203
32-20,9233225,-286
32-21,9237131,-277
32-22,9241037,-235
32-23,9244943,-289
32-24,9248849,-379
32-25,9252755,-369
32-26,9256661,-361
32-27,9260567,-450
32-28,9264473,-598
32-29,9268379,-658
32-30,9272285,-518
32-31,9276191,-277
32-32,9280097,-98
32-1,9284009,-29
32-2,9287915,-62
32-3,9291821,-119
32-4,9295727,-132
32-5,9299633,-160
32-6,9303539,-190
32-7,9307445,-253
32-8,9311351,-379
32-9,9315257,-473
32-10,9319163,-473
32-11,9323069,-407
32-12,9326975,-368
32-13,9330881,-364
32-14,9334787,-320
32-15,9338693,-243
32-16,9342599,-225
32-17,9346505,-279
32-18,9350411,-328
32-19,9354317,-320
32-20,9358223,-296
32-21,9362129,-321
32-22,9366035,-349
32-23,9369941,-373
32-24,9373847,-359
32-25,9377753,-308
32-26,9381659,-341
32-27,9385565,-448
32-28,9389471,-593
32-29,9393377,-692
32-30,9397283,-613
32-31,9401189,-365
32-32,9405095,-118
32-1,9408976,-18
32-2,9412882,-82
32-3,9416788,-142
32-4,9420694,-90
32-5,9424600,-73
32-6,9428506,-114
32-7,9432412,-146
32-8,9436318,-128
32-9,9440224,-74
32-10,9444130,-49
32-11,9448036,-42
32-12,9451942,-1
32-13,9455848,68
32-14,9459754,108
32-15,9463660,122
32-16,9467566,144
32-17,9471472,168
32-18,9475378,146
32-19,9479284,70
32-20,9483190,39
32-21,9487096,84
32-22,9491002,142
32-23,9494908,112
32-24,9498814,82
32-25,9502720,174
32-26,9506626,247
32-27,9510532,157
32-28,9514438,-65
32-29,9518344,-227
32-30,9522250,-170
32-31,9526156,20
32-32,9530062,162
32-1,9533974,211
32-2,9537880,174
32-3,9541786,112
32-4,9545692,71
32-5,9549598,30
32-6,9553504,48
32-7,9557410,86
32-8,9561316,44
32-9,9565222,-53
32-10,9569128,-141
32-11,9573034,-178
32-12,9576940,-191
32-13,9580846,-191
32-14,9584752,-149
32-15,9588658,-94
32-16,9592564,-88
32-17,9596470,-132
32-18,9600376,-159
32-19,9604282,-127
32-20,9608188,-73
32-21,9612094,-60
32-22,9616000,-55
32-23,9619906,-66
32-24,9623812,-75
32-25,9627718,-68
32-26,9631624,-121
32-27,9635530,-207
32-28,9639436,-296
32-29,9643342,-327
32-30,9647248,-201
32-31,9651154,68
32-32,9655060,312
32-1,9658971,381
32-2,9662877,263
32-3,9666783,143
32-4,9670689,160
32-5,9674595,196
32-6,9678501,191
32-7,9682407,174
32-8,9686313,177
32-9,9690219,187
32-10,9694125,146
32-11,9698031,85
32-12,9701937,67
32-13,9705843,98
32-14,9709749,109
32-15,9713655,83
32-16,9717561,78
32-17,9721467,101
32-18,9725373,84
32-19,9729279,-1
32-20,9733185,-85
32-21,9737091,-119
32-22,9740997,-114
32-23,9744903,-156
32-24,9748809,-190
32-25,9752715,-112
32-26,9756621,-59
32-27,9760527,-147
32-28,9764433,-350
32-29,9768339,-499
32-30,9772245,-447
32-31,9776151,-273
32-32,9780057,-143
32-1,9783969,-83
32-2,9787875,-75
32-3,9791781,-99
32-4,9795687,-120
32-5,9799593,-156
32-6,9803499,-134
32-7,9807405,-59
32-8,9811311,-37
32-9,9815217,-67
32-10,9819123,-84
32-11,9823029,-55
32-12,9826935,-26
32-13,9830841,-25
32-14,9834747,-30
32-15,9838653,-23
32-16,9842559,-12
32-17,9846465,-9
32-18,9850371,15
32-19,9854277,65
32-20,9858183,88
32-21,9862089,48
32-22,9865995,27
32-23,9869901,56
32-24,9873807,151
32-25,9877713,265
32-26,9881619,257
32-27,9885525,145
32-28,9889431,-11
32-29,9893337,-135
32-30,9897243,-97
32-31,9901149,111
32-32,9905055,358
32-1,9908966,517
32-2,9912872,524
32-3,9916778,481
32-4,9920684,481
32-5,9924590,423
32-6,9928496,318
32-7,9932402,256
32-8,9936308,264
32-9,9940214,283
32-10,9944120,220
32-11,9948026,107
32-12,9951932,44
32-13,9955838,85
32-14,9959744,160
32-15,9963650,206
32-16,9967556,238
32-17,9971462,265
32-18,9975368,243
32-19,9979274,149
32-20,9983180,69
32-21,9987086,53
32-22,9990992,87
32-23,9994898,63
32-24,9998804,24
32-25,10002710,61
32-26,10006616,36
32-27,10010522,-132
32-28,10014428,-355
32-29,10018334,-440
32-30,10022240,-276
32-31,10026146,-7
32-32,10030052,136
32-1,10033964,131
32-2,10037870,39
32-3,10041776,-63
32-4,10045682,-132
32-5,10049588,-225
32-6,10053494,-269
32-7,10057400,-262
32-8,10061306,-282
32-9,10065212,-310
32-10,10069118,-297
32-11,10073024,-236
32-12,10076930,-189
32-13,10080836,-183
32-14,10084742,-179
32-15,10088648,-152
32-16,10092554,-128
32-17,10096460,-114
32-18,10100366,-85
32-19,10104272,-47
32-20,10108178,-48
32-21,10112084,-118
32-22,10115990,-158
32-23,10119896,-132
32-24,10123802,-53
32-25,10127708,12
32-26,10131614,-52
32-27,10135520,-190
32-28,10139426,-322
32-29,10143332,-384
32-30,10147238,-299
32-31,10151144,-92
32-32,10155050,84
32-1,10158962,113
32-2,10162868,-15
32-3,10166774,-128
32-4,10170680,-90
32-5,10174586,-27
32-6,10178492,-28
32-7,10182398,-57
32-8,10186304,-53
32-9,10190210,2
32-10,10194116,49
32-11,10198022,66
32-12,10201928,70
32-13,10205834,89
32-14,10209740,88
32-15,10213646,83
32-16,10217552,111
32-17,10221458,155
32-18,10225364,164
32-19,10229270,112
32-20,10233176,63
32-21,10237082,61
32-22,10240988,80
32-23,10244894,27
32-24,10248800,-13
32-25,10252706,64
32-26,10256612,106
32-27,10260518,-11
32-28,10264424,-211
32-29,10268330,-266
32-30,10272236,-44
32-31,10276142,301
32-32,10280048,507
32-1,10283959,527
32-2,10287865,434
32-3,10291771,332
32-4,10295677,293
32-5,10299583,255
32-6,10303489,238
32-7,10307395,225
32-8,10311301,143
32-9,10315207,43
32-10,10319113,25
32-11,10323019,68
32-12,10326925,64
32-13,10330831,-28
32-14,10334737,-137
32-15,10338643,-189
32-16,10342549,-208
32-17,10346455,-239
32-18,10350361,-250
32-19,10354267,-218
32-20,10358173,-169
32-21,10362079,-143
32-22,10365985,-122
32-23,10369891,-105
32-24,10373797,-63
32-25,10377703,-22
32-26,10381609,-68
32-27,10385515,-144
32-28,10389421,-188
32-29,10393327,-148
32-30,10397233,23
32-31,10401139,247
32-32,10405045,385
32-1,10408926,362
32-2,10412832,225
32-3,10416738,158
32-4,10420644,234
32-5,10424550,267
32-6,10428456,199
32-7,10432362,104
32-8,10436268,68
32-9,10440174,98
32-10,10444080,107
32-11,10447986,88
32-12,10451892,108
32-13,10455798,172
32-14,10459704,190
32-15,10463610,143
32-16,10467516,105
32-17,10471422,126
32-18,10475328,173
32-19,10479234,168
32-20,10483140,133
32-21,10487046,110
32-22,10490952,97
32-23,10494858,32
32-24,10498764,-4
32-25,10502670,57
32-26,10506576,77
32-27,10510482,-22
32-28,10514388,-185
32-29,10518294,-214
32-30,10522200,-9
32-31,10526106,246
32-32,10530012,320
32-1,10533924,201
32-2,10537830,-3
32-3,10541736,-135
32-4,10545642,-158
32-5,10549548,-177
32-6,10553454,-185
32-7,10557360,-207
32-8,10561266,-271
32-9,10565172,-324
32-10,10569078,-327
32-11,10572984,-290
32-12,10576890,-304
32-13,10580796,-374
32-14,10584702,-393
32-15,10588608,-332
32-16,10592514,-261
32-17,10596420,-237
32-18,10600326,-218
32-19,10604232,-165
32-20,10608138,-121
32-21,10612044,-157
32-22,10615950,-236
32-23,10619856,-338
32-24,10623762,-377
32-25,10627668,-334
32-26,10631574,-346
32-27,10635480,-408
32-28,10639386,-484
32-29,10643292,-499
32-30,10647198,-362
32-31,10651104,-114
32-32,10655010,112
32-1,10658922,212
32-2,10662828,166
32-3,10666734,123
32-4,10670640,167
32-5,10674546,154
32-6,10678452,67
32-7,10682358,-28
32-8,10686264,-74
32-9,10690170,-60
32-10,10694076,-53
32-11,10697982,-55
32-12,10701888,-34
32-13,10705794,-8
32-14,10709700,-34
32-15,10713606,-123
32-16,10717512,-190
32-17,10721418,-187
32-18,10725324,-201
32-19,10729230,-323
32-20,10733136,-499
32-21,10737042,-642
32-22,10740948,-682
32-23,10744854,-684
32-24,10748760,-632
32-25,10752666,-473
32-26,10756572,-393
32-27,10760478,-493
32-28,10764384,-692
32-29,10768290,-797
32-30,10772196,-652
32-31,10776102,-367
32-32,10780008,-159
32-1,10783919,-77
32-2,10787825,-107
32-3,10791731,-182
32-4,10795637,-249
32-5,10799543,-329
32-6,10803449,-329
32-7,10807355,-268
32-8,10811261,-263
32-9,10815167,-321
32-10,10819073,-380
32-11,10822979,-381
32-12,10826885,-361
32-13,10830791,-349
32-14,10834697,-316
32-15,10838603,-267
32-16,10842509,-244
32-17,10846415,-242
32-18,10850321,-231
32-19,10854227,-176
32-20,10858133,-111
32-21,10862039,-103
32-22,10865945,-85
32-23,10869851,-20
32-24,10873757,109
32-25,10877663,243
32-26,10881569,240
32-27,10885475,140
32-28,10889381,20
32-29,10893287,-63
32-30,10897193,-39
32-31,10901099,82
32-32,10905005,198
32-1,10908917,228
32-2,10912823,141
32-3,10916729,67
32-4,10920635,98
32-5,10924541,116
32-6,10928447,99
32-7,10932353,82
32-8,10936259,96
32-9,10940165,140
32-10,10944071,136
32-11,10947977,98
32-12,10951883,81
32-13,10955789,110
32-14,10959695,145
32-15,10963601,159
32-16,10967507,177
32-17,10971413,215
32-18,10975319,237
32-19,10979225,197
32-20,10983131,151
32-21,10987037,143
32-22,10990943,169
32-23,10994849,138
32-24,10998755,112
32-25,11002661,195
32-26,11006567,242
32-27,11010473,136
32-28,11014379,-82
32-29,11018285,-216
32-30,11022191,-118
32-31,11026097,103
32-32,11030003,242
32-1,11033915,258
32-2,11037821,186
32-3,11041727,104
32-4,11045633,72
32-5,11049539,36
32-6,11053445,46
32-7,11057351,86
32-8,11061257,60
32-9,11065163,11
32-10,11069069,26
32-11,11072975,125
32-12,11076881,232
32-13,11080787,284
32-14,11084693,304
32-15,11088599,314
32-16,11092505,270
32-17,11096411,161
32-18,11100317,44
32-19,11104223,-32
32-20,11108129,-69
32-21,11112035,-105
32-22,11115941,-107
32-23,11119847,-94
32-24,11123753,-69
32-25,11127659,-43
32-26,11131565,-93
32-27,11135471,-158
32-28,11139377,-198
32-29,11143283,-213
32-30,11147189,-147
32-31,11151095,10
32-32,11155001,180
32-1,11158912,257
32-2,11162818,187
32-3,11166724,112
32-4,11170630,145
32-5,11174536,160
32-6,11178442,98
32-7,11182348,-9
32-8,11186254,-102
32-9,11190160,-143
32-10,11194066,-176
32-11,11197972,-209
32-12,11201878,-199
32-13,11205784,-146
32-14,11209690,-127
32-15,11213596,-197
32-16,11217502,-312
32-17,11221408,-388
32-18,11225314,-403
32-19,11229220,-378
32-20,11233126,-311
32-21,11237032,-222
32-22,11240938,-148
32-23,11244844,-150
32-24,11248750,-141
32-25,11252656,-47
32-26,11256562,-3
32-27,11260468,-101
32-28,11264374,-262
32-29,11268280,-270
32-30,11272186,-22
32-31,11276092,307
32-32,11279998,484
32-1,11283910,498
32-2,11287816,433
32-3,11291722,390
32-4,11295628,387
32-5,11299534,342
32-6,11303440,300
32-7,11307346,272
32-8,11311252,215
32-9,11315158,157
32-10,11319064,138
32-11,11322970,146
32-12,11326876,123
32-13,11330782,67
32-14,11334688,45
32-15,11338594,94
32-16,11342500,138
32-17,11346406,116
32-18,11350312,88
32-19,11354218,106
32-20,11358124,157
32-21,11362030,176
32-22,11365936,170
32-23,11369842,146
32-24,11373748,144
32-25,11377654,153
32-26,11381560,73
32-27,11385466,-63
32-28,11389372,-201
32-29,11393278,-259
32-30,11397184,-164
32-31,11401090,39
32-32,11404996,197
32-1,11408877,212
32-2,11412783,90
32-3,11416689,0
32-4,11420595,50
32-5,11424501,90
32-6,11428407,58
32-7,11432313,10
32-8,11436219,10
32-9,11440125,73
32-10,11444031,110
32-11,11447937,95
32-12,11451843,76
32-13,11455749,75
32-14,11459655,36
32-15,11463561,-56
32-16,11467467,-136
32-17,11471373,-161
32-18,11475279,-153
32-19,11479185,-176
32-20,11483091,-202
32-21,11486997,-188
32-22,11490903,-156
32-23,11494809,-213
32-24,11498715,-315
32-25,11502621,-326
32-26,11506527,-335
32-27,11510433,-446
32-28,11514339,-626
32-29,11518245,-704
32-30,11522151,-542
32-31,11526057,-247
32-32,11529963,-31
32-1,11533875,36
32-2,11537781,-9
32-3,11541687,-62
32-4,11545593,-26
32-5,11549499,18
32-6,11553405,40
32-7,11557311,4
32-8,11561217,-138
32-9,11565123,-288
32-10,11569029,-326
32-11,11572935,-260
32-12,11576841,-215
32-13,11580747,-250
32-14,11584653,-282
32-15,11588559,-235
32-16,11592465,-178
32-17,11596371,-172
32-18,11600277,-169
32-19,11604183,-116
32-20,11608089,-29
32-21,11611995,18
32-22,11615901,44
32-23,11619807,62
32-24,11623713,121
32-25,11627619,213
32-26,11631525,177
32-27,11635431,15
32-28,11639337,-193
32-29,11643243,-327
32-30,11647149,-275
32-31,11651055,-67
32-32,11654961,129
32-1,11658872,189
32-2,11662778,96
32-3,11666684,28
32-4,11670590,95
32-5,11674496,130
32-6,11678402,79
32-7,11682308,3
32-8,11686214,-33
32-9,11690120,-23
32-10,11694026,-38
32-11,11697932,-68
32-12,11701838,-56
32-13,11705744,2
32-14,11709650,31
32-15,11713556,-9
32-16,11717462,-57
32-17,11721368,-51
32-18,11725274,-20
32-19,11729180,-23
32-20,11733086,-27
32-21,11736992,2
32-22,11740898,44
32-23,11744804,-9
32-24,11748710,-90
32-25,11752616,-76
32-26,11756522,-54
32-27,11760428,-103
32-28,11764334,-204
32-29,11768240,-195
32-30,11772146,18
32-31,11776052,272
32-32,11779958,345
32-1,11783870,241
32-2,11787776,80
32-3,11791682,-6
32-4,11795588,-3
32-5,11799494,-13
32-6,11803400,-6
32-7,11807306,5
32-8,11811212,-27
32-9,11815118,-73
32-10,11819024,-75
32-11,11822930,-17
32-12,11826836,13
32-13,11830742,-20
32-14,11834648,-50
32-15,11838554,-25
32-16,11842460,27
32-17,11846366,51
32-18,11850272,40
32-19,11854178,20
32-20,11858084,5
32-21,11861990,-22
32-22,11865896,-5
32-23,11869802,35
32-24,11873708,102
32-25,11877614,161
32-26,11881520,92
32-27,11885426,-47
32-28,11889332,-165
32-29,11893238,-198
32-30,11897144,-95
32-31,11901050,99
32-32,11904956,248
32-1,11908867,267
32-2,11912773,157
32-3,11916679,65
32-4,11920585,81
32-5,11924491,67
32-6,11928397,3
32-7,11932303,-54
32-8,11936209,-55
32-9,11940115,-16
32-10,11944021,-23
32-11,11947927,-79
32-12,11951833,-128
32-13,11955739,-150
32-14,11959645,-196
32-15,11963551,-280
32-16,11967457,-316
32-17,11971363,-259
32-18,11975269,-198
32-19,11979175,-227
32-20,11983081,-320
32-21,11986987,-393
32-22,11990893,-402
32-23,11994799,-415
32-24,11998705,-380
32-25,12002611,-234
32-26,12006517,-148
32-27,12010423,-224
32-28,12014329,-405
32-29,12018235,-481
32-30,12022141,-296
32-31,12026047,-1
32-32,12029953,153
32-1,12033865,148
32-2,12037771,95
32-3,12041677,116
