32-1,164779140,-530
32-2,164783046,202
32-3,164786952,1152
32-4,164790858,1676
32-5,164794764,1353
32-6,164798670,264
32-7,164802576,-848
32-8,164806482,-1222
32-9,164810388,-722
32-10,164814294,223
32-11,164818200,849
32-12,164822106,696
32-13,164826012,-164
32-14,164829918,-1247
32-15,164833824,-1814
32-16,164837730,-1484
32-17,164841636,-461
32-18,164845542,695
32-19,164849448,1285
32-20,164853354,999
32-21,164857260,38
32-22,164861166,-998
32-23,164865072,-1360
32-24,164868978,-847
32-25,164872884,150
32-26,164876790,997
32-27,164880696,1191
32-28,164884602,766
32-29,164888508,66
32-30,164892414,-443
32-31,164896320,-436
32-32,164900226,1
32-1,164903985,666
32-2,164907891,1246
32-3,164911797,1368
32-4,164915703,786
32-5,164919609,-341
32-6,164923515,-1258
32-7,164927421,-1315
32-8,164931327,-567
32-9,164935233,380
32-10,164939139,809
32-11,164943045,447
32-12,164946951,-495
32-13,164950857,-1440
32-14,164954763,-1698
32-15,164958669,-1087
32-16,164962575,22
32-17,164966481,984
32-18,164970387,1200
32-19,164974293,532
32-20,164978199,-581
32-21,164982105,-1344
32-22,164986011,-1320
32-23,164989917,-780
32-24,164993823,-225
32-25,164997729,-52
32-26,165001635,-291
32-27,165005541,-637
32-28,165009447,-796
32-29,165013353,-524
32-30,165017259,94
32-31,165021165,815
32-32,165025071,1547
32-1,165029166,2076
32-2,165033072,2193
32-3,165036978,1738
32-4,165040884,813
32-5,165044790,-28
32-6,165048696,-343
32-7,165052602,-132
32-8,165056508,183
32-9,165060414,127
32-10,165064320,-387
32-11,165068226,-1166
32-12,165072132,-1739
32-13,165076038,-1634
32-14,165079944,-850
32-15,165083850,273
32-16,165087756,1132
32-17,165091662,1226
32-18,165095568,526
32-19,165099474,-583
32-20,165103380,-1349
32-21,165107286,-1231
32-22,165111192,-351
32-23,165115098,763
32-24,165119004,1393
32-25,165122910,1061
32-26,165126816,-15
32-27,165130722,-1105
32-28,165134628,-1427
32-29,165138534,-770
32-30,165142440,405
32-31,165146346,1444
32-32,165150252,1827
32-1,165153981,1418
32-2,165157887,398
32-3,165161793,-653
32-4,165165699,-1098
32-5,165169605,-736
32-6,165173511,132
32-7,165177417,785
32-8,165181323,708
32-9,165185229,-82
32-10,165189135,-1152
32-11,165193041,-1761
32-12,165196947,-1447
32-13,165200853,-420
32-14,165204759,731
32-15,165208665,1315
32-16,165212571,1020
32-17,165216477,48
32-18,165220383,-1020
32-19,165224289,-1444
32-20,165228195,-989
32-21,165232101,18
32-22,165236007,1013
32-23,165239913,1416
32-24,165243819,1025
32-25,165247725,41
32-26,165251631,-944
32-27,165255537,-1258
32-28,165259443,-769
32-29,165263349,218
32-30,165267255,1153
32-31,165271161,1470
32-32,165275067,972
32-1,165278978,-131
32-2,165282884,-1144
32-3,165286790,-1374
32-4,165290696,-712
32-5,165294602,420
32-6,165298508,1248
32-7,165302414,1233
32-8,165306320,371
32-9,165310226,-826
32-10,165314132,-1517
32-11,165318038,-1273
32-12,165321944,-325
32-13,165325850,669
32-14,165329756,1018
32-15,165333662,531
32-16,165337568,-507
32-17,165341474,-1463
32-18,165345380,-1677
32-19,165349286,-1076
32-20,165353192,-36
32-21,165357098,865
32-22,165361004,1086
32-23,165364910,516
32-24,165368816,-553
32-25,165372722,-1375
32-26,165376628,-1309
32-27,165380534,-440
32-28,165384440,734
32-29,165388346,1552
32-30,165392252,1585
32-31,165396158,827
32-32,165400064,-349
32-1,165403976,-1191
32-2,165407882,-1189
32-3,165411788,-388
32-4,165415694,741
32-5,165419600,1467
32-6,165423506,1314
32-7,165427412,335
32-8,165431318,-847
32-9,165435224,-1396
32-10,165439130,-1032
32-11,165443036,-94
32-12,165446942,746
32-13,165450848,898
32-14,165454754,284
32-15,165458660,-731
32-16,165462566,-1452
32-17,165466472,-1345
32-18,165470378,-494
32-19,165474284,625
32-20,165478190,1368
32-21,165482096,1309
32-22,165486002,467
32-23,165489908,-615
32-24,165493814,-1121
32-25,165497720,-861
32-26,165501626,-269
32-27,165505532,182
32-28,165509438,302
32-29,165513344,230
32-30,165517250,21
32-31,165521156,-296
32-32,165525062,-499
32-1,165528974,-412
32-2,165532880,157
32-3,165536786,1093
32-4,165540692,1814
32-5,165544598,1836
32-6,165548504,1070
32-7,165552410,69
32-8,165556316,-480
32-9,165560222,-398
32-10,165564128,79
32-11,165568034,401
32-12,165571940,177
32-13,165575846,-533
32-14,165579752,-1366
32-15,165583658,-1742
32-16,165587564,-1383
32-17,165591470,-477
32-18,165595376,530
32-19,165599282,1043
32-20,165603188,763
32-21,165607094,-170
32-22,165611000,-1175
32-23,165614906,-1483
32-24,165618812,-876
32-25,165622718,215
32-26,165626624,1103
32-27,165630530,1275
32-28,165634436,802
32-29,165638342,66
32-30,165642248,-458
32-31,165646154,-460
32-32,165650060,-33
32-1,165653971,624
32-2,165657877,1202
32-3,165661783,1315
32-4,165665689,715
32-5,165669595,-435
32-6,165673501,-1364
32-7,165677407,-1421
32-8,165681313,-649
32-9,165685219,350
32-10,165689125,837
32-11,165693031,515
32-12,165696937,-377
32-13,165700843,-1251
32-14,165704749,-1449
32-15,165708655,-821
32-16,165712561,279
32-17,165716467,1237
32-18,165720373,1444
32-19,165724279,762
32-20,165728185,-466
32-21,165732091,-1474
32-22,165735997,-1581
32-23,165739903,-779
32-24,165743809,418
32-25,165747715,1191
32-26,165751621,1015
32-27,165755527,105
32-28,165759433,-853
32-29,165763339,-1117
32-30,165767245,-507
32-31,165771151,483
32-32,165775057,1312
32-1,165779152,1629
32-2,165783058,1338
32-3,165786964,501
32-4,165790870,-587
32-5,165794776,-1259
32-6,165798682,-1098
32-7,165802588,-288
32-8,165806494,513
32-9,165810400,678
32-10,165814306,102
32-11,165818212,-910
32-12,165822118,-1727
32-13,165826024,-1771
32-14,165829930,-1030
32-15,165833836,95
32-16,165837742,962
32-17,165841648,1056
32-18,165845554,361
32-19,165849460,-696
32-20,165853366,-1353
32-21,165857272,-1126
32-22,165861178,-210
32-23,165865084,854
32-24,165868990,1430
32-25,165872896,1095
32-26,165876802,55
32-27,165880708,-1004
32-28,165884614,-1332
32-29,165888520,-739
32-30,165892426,335
32-31,165896332,1293
32-32,165900238,1661
32-1,165903967,1281
32-2,165907873,292
32-3,165911779,-744
32-4,165915685,-1196
32-5,165919591,-858
32-6,165923497,-29
32-7,165927403,602
32-8,165931309,571
32-9,165935215,-93
32-10,165939121,-1019
32-11,165943027,-1575
32-12,165946933,-1346
32-13,165950839,-458
32-14,165954745,606
32-15,165958651,1197
32-16,165962557,938
32-17,165966463,-29
32-18,165970369,-1135
32-19,165974275,-1602
32-20,165978181,-1137
32-21,165982087,-66
32-22,165985993,957
32-23,165989899,1289
32-24,165993805,750
32-25,165997711,-376
32-26,166001617,-1396
32-27,166005523,-1618
32-28,166009429,-933
32-29,166013335,283
32-30,166017241,1361
32-31,166021147,1681
32-32,166025053,1080
32-1,166029361,-125
32-2,166033267,-1138
32-3,166037173,-1277
32-4,166041079,-526
32-5,166044985,634
32-6,166048891,1428
32-7,166052797,1344
32-8,166056703,412
32-9,166060609,-845
32-10,166064515,-1558
32-11,166068421,-1292
32-12,166072327,-306
32-13,166076233,712
32-14,166080139,1062
32-15,166084045,565
32-16,166087951,-474
32-17,166091857,-1391
32-18,166095763,-1500
32-19,166099669,-739
32-20,166103575,421
32-21,166107481,1296
32-22,166111387,1364
32-23,166115293,632
32-24,166119199,-503
32-25,166123105,-1299
32-26,166127011,-1219
32-27,166130917,-416
32-28,166134823,653
32-29,166138729,1406
32-30,166142635,1445
32-31,166146541,745
32-32,166150447,-364
32-1,166154353,-1180
32-2,166158259,-1187
32-3,166162165,-380
32-4,166166071,802
32-5,166169977,1618
32-6,166173883,1524
32-7,166177789,521
32-8,166181695,-759
32-9,166185601,-1433
32-10,166189507,-1137
32-11,166193413,-174
32-12,166197319,739
32-13,166201225,941
32-14,166205131,295
32-15,166209037,-748
32-16,166212943,-1428
32-17,166216849,-1346
32-18,166220755,-797
32-19,166224661,-292
32-20,166228567,-168
32-21,166232473,-400
32-22,166236379,-804
32-23,166240285,-1189
32-24,166244191,-1218
32-25,166248097,-769
32-26,166252003,130
32-27,166255909,1279
32-28,166259815,2182
32-29,166263721,2459
32-30,166267627,1949
32-31,166271533,916
32-32,166275439,23
32-1,166278959,-294
32-2,166282865,10
32-3,166286771,577
32-4,166290677,797
32-5,166294583,365
32-6,166298489,-603
32-7,166302395,-1490
32-8,166306301,-1640
32-9,166310207,-987
32-10,166314113,32
32-11,166318019,733
32-12,166321925,681
32-13,166325831,-49
32-14,166329737,-1002
32-15,166333643,-1486
32-16,166337549,-1144
32-17,166341455,-167
32-18,166345361,934
32-19,166349267,1498
32-20,166353173,1182
32-21,166357079,117
32-22,166360985,-1077
32-23,166364891,-1554
32-24,166368797,-1045
32-25,166372703,7
32-26,166376609,861
32-27,166380515,987
32-28,166384421,494
32-29,166388327,-192
32-30,166392233,-612
32-31,166396139,-511
32-32,166400045,1
32-1,166403957,737
32-2,166407863,1394
32-3,166411769,1557
32-4,166415675,945
32-5,166419581,-246
32-6,166423487,-1188
32-7,166427393,-1216
32-8,166431299,-418
32-9,166435205,539
32-10,166439111,904
32-11,166443017,437
32-12,166446923,-582
32-13,166450829,-1553
32-14,166454735,-1793
32-15,166458641,-1146
32-16,166462547,14
32-17,166466453,1040
32-18,166470359,1317
32-19,166474265,707
32-20,166478171,-468
32-21,166482077,-1441
32-22,166485983,-1515
32-23,166489889,-693
32-24,166493795,483
32-25,166497701,1197
32-26,166501607,962
32-27,166505513,38
32-28,166509419,-877
32-29,166513325,-1080
32-30,166517231,-446
32-31,166521137,540
32-32,166525043,1384
32-1,166529168,1724
32-2,166533074,1417
32-3,166536980,513
32-4,166540886,-632
32-5,166544792,-1297
32-6,166548698,-1074
32-7,166552604,-180
32-8,166556510,695
32-9,166560416,909
32-10,166564322,359
32-11,166568228,-635
32-12,166572134,-1424
32-13,166576040,-1426
32-14,166579946,-648
32-15,166583852,479
32-16,166587758,1292
32-17,166591664,1279
32-18,166595570,428
32-19,166599476,-820
32-20,166603382,-1637
32-21,166607288,-1472
32-22,166611194,-506
32-23,166615100,656
32-24,166619006,1276
32-25,166622912,908
32-26,166626818,-193
32-27,166630724,-1306
32-28,166634630,-1650
32-29,166638536,-993
32-30,166642442,245
32-31,166646348,1418
32-32,166650254,1948
32-1,166653952,1591
32-2,166657858,479
32-3,166661764,-727
32-4,166665670,-1276
32-5,166669576,-900
32-6,166673482,59
32-7,166677388,806
32-8,166681294,805
32-9,166685200,98
32-10,166689106,-895
32-11,166693012,-1491
32-12,166696918,-1260
32-13,166700824,-352
32-14,166704730,751
32-15,166708636,1391
32-16,166712542,1166
32-17,166716448,178
32-18,166720354,-1017
32-19,166724260,-1578
32-20,166728166,-1145
32-21,166732072,-57
32-22,166735978,963
32-23,166739884,1238
32-24,166743790,604
32-25,166747696,-601
32-26,166751602,-1634
32-27,166755508,-1787
32-28,166759414,-1000
32-29,166763320,280
32-30,166767226,1360
32-31,166771132,1638
32-32,166775038,985
32-1,166778944,-268
32-2,166782850,-1288
32-3,166786756,-1358
32-4,166790662,-501
32-5,166794568,737
32-6,166798474,1558
32-7,166802380,1459
32-8,166806286,495
32-9,166810192,-788
32-10,166814098,-1531
32-11,166818004,-1292
32-12,166821910,-324
32-13,166825816,696
32-14,166829722,1071
32-15,166833628,562
32-16,166837534,-562
32-17,166841440,-1584
32-18,166845346,-1757
32-19,166849252,-993
32-20,166853158,239
32-21,166857064,1214
32-22,166860970,1348
32-23,166864876,618
32-24,166868782,-566
32-25,166872688,-1411
32-26,166876594,-1336
32-27,166880500,-478
32-28,166884406,697
32-29,166888312,1560
32-30,166892218,1623
32-31,166896124,833
32-32,166900030,-417
32-1,166903948,-1326
32-2,166907854,-1317
32-3,166911760,-425
32-4,166915666,822
32-5,166919572,1637
32-6,166923478,1500
32-7,166927384,466
32-8,166931290,-793
32-9,166935196,-1391
32-10,166939102,-1021
32-11,166943008,-34
32-12,166946914,825
32-13,166950820,935
32-14,166954726,247
32-15,166958632,-849
32-16,166962538,-1618
32-17,166966444,-1482
32-18,166970350,-534
32-19,166974256,684
32-20,166978162,1433
32-21,166982068,1256
32-22,166985974,257
32-23,166989880,-986
32-24,166993786,-1605
32-25,166997692,-1233
32-26,167001598,-208
32-27,167005504,869
32-28,167009410,1449
32-29,167013316,1329
32-30,167017222,626
32-31,167021128,-263
32-32,167025034,-741
32-1,167028945,-530
32-2,167032851,270
32-3,167036757,1213
32-4,167040663,1659
32-5,167044569,1248
32-6,167048475,103
32-7,167052381,-1016
32-8,167056287,-1341
32-9,167060193,-770
32-10,167064099,203
32-11,167068005,799
32-12,167071911,594
32-13,167075817,-288
32-14,167079723,-1332
32-15,167083629,-1792
32-16,167087535,-1340
32-17,167091441,-284
32-18,167095347,777
32-19,167099253,1190
32-20,167103159,735
32-21,167107065,-312
32-22,167110971,-1317
32-23,167114877,-1537
32-24,167118783,-861
32-25,167122689,226
32-26,167126595,1087
32-27,167130501,1249
32-28,167134407,775
32-29,167138313,36
32-30,167142219,-481
32-31,167146125,-468
32-32,167150031,-20
32-1,167153943,660
32-2,167157849,1251
32-3,167161755,1362
32-4,167165661,746
32-5,167169567,-415
32-6,167173473,-1332
32-7,167177379,-1353
32-8,167181285,-556
32-9,167185191,444
32-10,167189097,915
32-11,167193003,586
32-12,167196909,-293
32-13,167200815,-1161
32-14,167204721,-1380
32-15,167208627,-821
32-16,167212533,174
32-17,167216439,1047
32-18,167220345,1259
32-19,167224251,679
32-20,167228157,-395
32-21,167232063,-1258
32-22,167235969,-1341
32-23,167239875,-714
32-24,167243781,134
32-25,167247687,550
32-26,167251593,235
32-27,167255499,-510
32-28,167259405,-1125
32-29,167263311,-1127
32-30,167267217,-503
32-31,167271123,391
32-32,167275029,1278
32-1,167279337,1886
32-2,167283243,2004
32-3,167287149,1473
32-4,167291055,443
32-5,167294961,-443
32-6,167298867,-683
32-7,167302773,-268
32-8,167306679,305
32-9,167310585,448
32-10,167314491,33
32-11,167318397,-748
32-12,167322303,-1400
32-13,167326209,-1391
32-14,167330115,-687
32-15,167334021,364
32-16,167337927,1180
32-17,167341833,1278
32-18,167345739,573
32-19,167349645,-616
32-20,167353551,-1535
32-21,167357457,-1559
32-22,167361363,-739
32-23,167365269,385
32-24,167369175,1085
32-25,167373081,900
32-26,167376987,-3
32-27,167380893,-980
32-28,167384799,-1268
32-29,167388705,-659
32-30,167392611,439
32-31,167396517,1454
32-32,167400423,1862
32-1,167403938,1431
32-2,167407844,291
32-3,167411750,-908
32-4,167415656,-1417
32-5,167419562,-985
32-6,167423468,27
32-7,167427374,858
32-8,167431280,914
32-9,167435186,147
32-10,167439092,-857
32-11,167442998,-1362
32-12,167446904,-1184
32-13,167450810,-733
32-14,167454716,-440
32-15,167458622,-460
32-16,167462528,-637
32-17,167466434,-848
32-18,167470340,-1007
32-19,167474246,-882
32-20,167478152,-385
32-21,167482058,532
32-22,167485964,1632
32-23,167489870,2362
32-24,167493776,2343
32-25,167497682,1489
32-26,167501588,278
32-27,167505494,-522
32-28,167509400,-518
32-29,167513306,153
32-30,167517212,866
32-31,167521118,969
32-32,167525024,333
32-1,167528936,-695
32-2,167532842,-1426
32-3,167536748,-1361
32-4,167540654,-546
32-5,167544560,658
32-6,167548466,1589
32-7,167552372,1718
32-8,167556278,957
32-9,167560184,-275
32-10,167564090,-1109
32-11,167567996,-1043
32-12,167571902,-269
32-13,167575808,580
32-14,167579714,824
32-15,167583620,311
32-16,167587526,-662
32-17,167591432,-1492
32-18,167595338,-1574
32-19,167599244,-854
32-20,167603150,246
32-21,167607056,1076
32-22,167610962,1125
32-23,167614868,378
32-24,167618774,-771
32-25,167622680,-1567
32-26,167626586,-1446
32-27,167630492,-542
32-28,167634398,646
32-29,167638304,1457
32-30,167642210,1464
32-31,167646116,677
32-32,167650022,-519
32-1,167653928,-1352
32-2,167657834,-1289
32-3,167661740,-412
32-4,167665646,748
32-5,167669552,1437
32-6,167673458,1191
32-7,167677364,131
32-8,167681270,-1066
32-9,167685176,-1556
32-10,167689082,-1086
32-11,167692988,-66
32-12,167696894,762
32-13,167700800,820
32-14,167704706,100
32-15,167708612,-991
32-16,167712518,-1732
32-17,167716424,-1605
32-18,167720330,-740
32-19,167724236,368
32-20,167728142,1061
32-21,167732048,935
32-22,167735954,69
32-23,167739860,-1045
32-24,167743766,-1611
32-25,167747672,-1273
32-26,167751578,-328
32-27,167755484,699
32-28,167759390,1335
32-29,167763296,1354
32-30,167767202,764
32-31,167771108,-123
32-32,167775014,-706
32-1,167778931,-608
32-2,167782837,155
32-3,167786743,1145
32-4,167790649,1659
32-5,167794555,1278
32-6,167798461,119
32-7,167802367,-1037
32-8,167806273,-1380
32-9,167810179,-805
32-10,167814085,217
32-11,167817991,910
32-12,167821897,774
32-13,167825803,-119
32-14,167829709,-1273
32-15,167833615,-1911
32-16,167837521,-1609
32-17,167841427,-564
32-18,167845333,661
32-19,167849239,1346
32-20,167853145,1103
32-21,167857051,102
32-22,167860957,-1001
32-23,167864863,-1388
32-24,167868769,-841
32-25,167872675,188
32-26,167876581,1016
32-27,167880487,1127
32-28,167884393,610
32-29,167888299,-125
32-30,167892205,-604
32-31,167896111,-538
32-32,167900017,-44
32-1,167903929,660
32-2,167907835,1243
32-3,167911741,1310
32-4,167915647,628
32-5,167919553,-591
32-6,167923459,-1521
32-7,167927365,-1477
32-8,167931271,-544
32-9,167935177,584
32-10,167939083,1106
32-11,167942989,710
32-12,167946895,-340
32-13,167950801,-1392
32-14,167954707,-1681
32-15,167958613,-1019
32-16,167962519,164
32-17,167966425,1176
32-18,167970331,1410
32-19,167974237,761
32-20,167978143,-421
32-21,167982049,-1397
32-22,167985955,-1505
32-23,167989861,-722
32-24,167993767,457
32-25,167997673,1227
32-26,168001579,1072
32-27,168005485,198
32-28,168009391,-731
32-29,168013297,-1002
32-30,168017203,-456
32-31,168021109,464
32-32,168025015,1299
32-1,168029140,1674
32-2,168033046,1417
32-3,168036952,563
32-4,168040858,-566
32-5,168044764,-1265
32-6,168048670,-1107
32-7,168052576,-291
32-8,168056482,514
32-9,168060388,681
32-10,168064294,99
32-11,168068200,-923
32-12,168072106,-1705
32-13,168076012,-1655
32-14,168079918,-806
32-15,168083824,357
32-16,168087730,1155
32-17,168091636,1140
32-18,168095542,350
32-19,168099448,-796
32-20,168103354,-1520
32-21,168107260,-1311
32-22,168111166,-364
32-23,168115072,757
32-24,168118978,1344
32-25,168122884,963
32-26,168126790,-121
32-27,168130696,-1188
32-28,168134602,-1474
32-29,168138508,-802
32-30,168142414,361
32-31,168146320,1384
32-32,168150226,1756
32-1,168278922,5
32-2,168282828,-1111
32-3,168286734,-1344
32-4,168290640,-650
32-5,168294546,498
32-6,168298452,1306
32-7,168302358,1230
32-8,168306264,302
32-9,168310170,-923
32-10,168314076,-1564
32-11,168317982,-1222
32-12,168321888,-198
32-13,168325794,816
32-14,168329700,1148
32-15,168333606,641
32-16,168337512,-392
32-17,168341418,-1300
32-18,168345324,-1404
32-19,168349230,-647
32-20,168353136,507
32-21,168357042,1374
32-22,168360948,1404
32-23,168364854,593
32-24,168368760,-627
32-25,168372666,-1459
32-26,168376572,-1358
32-27,168380478,-500
32-28,168384384,624
32-29,168388290,1413
32-30,168392196,1462
32-31,168396102,758
32-32,168400008,-343
32-1,168403919,-1123
32-2,168407825,-1078
32-3,168411731,-268
32-4,168415637,857
32-5,168419543,1608
32-6,168423449,1513
32-7,168427355,591
32-8,168431261,-595
32-9,168435167,-1239
32-10,168439073,-993
32-11,168442979,-107
32-12,168446885,733
32-13,168450791,889
32-14,168454697,281
32-15,168458603,-734
32-16,168462509,-1481
32-17,168466415,-1441
32-18,168470321,-674
32-19,168474227,405
32-20,168478133,1158
32-21,168482039,1110
32-22,168485945,252
32-23,168489851,-964
32-24,168493757,-1685
32-25,168497663,-1413
32-26,168501569,-395
32-27,168505475,742
32-28,168509381,1386
32-29,168513287,1281
32-30,168517193,510
32-31,168521099,-525
32-32,168525005,-1167
32-1,168528917,-1035
32-2,168532823,-166
32-3,168536729,942
32-4,168540635,1532
32-5,168544541,1155
32-6,168548447,-49
32-7,168552353,-1188
32-8,168556259,-1432
32-9,168560165,-761
32-10,168564071,282
32-11,168567977,929
32-12,168571883,760
32-13,168575789,-94
32-14,168579695,-1166
32-15,168583601,-1739
32-16,168587507,-1415
32-17,168591413,-386
32-18,168595319,824
32-19,168599225,1519
32-20,168603131,1281
32-21,168607037,241
32-22,168610943,-939
32-23,168614849,-1390
32-24,168618755,-811
32-25,168622661,363
32-26,168626567,1329
32-27,168630473,1455
32-28,168634379,804
32-29,168638285,-155
32-30,168642191,-795
32-31,168646097,-743
32-32,168650003,-151
32-1,168653909,683
32-2,168657815,1330
32-3,168661721,1362
32-4,168665627,640
32-5,168669533,-561
32-6,168673439,-1455
32-7,168677345,-1411
32-8,168681251,-549
32-9,168685157,486
32-10,168689063,964
32-11,168692969,565
32-12,168696875,-483
32-13,168700781,-1544
32-14,168704687,-1864
32-15,168708593,-1224
32-16,168712499,-16
32-17,168716405,1017
32-18,168720311,1230
32-19,168724217,572
32-20,168728123,-572
32-21,168732029,-1453
32-22,168735935,-1441
32-23,168739841,-589
32-24,168743747,570
32-25,168747653,1248
32-26,168751559,948
32-27,168755465,-44
32-28,168759371,-1025
32-29,168763277,-1271
32-30,168767183,-591
32-31,168771089,504
32-32,168774995,1409
32-1,168778912,1746
32-2,168782818,1422
32-3,168786724,531
32-4,168790630,-569
32-5,168794536,-1192
32-6,168798442,-964
32-7,168802348,-110
32-8,168806254,695
32-9,168810160,859
32-10,168814066,297
32-11,168817972,-729
32-12,168821878,-1576
32-13,168825784,-1602
32-14,168829690,-816
32-15,168833596,313
32-16,168837502,1113
32-17,168841408,1080
32-18,168845314,245
32-19,168849220,-917
32-20,168853126,-1621
32-21,168857032,-1360
32-22,168860938,-363
32-23,168864844,766
32-24,168868750,1356
32-25,168872656,982
32-26,168876562,-121
32-27,168880468,-1203
32-28,168884374,-1469
32-29,168888280,-743
32-30,168892186,496
32-31,168896092,1572
32-32,168899998,1936
32-1,168903910,1427
32-2,168907816,256
32-3,168911722,-917
32-4,168915628,-1388
32-5,168919534,-958
32-6,168923440,37
32-7,168927346,843
32-8,168931252,888
32-9,168935158,160
32-10,168939064,-900
32-11,168942970,-1553
32-12,168946876,-1322
32-13,168950782,-385
32-14,168954688,703
32-15,168958594,1267
32-16,168962500,976
32-17,168966406,1
32-18,168970312,-1094
32-19,168974218,-1536
32-20,168978124,-1036
32-21,168982030,70
32-22,168985936,1122
32-23,168989842,1458
32-24,168993748,919
32-25,168997654,-164
32-26,169001560,-1100
32-27,169005466,-1205
32-28,169009372,-416
32-29,169013278,836
32-30,169017184,1866
32-31,169021090,2060
32-32,169024996,1251
32-1,169028907,-198
32-2,169032813,-1398
32-3,169036719,-1634
32-4,169040625,-953
32-5,169044531,52
32-6,169048437,638
32-7,169052343,475
32-8,169056249,-227
32-9,169060155,-982
32-10,169064061,-1212
32-11,169067967,-708
32-12,169071873,336
32-13,169075779,1520
32-14,169079685,2257
32-15,169083591,2134
32-16,169087497,1133
32-17,169091403,-156
32-18,169095309,-852
32-19,169099215,-640
32-20,169103121,160
32-21,169107027,870
32-22,169110933,963
32-23,169114839,421
32-24,169118745,-460
32-25,169122651,-1069
32-26,169126557,-971
32-27,169130463,-280
32-28,169134369,664
32-29,169138275,1353
32-30,169142181,1365
32-31,169146087,588
32-32,169149993,-672
32-1,169153905,-1620
32-2,169157811,-1623
32-3,169161717,-687
32-4,169165623,639
32-5,169169529,1509
32-6,169173435,1359
32-7,169177341,393
32-8,169181247,-641
32-9,169185153,-1105
32-10,169189059,-1001
32-11,169192965,-708
32-12,169196871,-546
32-13,169200777,-608
32-14,169204683,-802
32-15,169208589,-1073
32-16,169212495,-1198
32-17,169216401,-964
32-18,169220307,-286
32-19,169224213,790
32-20,169228119,1819
32-21,169232025,2300
32-22,169235931,1949
32-23,169239837,967
32-24,169243743,120
32-25,169247649,-56
32-26,169251555,378
32-27,169255461,961
32-28,169259367,1185
32-29,169263273,912
32-30,169267179,249
32-31,169271085,-544
32-32,169274991,-1051
32-1,169278903,-1048
32-2,169282809,-490
32-3,169286715,302
32-4,169290621,660
32-5,169294527,211
32-6,169298433,-883
32-7,169302339,-1804
32-8,169306245,-1761
32-9,169310151,-743
32-10,169314057,660
32-11,169317963,1619
32-12,169321869,1662
32-13,169325775,886
32-14,169329681,-230
32-15,169333587,-957
32-16,169337493,-875
32-17,169341399,-144
32-18,169345305,715
32-19,169349211,1046
32-20,169353117,548
32-21,169357023,-596
32-22,169360929,-1755
32-23,169364835,-2113
32-24,169368741,-1467
32-25,169372647,-297
32-26,169376553,663
32-27,169380459,890
32-28,169384365,506
32-29,169388271,-76
32-30,169392177,-421
32-31,169396083,-287
32-32,169399989,200
32-1,169403900,873
32-2,169407806,1476
32-3,169411712,1621
32-4,169415618,1021
32-5,169419524,-173
32-6,169423430,-1184
32-7,169427336,-1338
32-8,169431242,-691
32-9,169435148,162
32-10,169439054,533
32-11,169442960,180
32-12,169446866,-680
32-13,169450772,-1517
32-14,169454678,-1672
32-15,169458584,-965
32-16,169462490,267
32-17,169466396,1386
32-18,169470302,1754
32-19,169474208,1204
32-20,169478114,46
32-21,169482020,-954
32-22,169485926,-1102
32-23,169489832,-390
32-24,169493738,679
32-25,169497644,1330
32-26,169501550,1061
32-27,169505456,86
32-28,169509362,-926
32-29,169513268,-1266
32-30,169517174,-744
32-31,169521080,211
32-32,169524986,1112
32-1,169528898,1565
32-2,169532804,1375
32-3,169536710,567
32-4,169540616,-513
32-5,169544522,-1152
32-6,169548428,-941
32-7,169552334,-91
32-8,169556240,722
32-9,169560146,871
32-10,169564052,279
32-11,169567958,-741
32-12,169571864,-1551
32-13,169575770,-1568
32-14,169579676,-795
32-15,169583582,330
32-16,169587488,1130
32-17,169591394,1090
32-18,169595300,207
32-19,169599206,-1059
32-20,169603112,-1883
32-21,169607018,-1714
32-22,169610924,-734
32-23,169614830,452
32-24,169618736,1118
32-25,169622642,835
32-26,169626548,-133
32-27,169630454,-1080
32-28,169634360,-1255
32-29,169638266,-496
32-30,169642172,708
32-31,169646078,1686
32-32,169649984,1914
32-1,169653956,1284
32-2,169657862,47
32-3,169661768,-1144
32-4,169665674,-1615
32-5,169669580,-1162
32-6,169673486,-126
32-7,169677392,721
32-8,169681298,803
32-9,169685204,104
32-10,169689110,-946
32-11,169693016,-1553
32-12,169696922,-1197
32-13,169700828,-86
32-14,169704734,1160
32-15,169708640,1813
32-16,169712546,1525
32-17,169716452,478
32-18,169720358,-745
32-19,169724264,-1331
32-20,169728170,-957
32-21,169732076,45
32-22,169735982,1015
32-23,169739888,1291
32-24,169743794,677
32-25,169747700,-539
32-26,169751606,-1637
32-27,169755512,-1885
32-28,169759418,-1166
32-29,169763324,109
32-30,169767230,1240
32-31,169771136,1594
32-32,169775042,1021
32-1,169778893,-161
32-2,169782799,-1146
32-3,169786705,-1241
32-4,169790611,-445
32-5,169794517,745
32-6,169798423,1534
32-7,169802329,1405
32-8,169806235,424
32-9,169810141,-857
32-10,169814047,-1575
32-11,169817953,-1319
32-12,169821859,-382
32-13,169825765,567
32-14,169829671,866
32-15,169833577,337
32-16,169837483,-721
32-17,169841389,-1636
32-18,169845295,-1702
32-19,169849201,-860
32-20,169853107,408
32-21,169857013,1382
32-22,169860919,1497
32-23,169864825,740
32-24,169868731,-464
32-25,169872637,-1316
32-26,169876543,-1240
32-27,169880449,-399
32-28,169884355,715
32-29,169888261,1473
32-30,169892167,1444
32-31,169896073,624
32-32,169899979,-608
32-1,169903891,-1504
32-2,169907797,-1518
32-3,169911703,-679
32-4,169915609,546
32-5,169919515,1398
32-6,169923421,1337
32-7,169927327,380
32-8,169931233,-843
32-9,169935139,-1415
32-10,169939045,-984
32-11,169942951,102
32-12,169946857,1080
32-13,169950763,1287
32-14,169954669,640
32-15,169958575,-473
32-16,169962481,-1325
32-17,169966387,-1343
32-18,169970293,-594
32-19,169974199,442
32-20,169978105,1094
32-21,169982011,921
32-22,169985917,-9
32-23,169989823,-1173
32-24,169993729,-1733
32-25,169997635,-1307
32-26,170001541,-227
32-27,170005447,889
32-28,170009353,1485
32-29,170013259,1380
32-30,170017165,698
32-31,170021071,-200
32-32,170024977,-742
32-1,170028888,-625
32-2,170032794,105
32-3,170036700,1036
32-4,170040606,1490
32-5,170044512,1051
32-6,170048418,-160
32-7,170052324,-1337
32-8,170056230,-1660
32-9,170060136,-1035
32-10,170064042,42
32-11,170067948,785
32-12,170071854,706
32-13,170075760,-105
32-14,170079666,-1150
32-15,170083572,-1660
32-16,170087478,-1248
32-17,170091384,-178
32-18,170095290,939
32-19,170099196,1429
32-20,170103102,1017
32-21,170107008,-62
32-22,170110914,-1165
32-23,170114820,-1510
32-24,170118726,-908
32-25,170122632,171
32-26,170126538,1009
32-27,170130444,1088
32-28,170134350,526
32-29,170138256,-250
32-30,170142162,-751
32-31,170146068,-682
32-32,170149974,-171
32-1,170153886,585
32-2,170157792,1272
32-3,170161698,1488
32-4,170165604,963
32-5,170169510,-141
32-6,170173416,-1037
32-7,170177322,-1057
32-8,170181228,-270
32-9,170185134,702
32-10,170189040,1117
32-11,170192946,678
32-12,170196852,-391
32-13,170200758,-1482
32-14,170204664,-1848
32-15,170208570,-1291
32-16,170212476,-189
32-17,170216382,801
32-18,170220288,1072
32-19,170224194,512
32-20,170228100,-549
32-21,170232006,-1404
32-22,170235912,-1423
32-23,170239818,-610
32-24,170243724,569
32-25,170247630,1360
32-26,170251536,1238
32-27,170255442,365
32-28,170259348,-629
32-29,170263254,-1013
32-30,170267160,-559
32-31,170271066,327
32-32,170274972,1142
32-1,170279219,1473
32-2,170283125,1155
32-3,170287031,249
32-4,170290937,-882
32-5,170294843,-1517
32-6,170298749,-1258
32-7,170302655,-331
32-8,170306561,578
32-9,170310467,821
32-10,170314373,275
32-11,170318279,-744
32-12,170322185,-1568
32-13,170326091,-1573
32-14,170329997,-760
32-15,170333903,414
32-16,170337809,1279
32-17,170341715,1324
32-18,170345621,527
32-19,170349527,-675
32-20,170353433,-1463
32-21,170357339,-1302
32-22,170361245,-381
32-23,170365151,700
32-24,170369057,1227
32-25,170372963,818
32-26,170376869,-234
32-27,170380775,-1227
32-28,170384681,-1457
32-29,170388587,-782
32-30,170392493,366
32-31,170396399,1418
32-32,170400305,1863
32-1,170403881,1501
32-2,170407787,464
32-3,170411693,-660
32-4,170415599,-1160
32-5,170419505,-764
32-6,170423411,227
32-7,170427317,1049
32-8,170431223,1113
32-9,170435129,379
32-10,170439035,-745
32-11,170442941,-1507
32-12,170446847,-1390
32-13,170450753,-533
32-14,170454659,539
32-15,170458565,1151
32-16,170462471,927
32-17,170466377,-17
32-18,170470283,-1143
32-19,170474189,-1650
32-20,170478095,-1190
32-21,170482001,-80
32-22,170485907,1006
32-23,170489813,1385
32-24,170493719,854
32-25,170497625,-300
32-26,170501531,-1369
32-27,170505437,-1621
32-28,170509343,-948
32-29,170513249,255
32-30,170517155,1293
32-31,170521061,1541
32-32,170524967,866
32-1,170528879,-397
32-2,170532785,-1423
32-3,170536691,-1518
32-4,170540597,-700
32-5,170544503,533
32-6,170548409,1414
32-7,170552315,1425
32-8,170556221,596
32-9,170560127,-569
32-10,170564033,-1238
32-11,170567939,-991
32-12,170571845,-69
32-13,170575751,893
32-14,170579657,1217
32-15,170583563,681
32-16,170587469,-449
32-17,170591375,-1494
32-18,170595281,-1725
32-19,170599187,-1046
32-20,170603093,96
32-21,170606999,996
32-22,170610905,1088
32-23,170614811,351
32-24,170618717,-805
32-25,170622623,-1596
32-26,170626529,-1444
32-27,170630435,-499
32-28,170634341,745
32-29,170638247,1631
32-30,170642153,1694
32-31,170646059,911
32-32,170649965,-321
32-1,170653877,-1213
32-2,170657783,-1208
32-3,170661689,-356
32-4,170665595,826
32-5,170669501,1561
32-6,170673407,1356
32-7,170677313,296
32-8,170681219,-948
32-9,170685125,-1501
32-10,170689031,-1077
32-11,170692937,-51
32-12,170696843,821
32-13,170700749,921
32-14,170704655,225
32-15,170708561,-855
32-16,170712467,-1590
32-17,170716373,-1431
32-18,170720279,-502
32-19,170724185,672
32-20,170728091,1391
32-21,170731997,1232
32-22,170735903,310
32-23,170739809,-857
32-24,170743715,-1475
32-25,170747621,-1158
32-26,170751527,-193
32-27,170755433,874
32-28,170759339,1508
32-29,170763245,1452
32-30,170767151,757
32-31,170771057,-210
32-32,170774963,-825
32-1,170778874,-725
32-2,170782780,38
32-3,170786686,1011
32-4,170790592,1518
32-5,170794498,1158
32-6,170798404,50
32-7,170802310,-1029
32-8,170806216,-1300
32-9,170810122,-678
32-10,170814028,351
32-11,170817934,1007
32-12,170821840,821
32-13,170825746,-108
32-14,170829652,-1267
32-15,170833558,-1875
32-16,170837464,-1525
32-17,170841370,-477
32-18,170845276,657
32-19,170849182,1191
32-20,170853088,833
32-21,170856994,-176
32-22,170860900,-1210
32-23,170864806,-1490
32-24,170868712,-827
32-25,170872618,294
32-26,170876524,1162
32-27,170880430,1276
32-28,170884336,736
32-29,170888242,-28
32-30,170892148,-530
32-31,170896054,-490
32-32,170899960,-32
32-1,170904024,630
32-2,170907930,1205
32-3,170911836,1325
32-4,170915742,734
32-5,170919648,-392
32-6,170923554,-1290
32-7,170927460,-1312
32-8,170931366,-527
32-9,170935272,435
32-10,170939178,853
32-11,170943084,457
32-12,170946990,-521
32-13,170950896,-1486
32-14,170954802,-1732
32-15,170958708,-1092
32-16,170962614,48
32-17,170966520,1029
32-18,170970426,1250
32-19,170974332,618
32-20,170978238,-531
32-21,170982144,-1461
32-22,170986050,-1524
32-23,170989956,-727
32-24,170993862,442
32-25,170997768,1215
32-26,171001674,1080
32-27,171005580,216
32-28,171009486,-727
32-29,171013392,-1032
32-30,171017298,-498
32-31,171021204,446
32-32,171025110,1310
32-1,171028869,1714
32-2,171032775,1490
32-3,171036681,671
32-4,171040587,-426
32-5,171044493,-1105
32-6,171048399,-951
32-7,171052305,-136
32-8,171056211,690
32-9,171060117,872
32-10,171064023,282
32-11,171067929,-784
32-12,171071835,-1645
32-13,171075741,-1664
32-14,171079647,-842
32-15,171083553,335
32-16,171087459,1181
32-17,171091365,1208
32-18,171095271,433
32-19,171099177,-713
32-20,171103083,-1466
32-21,171106989,-1302
32-22,171110895,-386
32-23,171114801,723
32-24,171118707,1338
32-25,171122613,1019
32-26,171126519,-7
32-27,171130425,-1054
32-28,171134331,-1383
32-29,171138237,-806
32-30,171142143,267
32-31,171146049,1255
32-32,171149955,1637
32-1,171153867,1220
32-2,171157773,147
32-3,171161679,-963
32-4,171165585,-1415
32-5,171169491,-976
32-6,171173397,23
32-7,171177303,812
32-8,171181209,834
32-9,171185115,89
32-10,171189021,-993
32-11,171192927,-1670
32-12,171196833,-1454
32-13,171200739,-506
32-14,171204645,655
32-15,171208551,1350
32-16,171212457,1190
32-17,171216363,273
32-18,171220269,-865
32-19,171224175,-1408
32-20,171228081,-1011
32-21,171231987,10
32-22,171235893,989
32-23,171239799,1277
32-24,171243705,706
32-25,171247611,-412
32-26,171251517,-1393
32-27,171255423,-1549
32-28,171259329,-792
32-29,171263235,478
32-30,171267141,1585
32-31,171271047,1915
32-32,171274953,1321
32-1,171278865,113
32-2,171282771,-924
32-3,171286677,-1122
32-4,171290583,-464
32-5,171294489,600
32-6,171298395,1344
32-7,171302301,1280
32-8,171306207,417
32-9,171310113,-757
32-10,171314019,-1417
32-11,171317925,-1152
32-12,171321831,-222
32-13,171325737,731
32-14,171329643,1043
32-15,171333549,539
32-16,171337455,-488
32-17,171341361,-1401
32-18,171345267,-1532
32-19,171349173,-810
32-20,171353079,343
32-21,171356985,1267
32-22,171360891,1391
32-23,171364797,647
32-24,171368703,-589
32-25,171372609,-1530
32-26,171376515,-1549
32-27,171380421,-734
32-28,171384327,455
32-29,171388233,1365
32-30,171392139,1506
32-31,171396045,818
32-32,171399951,-331
32-1,171403862,-1171
32-2,171407768,-1155
32-3,171411674,-330
32-4,171415580,807
32-5,171419486,1517
32-6,171423392,1315
32-7,171427298,270
32-8,171431204,-950
32-9,171435110,-1473
32-10,171439016,-1029
32-11,171442922,-13
32-12,171446828,827
32-13,171450734,904
32-14,171454640,225
32-15,171458546,-807
32-16,171462452,-1513
32-17,171466358,-1394
32-18,171470264,-540
32-19,171474170,595
32-20,171478076,1355
32-21,171481982,1250
32-22,171485888,308
32-23,171489794,-816
32-24,171493700,-1314
32-25,171497606,-1055
32-26,171501512,-516
32-27,171505418,-139
32-28,171509324,-9
32-29,171513230,48
32-30,171517136,6
32-31,171521042,-205
32-32,171524948,-393
32-1,171528860,-321
32-2,171532766,298
32-3,171536672,1326
32-4,171540578,2114
32-5,171544484,2163
32-6,171548390,1371
32-7,171552296,294
32-8,171556202,-355
32-9,171560108,-369
32-10,171564014,12
32-11,171567920,261
32-12,171571826,22
32-13,171575732,-636
32-14,171579638,-1384
32-15,171583544,-1686
32-16,171587450,-1266
32-17,171591356,-306
32-18,171595262,737
32-19,171599168,1242
32-20,171603074,899
32-21,171606980,-133
32-22,171610886,-1252
32-23,171614792,-1650
32-24,171618698,-1085
32-25,171622604,11
32-26,171626510,929
32-27,171630416,1122
32-28,171634322,661
32-29,171638228,-49
32-30,171642134,-528
32-31,171646040,-483
32-32,171649946,-21
32-1,171653858,662
32-2,171657764,1269
32-3,171661670,1415
32-4,171665576,843
32-5,171669482,-279
32-6,171673388,-1194
32-7,171677294,-1258
32-8,171681200,-523
32-9,171685106,418
32-10,171689012,857
32-11,171692918,505
32-12,171696824,-445
32-13,171700730,-1436
32-14,171704636,-1749
32-15,171708542,-1162
32-16,171712448,-22
32-17,171716354,1010
32-18,171720260,1290
32-19,171724166,678
32-20,171728072,-495
32-21,171731978,-1475
32-22,171735884,-1575
32-23,171739790,-780
32-24,171743696,409
32-25,171747602,1207
32-26,171751508,1080
32-27,171755414,212
32-28,171759320,-749
32-29,171763226,-1077
32-30,171767132,-561
32-31,171771038,379
32-32,171774944,1250
32-1,171778855,1650
32-2,171782761,1399
32-3,171786667,539
32-4,171790573,-582
32-5,171794479,-1238
32-6,171798385,-1016
32-7,171802291,-133
32-8,171806197,728
32-9,171810103,918
32-10,171814009,333
32-11,171817915,-715
32-12,171821821,-1563
32-13,171825727,-1591
32-14,171829633,-788
32-15,171833539,380
32-16,171837445,1223
32-17,171841351,1228
32-18,171845257,400
32-19,171849163,-803
32-20,171853069,-1575
32-21,171856975,-1382
32-22,171860881,-412
32-23,171864787,740
32-24,171868693,1367
32-25,171872599,1048
32-26,171876505,26
32-27,171880411,-1009
32-28,171884317,-1306
32-29,171888223,-674
32-30,171892129,454
32-31,171896035,1474
32-32,171899941,1865
32-1,171903853,1448
32-2,171907759,378
32-3,171911665,-738
32-4,171915571,-1211
32-5,171919477,-804
32-6,171923383,163
32-7,171927289,937
32-8,171931195,961
32-9,171935101,220
32-10,171939007,-864
32-11,171942913,-1532
32-12,171946819,-1297
32-13,171950725,-342
32-14,171954631,768
32-15,171958537,1348
32-16,171962443,1061
32-17,171966349,62
32-18,171970255,-1097
32-19,171974161,-1614
32-20,171978067,-1167
32-21,171981973,-73
32-22,171985879,998
32-23,171989785,1369
32-24,171993691,835
32-25,171997597,-300
32-26,172001503,-1325
32-27,172005409,-1526
32-28,172009315,-813
32-29,172013221,408
32-30,172017127,1480
32-31,172021033,1796
32-32,172024939,1196
32-1,172028850,-30
32-2,172032756,-1107
32-3,172036662,-1339
32-4,172040568,-684
32-5,172044474,410
32-6,172048380,1189
32-7,172052286,1142
32-8,172056192,283
32-9,172060098,-876
32-10,172064004,-1513
32-11,172067910,-1229
32-12,172071816,-271
32-13,172075722,737
32-14,172079628,1133
32-15,172083534,701
32-16,172087440,-327
32-17,172091346,-1313
32-18,172095252,-1541
32-19,172099158,-898
32-20,172103064,207
32-21,172106970,1101
32-22,172110876,1213
32-23,172114782,501
32-24,172118688,-646
32-25,172122594,-1453
32-26,172126500,-1344
32-27,172130406,-467
32-28,172134312,686
32-29,172138218,1489
32-30,172142124,1524
32-31,172146030,787
32-32,172149936,-370
32-1,172153848,-1211
32-2,172157754,-1195
32-3,172161660,-333
32-4,172165566,897
32-5,172169472,1709
32-6,172173378,1565
32-7,172177284,526
32-8,172181190,-736
32-9,172185096,-1324
32-10,172189002,-941
32-11,172192908,36
32-12,172196814,880
32-13,172200720,986
32-14,172204626,322
32-15,172208532,-733
32-16,172212438,-1493
32-17,172216344,-1416
32-18,172220250,-586
32-19,172224156,527
32-20,172228062,1246
32-21,172231968,1133
32-22,172235874,232
32-23,172239780,-949
32-24,172243686,-1564
32-25,172247592,-1231
32-26,172251498,-264
32-27,172255404,738
32-28,172259310,1259
32-29,172263216,1131
32-30,172267122,453
32-31,172271028,-434
32-32,172274934,-977
32-1,172278846,-858
32-2,172282752,-85
32-3,172286658,966
32-4,172290564,1598
32-5,172294470,1350
32-6,172298376,289
32-7,172302282,-823
32-8,172306188,-1180
32-9,172310094,-683
32-10,172314000,213
32-11,172317906,775
32-12,172321812,579
32-13,172325718,-260
32-14,172329624,-1267
32-15,172333530,-1744
32-16,172337436,-1341
32-17,172341342,-292
32-18,172345248,838
32-19,172349154,1377
32-20,172353060,1019
32-21,172356966,-50
32-22,172360872,-1204
32-23,172364778,-1628
32-24,172368684,-1072
32-25,172372590,42
32-26,172376496,999
32-27,172380402,1233
32-28,172384308,792
32-29,172388214,64
32-30,172392120,-460
32-31,172396026,-457
32-32,172399932,-21
32-1,172403843,663
32-2,172407749,1290
32-3,172411655,1445
32-4,172415561,839
32-5,172419467,-357
32-6,172423373,-1330
32-7,172427279,-1375
32-8,172431185,-559
32-9,172435091,468
32-10,172438997,945
32-11,172442903,578
32-12,172446809,-388
32-13,172450715,-1362
32-14,172454621,-1641
32-15,172458527,-1041
32-16,172462433,80
32-17,172466339,1089
32-18,172470245,1369
32-19,172474151,793
32-20,172478057,-324
32-21,172481963,-1273
32-22,172485869,-1398
32-23,172489775,-645
32-24,172493681,551
32-25,172497587,1420
32-26,172501493,1372
32-27,172505399,506
32-28,172509305,-549
32-29,172513211,-1001
32-30,172517117,-558
32-31,172521023,378
32-32,172524929,1265
32-1,172528841,1662
32-2,172532747,1384
32-3,172536653,490
32-4,172540559,-669
32-5,172544465,-1364
32-6,172548371,-1141
32-7,172552277,-186
32-8,172556183,803
32-9,172560089,1109
32-10,172563995,558
32-11,172567901,-530
32-12,172571807,-1445
32-13,172575713,-1504
32-14,172579619,-676
32-15,172583525,542
32-16,172587431,1410
32-17,172591337,1380
32-18,172595243,469
32-19,172599149,-832
32-20,172603055,-1664
32-21,172606961,-1450
32-22,172610867,-399
32-23,172614773,830
32-24,172618679,1472
32-25,172622585,1105
32-26,172626491,19
32-27,172630397,-1042
32-28,172634303,-1326
32-29,172638209,-681
32-30,172642115,434
32-31,172646021,1414
32-32,172649927,1777
32-1,172653839,1365
32-2,172657745,319
32-3,172661651,-797
32-4,172665557,-1316
32-5,172669463,-993
32-6,172673369,-108
32-7,172677275,619
32-8,172681181,635
32-9,172685087,-74
32-10,172688993,-1102
32-11,172692899,-1729
32-12,172696805,-1477
32-13,172700711,-524
32-14,172704617,597
32-15,172708523,1230
32-16,172712429,1015
32-17,172716335,64
32-18,172720241,-1099
32-19,172724147,-1670
32-20,172728053,-1303
32-21,172731959,-260
32-22,172735865,813
32-23,172739771,1227
32-24,172743677,763
32-25,172747583,-307
32-26,172751489,-1285
32-27,172755395,-1492
32-28,172759301,-842
32-29,172763207,285
32-30,172767113,1293
32-31,172771019,1636
32-32,172774925,1178
32-1,172778836,166
32-2,172782742,-709
32-3,172786648,-797
32-4,172790554,-83
32-5,172794460,969
32-6,172798366,1639
32-7,172802272,1510
32-8,172806178,651
32-9,172810084,-517
32-10,172813990,-1285
32-11,172817896,-1253
32-12,172821802,-541
32-13,172825708,347
32-14,172829614,783
32-15,172833520,480
32-16,172837426,-434
32-17,172841332,-1358
32-18,172845238,-1531
32-19,172849144,-831
32-20,172853050,257
32-21,172856956,1035
32-22,172860862,1020
32-23,172864768,284
32-24,172868674,-768
32-25,172872580,-1441
32-26,172876486,-1270
32-27,172880392,-440
32-28,172884298,639
32-29,172888204,1433
32-30,172892110,1540
32-31,172896016,879
32-32,172899922,-220
32-1,172903834,-999
32-2,172907740,-937
32-3,172911646,-92
32-4,172915552,1096
32-5,172919458,1892
32-6,172923364,1751
32-7,172927270,670
32-8,172931176,-720
32-9,172935082,-1464
32-10,172938988,-1178
32-11,172942894,-216
32-12,172946800,677
32-13,172950706,843
32-14,172954612,198
32-15,172958518,-860
32-16,172962424,-1624
32-17,172966330,-1583
32-18,172970236,-809
32-19,172974142,264
32-20,172978048,996
32-21,172981954,962
32-22,172985860,172
32-23,172989766,-906
32-24,172993672,-1460
32-25,172997578,-1127
32-26,173001484,-189
32-27,173005390,821
32-28,173009296,1377
32-29,173013202,1282
32-30,173017108,641
32-31,173021014,-224
32-32,173024920,-774
32-1,173028832,-696
32-2,173032738,14
32-3,173036644,1006
32-4,173040550,1598
32-5,173044456,1304
32-6,173048362,197
32-7,173052268,-956
32-8,173056174,-1351
32-9,173060080,-847
32-10,173063986,111
32-11,173067892,759
32-12,173071798,638
32-13,173075704,-174
32-14,173079610,-1214
32-15,173083516,-1737
32-16,173087422,-1351
32-17,173091328,-273
32-18,173095234,914
32-19,173099140,1478
32-20,173103046,1099
32-21,173106952,13
32-22,173110858,-1129
32-23,173114764,-1532
32-24,173118670,-994
32-25,173122576,55
32-26,173126482,956
32-27,173130388,1202
32-28,173134294,813
32-29,173138200,95
32-30,173142106,-494
32-31,173146012,-578
32-32,173149918,-160
32-1,173153829,585
32-2,173157735,1260
32-3,173161641,1390
32-4,173165547,712
32-5,173169453,-533
32-6,173173359,-1479
32-7,173177265,-1451
32-8,173181171,-569
32-9,173185077,507
32-10,173188983,1020
32-11,173192889,657
32-12,173196795,-355
32-13,173200701,-1403
32-14,173204607,-1731
32-15,173208513,-1120
32-16,173212419,53
32-17,173216325,1097
32-18,173220231,1361
32-19,173224137,746
32-20,173228043,-362
32-21,173231949,-1202
32-22,173235855,-1168
32-23,173239761,-333
32-24,173243667,773
32-25,173247573,1370
32-26,173251479,1010
32-27,173255385,12
32-28,173259291,-900
32-29,173263197,-1054
32-30,173267103,-365
32-31,173271009,631
32-32,173274915,1435
32-1,173278827,1744
32-2,173282733,1480
32-3,173286639,678
32-4,173290545,-407
32-5,173294451,-1124
32-6,173298357,-1056
32-7,173302263,-335
32-8,173306169,424
32-9,173310075,623
32-10,173313981,174
32-11,173317887,-656
32-12,173321793,-1308
32-13,173325699,-1253
32-14,173329605,-517
32-15,173333511,530
32-16,173337417,1330
32-17,173341323,1387
32-18,173345229,629
32-19,173349135,-570
32-20,173353041,-1430
32-21,173356947,-1372
32-22,173360853,-514
32-23,173364759,580
32-24,173368665,1212
32-25,173372571,943
32-26,173376477,-26
32-27,173380383,-1047
32-28,173384289,-1387
32-29,173388195,-811
32-30,173392101,325
32-31,173396007,1428
32-32,173399913,1930
32-1,173403824,1608
32-2,173407730,583
32-3,173411636,-594
32-4,173415542,-1227
32-5,173419448,-1002
32-6,173423354,-122
32-7,173427260,731
32-8,173431166,939
32-9,173435072,350
32-10,173438978,-710
32-11,173442884,-1497
32-12,173446790,-1429
32-13,173450696,-582
32-14,173454602,530
32-15,173458508,1237
32-16,173462414,1124
32-17,173466320,202
32-18,173470226,-1023
32-19,173474132,-1682
32-20,173478038,-1347
32-21,173481944,-266
32-22,173485850,864
32-23,173489756,1297
32-24,173493662,814
32-25,173497568,-278
32-26,173501474,-1281
32-27,173505380,-1505
32-28,173509286,-855
32-29,173513192,332
32-30,173517098,1453
32-31,173521004,1826
32-32,173524910,1188
32-1,173528816,-177
32-2,173532722,-1415
32-3,173536628,-1717
32-4,173540534,-986
32-5,173544440,255
32-6,173548346,1161
32-7,173552252,1196
32-8,173556158,381
32-9,173560064,-786
32-10,173563970,-1465
32-11,173567876,-1194
32-12,173571782,-165
32-13,173575688,956
32-14,173579594,1353
32-15,173583500,749
32-16,173587406,-530
32-17,173591312,-1707
32-18,173595218,-1977
32-19,173599124,-1255
32-20,173603030,-52
32-21,173606936,912
32-22,173610842,1082
32-23,173614748,426
32-24,173618654,-677
32-25,173622560,-1487
32-26,173626466,-1412
32-27,173630372,-544
32-28,173634278,640
32-29,173638184,1481
32-30,173642090,1523
32-31,173645996,732
32-32,173649902,-517
32-1,173653820,-1412
32-2,173657726,-1365
32-3,173661632,-422
32-4,173665538,870
32-5,173669444,1701
32-6,173673350,1562
32-7,173677256,538
32-8,173681162,-711
32-9,173685068,-1305
32-10,173688974,-926
32-11,173692880,58
32-12,173696786,894
32-13,173700692,969
32-14,173704598,247
32-15,173708504,-872
32-16,173712410,-1643
32-17,173716316,-1498
32-18,173720222,-558
32-19,173724128,637
32-20,173728034,1359
32-21,173731940,1190
32-22,173735846,243
32-23,173739752,-949
32-24,173743658,-1528
32-25,173747564,-1107
32-26,173751470,-79
32-27,173755376,929
32-28,173759282,1416
32-29,173763188,1231
32-30,173767094,526
32-31,173771000,-327
32-32,173774906,-813
32-1,173778817,-662
32-2,173782723,87
32-3,173786629,1079
32-4,173790535,1699
32-5,173794441,1457
32-6,173798347,382
32-7,173802253,-722
32-8,173806159,-1074
32-9,173810065,-638
32-10,173813971,124
32-11,173817877,525
32-12,173821783,218
32-13,173825689,-618
32-14,173829595,-1541
32-15,173833501,-1900
32-16,173837407,-1387
32-17,173841313,-292
32-18,173845219,809
32-19,173849125,1254
32-20,173853031,789
32-21,173856937,-266
32-22,173860843,-1261
32-23,173864749,-1536
32-24,173868655,-988
32-25,173872561,-42
32-26,173876467,719
32-27,173880373,866
32-28,173884279,482
32-29,173888185,-108
32-30,173892091,-492
32-31,173895997,-410
32-32,173899903,30
32-1,173903815,653
32-2,173907721,1185
32-3,173911627,1274
32-4,173915533,699
32-5,173919439,-424
32-6,173923345,-1389
32-7,173927251,-1519
32-8,173931157,-792
32-9,173935063,221
32-10,173938969,771
32-11,173942875,514
32-12,173946781,-374
32-13,173950687,-1322
32-14,173954593,-1605
32-15,173958499,-1040
32-16,173962405,-4
32-17,173966311,885
32-18,173970217,1084
32-19,173974123,527
32-20,173978029,-497
32-21,173981935,-1340
32-22,173985841,-1372
32-23,173989747,-587
32-24,173993653,532
32-25,173997559,1240
32-26,174001465,1037
32-27,174005371,131
32-28,174009277,-812
32-29,174013183,-1080
32-30,174017089,-489
32-31,174020995,503
32-32,174024901,1362
32-1,174028813,1700
32-2,174032719,1380
32-3,174036625,467
32-4,174040531,-689
32-5,174044437,-1365
32-6,174048343,-1160
32-7,174052249,-281
32-8,174056155,606
32-9,174060061,840
32-10,174063967,289
32-11,174067873,-746
32-12,174071779,-1583
32-13,174075685,-1579
32-14,174079591,-746
32-15,174083497,446
32-16,174087403,1328
32-17,174091309,1393
32-18,174095215,606
32-19,174099121,-593
32-20,174103027,-1380
32-21,174106933,-1223
32-22,174110839,-344
32-23,174114745,653
32-24,174118651,1107
32-25,174122557,681
32-26,174126463,-320
32-27,174130369,-1235
32-28,174134275,-1410
32-29,174138181,-740
32-30,174142087,346
32-31,174145993,1327
32-32,174149899,1721
32-1,174153810,1345
32-2,174157716,334
32-3,174161622,-737
32-4,174165528,-1214
32-5,174169434,-841
32-6,174173340,108
32-7,174177246,911
32-8,174181152,1027
32-9,174185058,402
32-10,174188964,-601
32-11,174192870,-1290
32-12,174196776,-1143
32-13,174200682,-219
32-14,174204588,988
32-15,174208494,1731
32-16,174212400,1542
32-17,174216306,491
32-18,174220212,-889
32-19,174224118,-1718
32-20,174228024,-1537
32-21,174231930,-561
32-22,174235836,577
32-23,174239742,1137
32-24,174243648,806
32-25,174247554,-243
32-26,174251460,-1310
32-27,174255366,-1578
32-28,174259272,-862
32-29,174263178,439
32-30,174267084,1593
32-31,174270990,1906
32-32,174274896,1178
32-1,174278808,-241
32-2,174282714,-1459
32-3,174286620,-1694
32-4,174290526,-929
32-5,174294432,316
32-6,174298338,1243
32-7,174302244,1310
32-8,174306150,528
32-9,174310056,-609
32-10,174313962,-1265
32-11,174317868,-984
32-12,174321774,31
32-13,174325680,1120
32-14,174329586,1505
32-15,174333492,931
32-16,174337398,-282
32-17,174341304,-1376
32-18,174345210,-1573
32-19,174349116,-812
32-20,174353022,391
32-21,174356928,1326
32-22,174360834,1446
32-23,174364740,736
32-24,174368646,-423
32-25,174372552,-1281
32-26,174376458,-1219
32-27,174380364,-333
32-28,174384270,852
32-29,174388176,1639
32-30,174392082,1565
32-31,174395988,640
32-32,174399894,-592
32-1,174403805,-1311
32-2,174407711,-1213
32-3,174411617,-631
32-4,174415523,-85
32-5,174419429,35
32-6,174423335,-280
32-7,174427241,-820
32-8,174431147,-1264
32-9,174435053,-1264
32-10,174438959,-778
32-11,174442865,130
32-12,174446771,1182
32-13,174450677,1880
32-14,174454583,1893
32-15,174458489,1183
32-16,174462395,247
32-17,174466301,-298
32-18,174470207,-288
32-19,174474113,49
32-20,174478019,205
32-21,174481925,-132
32-22,174485831,-860
32-23,174489737,-1634
32-24,174493643,-1883
32-25,174497549,-1383
32-26,174501455,-405
32-27,174505361,628
32-28,174509267,1274
32-29,174513173,1329
32-30,174517079,826
32-31,174520985,41
32-32,174524891,-495
32-1,174528803,-442
32-2,174532709,198
32-3,174536615,1063
32-4,174540521,1528
32-5,174544427,1182
32-6,174548333,115
32-7,174552239,-948
32-8,174556145,-1267
32-9,174560051,-747
32-10,174563957,196
32-11,174567863,855
32-12,174571769,785
32-13,174575675,-3
32-14,174579581,-1074
32-15,174583487,-1641
32-16,174587393,-1291
32-17,174591299,-211
32-18,174595205,1006
32-19,174599111,1566
32-20,174603017,1162
32-21,174606923,57
32-22,174610829,-1100
32-23,174614735,-1433
32-24,174618641,-755
32-25,174622547,385
32-26,174626453,1252
32-27,174630359,1262
32-28,174634265,548
32-29,174638171,-368
32-30,174642077,-960
32-31,174645983,-871
32-32,174649889,-234
32-1,174653795,526
32-2,174657701,1016
32-3,174661607,970
32-4,174665513,269
32-5,174669419,-793
32-6,174673325,-1523
32-7,174677231,-1418
32-8,174681137,-492
32-9,174685043,824
32-10,174688949,1833
32-11,174692855,2021
32-12,174696761,1242
32-13,174700667,-115
32-14,174704573,-1098
32-15,174708479,-1185
32-16,174712385,-563
32-17,174716291,170
32-18,174720197,354
32-19,174724103,-135
32-20,174728009,-957
32-21,174731915,-1514
32-22,174735821,-1342
32-23,174739727,-486
32-24,174743633,599
32-25,174747539,1256
32-26,174751445,1078
32-27,174755351,214
32-28,174759257,-717
32-29,174763163,-1004
32-30,174767069,-480
32-31,174770975,443
32-32,174774881,1349
32-1,174778798,1862
32-2,174782704,1759
32-3,174786610,972
32-4,174790516,-259
32-5,174794422,-1150
32-6,174798328,-1162
32-7,174802234,-408
32-8,174806140,472
32-9,174810046,777
32-10,174813952,300
32-11,174817858,-702
32-12,174821764,-1574
32-13,174825670,-1674
32-14,174829576,-921
32-15,174833482,268
32-16,174837388,1191
32-17,174841294,1310
32-18,174845200,581
32-19,174849106,-582
32-20,174853012,-1354
32-21,174856918,-1172
32-22,174860824,-223
32-23,174864730,896
32-24,174868636,1452
32-25,174872542,1023
32-26,174876448,-123
32-27,174880354,-1282
32-28,174884260,-1688
32-29,174888166,-1120
32-30,174892072,-4
32-31,174895978,1053
32-32,174899884,1527
32-1,174903796,1195
32-2,174907702,224
32-3,174911608,-759
32-4,174915514,-1147
32-5,174919420,-815
32-6,174923326,-116
32-7,174927232,322
32-8,174931138,175
32-9,174935044,-438
32-10,174938950,-1177
32-11,174942856,-1520
32-12,174946762,-1162
32-13,174950668,-196
32-14,174954574,1067
32-15,174958480,2036
32-16,174962386,2189
32-17,174966292,1398
32-18,174970198,91
32-19,174974104,-816
32-20,174978010,-797
32-21,174981916,-53
32-22,174985822,764
32-23,174989728,1004
32-24,174993634,520
32-25,174997540,-395
32-26,175001446,-1157
32-27,175005352,-1220
32-28,175009258,-546
32-29,175013164,523
32-30,175017070,1419
32-31,175020976,1626
32-32,175024882,1031
32-1,175028794,-73
32-2,175032700,-949
32-3,175036606,-999
32-4,175040512,-264
32-5,175044418,803
32-6,175048324,1484
32-7,175052230,1327
32-8,175056136,386
32-9,175060042,-832
32-10,175063948,-1502
32-11,175067854,-1239
32-12,175071760,-336
32-13,175075666,572
32-14,175079572,857
32-15,175083478,365
32-16,175087384,-597
32-17,175091290,-1416
32-18,175095196,-1487
32-19,175099102,-778
32-20,175103008,299
32-21,175106914,1143
32-22,175110820,1245
32-23,175114726,582
32-24,175118632,-489
32-25,175122538,-1224
32-26,175126444,-1101
32-27,175130350,-283
32-28,175134256,764
32-29,175138162,1436
32-30,175142068,1365
32-31,175145974,625
32-32,175149880,-430
32-1,175153791,-1207
32-2,175157697,-1281
32-3,175161603,-653
32-4,175165509,372
32-5,175169415,1210
32-6,175173321,1371
32-7,175177227,756
32-8,175181133,-206
32-9,175185039,-742
32-10,175188945,-496
32-11,175192851,253
32-12,175196757,835
32-13,175200663,769
32-14,175204569,150
32-15,175208475,-694
32-16,175212381,-1266
32-17,175216287,-1166
32-18,175220193,-463
32-19,175224099,501
32-20,175228005,1180
32-21,175231911,1136
32-22,175235817,318
32-23,175239723,-862
32-24,175243629,-1551
32-25,175247535,-1258
32-26,175251441,-272
32-27,175255347,772
32-28,175259253,1347
32-29,175263159,1277
32-30,175267065,624
32-31,175270971,-294
32-32,175274877,-908
32-1,175278789,-890
32-2,175282695,-227
32-3,175286601,741
32-4,175290507,1361
32-5,175294413,1159
32-6,175298319,150
32-7,175302225,-898
32-8,175306131,-1193
32-9,175310037,-677
32-10,175313943,209
32-11,175317849,811
32-12,175321755,674
32-13,175325661,-191
32-14,175329567,-1362
32-15,175333473,-2045
32-16,175337379,-1743
32-17,175341285,-630
32-18,175345191,706
32-19,175349097,1483
32-20,175353003,1249
32-21,175356909,159
32-22,175360815,-1071
32-23,175364721,-1549
32-24,175368627,-1021
32-25,175372533,77
32-26,175376439,999
32-27,175380345,1157
32-28,175384251,620
32-29,175388157,-159
32-30,175392063,-645
32-31,175395969,-556
32-32,175399875,-41
32-1,175403787,706
32-2,175407693,1360
32-3,175411599,1503
32-4,175415505,912
32-5,175419411,-226
32-6,175423317,-1178
32-7,175427223,-1270
32-8,175431129,-516
32-9,175435035,515
32-10,175438941,1044
32-11,175442847,703
32-12,175446753,-293
32-13,175450659,-1331
32-14,175454565,-1661
32-15,175458471,-1041
32-16,175462377,160
32-17,175466283,1220
32-18,175470189,1473
32-19,175474095,799
32-20,175478001,-461
32-21,175481907,-1535
32-22,175485813,-1685
32-23,175489719,-849
32-24,175493625,450
32-25,175497531,1338
32-26,175501437,1243
32-27,175505343,384
32-28,175509249,-578
32-29,175513155,-933
32-30,175517061,-474
32-31,175520967,360
32-32,175524873,1089
32-1,175528815,1374
32-2,175532721,1092
32-3,175536627,286
32-4,175540533,-766
32-5,175544439,-1388
32-6,175548345,-1149
32-7,175552251,-266
32-8,175556157,567
32-9,175560063,714
32-10,175563969,75
32-11,175567875,-1032
32-12,175571781,-1905
32-13,175575687,-1882
32-14,175579593,-988
32-15,175583499,257
32-16,175587405,1137
32-17,175591311,1152
32-18,175595217,317
32-19,175599123,-907
32-20,175603029,-1670
32-21,175606935,-1396
32-22,175610841,-313
32-23,175614747,921
32-24,175618653,1555
32-25,175622559,1132
32-26,175626465,-82
32-27,175630371,-1289
32-28,175634277,-1643
32-29,175638183,-919
32-30,175642089,379
32-31,175645995,1541
32-32,175649901,1988
32-1,175653782,1543
32-2,175657688,416
32-3,175661594,-735
32-4,175665500,-1226
32-5,175669406,-833
32-6,175673312,134
32-7,175677218,909
32-8,175681124,912
32-9,175685030,137
32-10,175688936,-948
32-11,175692842,-1549
32-12,175696748,-1196
32-13,175700654,-156
32-14,175704560,949
32-15,175708466,1461
32-16,175712372,1118
32-17,175716278,123
32-18,175720184,-995
32-19,175724090,-1491
32-20,175727996,-1077
32-21,175731902,-66
32-22,175735808,896
32-23,175739714,1170
32-24,175743620,560
32-25,175747526,-583
32-26,175751432,-1493
32-27,175755338,-1561
32-28,175759244,-864
32-29,175763150,69
32-30,175767056,675
32-31,175770962,645
32-32,175774868,61
32-1,175778840,-776
32-2,175782746,-1312
32-3,175786652,-1203
32-4,175790558,-532
32-5,175794464,490
32-6,175798370,1415
32-7,175802276,1870
32-8,175806182,1627
32-9,175810088,790
32-10,175813994,-25
32-11,175817900,-329
32-12,175821806,-31
32-13,175825712,556
32-14,175829618,829
32-15,175833524,487
32-16,175837430,-357
32-17,175841336,-1204
32-18,175845242,-1406
32-19,175849148,-831
32-20,175853054,197
32-21,175856960,1086
32-22,175860866,1256
32-23,175864772,633
32-24,175868678,-447
32-25,175872584,-1277
32-26,175876490,-1295
32-27,175880396,-572
32-28,175884302,500
32-29,175888208,1329
32-30,175892114,1442
32-31,175896020,762
32-32,175899926,-372
32-1,175903777,-1188
32-2,175907683,-1132
32-3,175911589,-261
32-4,175915495,917
32-5,175919401,1657
32-6,175923307,1495
32-7,175927213,521
32-8,175931119,-639
32-9,175935025,-1158
32-10,175938931,-765
32-11,175942837,130
32-12,175946743,799
32-13,175950649,704
32-14,175954555,-80
32-15,175958461,-1101
32-16,175962367,-1734
32-17,175966273,-1545
32-18,175970179,-633
32-19,175974085,596
32-20,175977991,1501
32-21,175981897,1567
32-22,175985803,724
32-23,175989709,-563
32-24,175993615,-1380
32-25,175997521,-1233
32-26,176001427,-369
32-27,176005333,608
32-28,176009239,1139
32-29,176013145,1035
32-30,176017051,414
32-31,176020957,-395
32-32,176024863,-870
32-1,176028775,-727
32-2,176032681,-6
32-3,176036587,944
32-4,176040493,1500
32-5,176044399,1240
32-6,176048305,213
32-7,176052211,-855
32-8,176056117,-1177
32-9,176060023,-638
32-10,176063929,306
32-11,176067835,920
32-12,176071741,783
32-13,176075647,2
32-14,176079553,-964
32-15,176083459,-1423
32-16,176087365,-1029
32-17,176091271,-24
32-18,176095177,1043
32-19,176099083,1525
32-20,176102989,1128
32-21,176106895,61
32-22,176110801,-1042
32-23,176114707,-1386
32-24,176118613,-785
32-25,176122519,264
32-26,176126425,1042
32-27,176130331,1075
32-28,176134237,524
32-29,176138143,-156
32-30,176142049,-523
32-31,176145955,-368
32-32,176149861,139
32-1,176153772,814
32-2,176157678,1406
32-3,176161584,1548
32-4,176165490,963
32-5,176169396,-199
32-6,176173302,-1166
32-7,176177208,-1280
32-8,176181114,-600
32-9,176185020,282
32-10,176188926,653
32-11,176192832,270
32-12,176196738,-623
32-13,176200644,-1476
32-14,176204550,-1646
32-15,176208456,-1008
32-16,176212362,80
32-17,176216268,1033
32-18,176220174,1278
32-19,176224080,689
32-20,176227986,-443
32-21,176231892,-1410
32-22,176235798,-1524
32-23,176239704,-747
32-24,176243610,419
32-25,176247516,1182
32-26,176251422,1024
32-27,176255328,156
32-28,176259234,-764
32-29,176263140,-1054
32-30,176267046,-527
32-31,176270952,402
32-32,176274858,1269
32-1,176278800,1695
32-2,176282706,1487
32-3,176286612,665
32-4,176290518,-434
32-5,176294424,-1082
32-6,176298330,-873
32-7,176302236,-30
32-8,176306142,773
32-9,176310048,918
32-10,176313954,332
32-11,176317860,-662
32-12,176321766,-1440
32-13,176325672,-1419
32-14,176329578,-609
32-15,176333484,535
32-16,176337390,1360
32-17,176341296,1364
32-18,176345202,532
32-19,176349108,-702
32-20,176353014,-1541
32-21,176356920,-1422
32-22,176360826,-499
32-23,176364732,644
32-24,176368638,1274
32-25,176372544,936
32-26,176376450,-129
32-27,176380356,-1207
32-28,176384262,-1511
32-29,176388168,-848
32-30,176392074,319
32-31,176395980,1343
32-32,176399886,1694
32-1,176403890,1222
32-2,176407796,123
32-3,176411702,-989
32-4,176415608,-1433
32-5,176419514,-982
32-6,176423420,42
32-7,176427326,876
32-8,176431232,931
32-9,176435138,168
32-10,176439044,-985
32-11,176442950,-1739
32-12,176446856,-1543
32-13,176450762,-549
32-14,176454668,661
32-15,176458574,1358
32-16,176462480,1146
32-17,176466386,171
32-18,176470292,-1002
32-19,176474198,-1560
32-20,176478104,-1155
32-21,176482010,-91
32-22,176485916,983
32-23,176489822,1380
32-24,176493728,871
32-25,176497634,-282
32-26,176501540,-1364
32-27,176505446,-1604
32-28,176509352,-847
32-29,176513258,490
32-30,176517164,1674
32-31,176521070,2025
32-32,176524976,1367
32-1,176528765,49
32-2,176532671,-1073
32-3,176536577,-1262
32-4,176540483,-501
32-5,176544389,684
32-6,176548295,1493
32-7,176552201,1410
32-8,176556107,488
32-9,176560013,-745
32-10,176563919,-1429
32-11,176567825,-1144
32-12,176571731,-158
32-13,176575637,862
32-14,176579543,1212
32-15,176583449,679
32-16,176587355,-456
32-17,176591261,-1510
32-18,176595167,-1728
32-19,176599073,-1002
32-20,176602979,206
32-21,176606885,1168
32-22,176610791,1282
32-23,176614697,509
32-24,176618603,-731
32-25,176622509,-1634
32-26,176626415,-1594
32-27,176630321,-739
32-28,176634227,456
32-29,176638133,1333
32-30,176642039,1401
32-31,176645945,605
32-32,176649851,-657
32-1,176653763,-1520
32-2,176657669,-1406
32-3,176661575,-465
32-4,176665481,655
32-5,176669387,1168
32-6,176673293,733
32-7,176677199,-365
32-8,176681105,-1415
32-9,176685011,-1715
32-10,176688917,-1110
32-11,176692823,111
32-12,176696729,1405
32-13,176700635,2147
32-14,176704541,1972
32-15,176708447,917
32-16,176712353,-346
32-17,176716259,-979
32-18,176720165,-729
32-19,176724071,80
32-20,176727977,698
32-21,176731883,604
32-22,176735789,-158
32-23,176739695,-1131
32-24,176743601,-1575
32-25,176747507,-1178
32-26,176751413,-237
32-27,176755319,749
32-28,176759225,1301
32-29,176763131,1226
32-30,176767037,588
32-31,176770943,-291
32-32,176774849,-846
32-1,176903758,641
32-2,176907664,1363
32-3,176911570,1738
32-4,176915476,1353
32-5,176919382,226
32-6,176923288,-878
32-7,176927194,-1184
32-8,176931100,-603
32-9,176935006,323
32-10,176938912,821
32-11,176942818,539
32-12,176946724,-341
32-13,176950630,-1277
32-14,176954536,-1560
32-15,176958442,-982
32-16,176962348,125
32-17,176966254,1160
32-18,176970160,1498
32-19,176974066,964
32-20,176977972,-173
32-21,176981878,-1197
32-22,176985784,-1400
32-23,176989690,-722
32-24,176993596,354
32-25,176997502,1052
32-26,177001408,872
32-27,177005314,38
32-28,177009220,-791
32-29,177013126,-967
32-30,177017032,-366
32-31,177020938,555
32-32,177024844,1353
32-1,177029091,1699
32-2,177032997,1426
32-3,177036903,534
32-4,177040809,-657
32-5,177044715,-1397
32-6,177048621,-1229
32-7,177052527,-355
32-8,177056433,505
32-9,177060339,685
32-10,177064245,99
32-11,177068151,-891
32-12,177072057,-1619
32-13,177075963,-1524
32-14,177079869,-677
32-15,177083775,438
32-16,177087681,1178
32-17,177091587,1084
32-18,177095493,197
32-19,177099399,-1010
32-20,177103305,-1729
32-21,177107211,-1446
32-22,177111117,-410
32-23,177115023,730
32-24,177118929,1261
32-25,177122835,827
32-26,177126741,-236
32-27,177130647,-1198
32-28,177134553,-1340
32-29,177138459,-551
32-30,177142365,684
32-31,177146271,1745
32-32,177150177,2123
32-1,177153753,1673
32-2,177157659,570
32-3,177161565,-584
32-4,177165471,-1099
32-5,177169377,-715
32-6,177173283,270
32-7,177177189,1118
32-8,177181095,1204
32-9,177185001,450
32-10,177188907,-598
32-11,177192813,-1189
32-12,177196719,-1063
32-13,177200625,-587
32-14,177204531,-217
32-15,177208437,-165
32-16,177212343,-330
32-17,177216249,-598
32-18,177220155,-880
32-19,177224061,-916
32-20,177227967,-543
32-21,177231873,337
32-22,177235779,1500
32-23,177239685,2340
32-24,177243591,2403
32-25,177247497,1547
32-26,177251403,266
32-27,177255309,-591
32-28,177259215,-608
32-29,177263121,41
32-30,177267027,704
32-31,177270933,760
32-32,177274839,119
32-1,177278751,-897
32-2,177282657,-1624
32-3,177286563,-1545
32-4,177290469,-689
32-5,177294375,573
32-6,177298281,1580
32-7,177302187,1778
32-8,177306093,1049
32-9,177309999,-203
32-10,177313905,-1080
32-11,177317811,-1025
32-12,177321717,-192
32-13,177325623,756
32-14,177329529,1080
32-15,177333435,571
32-16,177337341,-494
32-17,177341247,-1462
32-18,177345153,-1646
32-19,177349059,-968
32-20,177352965,156
32-21,177356871,1065
32-22,177360777,1200
32-23,177364683,507
32-24,177368589,-652
32-25,177372495,-1515
32-26,177376401,-1472
32-27,177380307,-616
32-28,177384213,614
32-29,177388119,1573
32-30,177392025,1748
32-31,177395931,1061
32-32,177399837,-128
32-1,177403749,-1040
32-2,177407655,-1088
32-3,177411561,-273
32-4,177415467,945
32-5,177419373,1816
32-6,177423279,1798
32-7,177427185,876
32-8,177431091,-370
32-9,177434997,-1054
32-10,177438903,-808
32-11,177442809,71
32-12,177446715,872
32-13,177450621,972
32-14,177454527,315
32-15,177458433,-735
32-16,177462339,-1475
32-17,177466245,-1351
32-18,177470151,-472
32-19,177474057,646
32-20,177477963,1316
32-21,177481869,1121
32-22,177485775,159
32-23,177489681,-1043
32-24,177493587,-1674
32-25,177497493,-1359
32-26,177501399,-406
32-27,177505305,619
32-28,177509211,1194
32-29,177513117,1111
32-30,177517023,443
32-31,177520929,-469
32-32,177524835,-1029
32-1,177528746,-899
32-2,177532652,-115
32-3,177536558,908
32-4,177540464,1463
32-5,177544370,1111
32-6,177548276,-43
32-7,177552182,-1205
32-8,177556088,-1533
32-9,177559994,-910
32-10,177563900,186
32-11,177567806,969
32-12,177571712,918
32-13,177575618,65
32-14,177579524,-1115
32-15,177583430,-1822
32-16,177587336,-1563
32-17,177591242,-523
32-18,177595148,693
32-19,177599054,1333
32-20,177602960,1035
32-21,177606866,-15
32-22,177610772,-1172
32-23,177614678,-1600
32-24,177618584,-1048
32-25,177622490,48
32-26,177626396,988
32-27,177630302,1224
32-28,177634208,805
32-29,177638114,89
32-30,177642020,-455
32-31,177645926,-484
32-32,177649832,-55
32-1,177653744,663
32-2,177657650,1349
32-3,177661556,1554
32-4,177665462,974
32-5,177669368,-232
32-6,177673274,-1256
32-7,177677180,-1380
32-8,177681086,-634
32-9,177684992,388
32-10,177688898,935
32-11,177692804,655
32-12,177696710,-292
32-13,177700616,-1334
32-14,177704522,-1701
32-15,177708428,-1155
32-16,177712334,-53
32-17,177716240,941
32-18,177720146,1186
32-19,177724052,550
32-20,177727958,-642
32-21,177731864,-1643
32-22,177735770,-1753
32-23,177739676,-943
32-24,177743582,286
32-25,177747488,1124
32-26,177751394,1016
32-27,177755300,134
32-28,177759206,-868
32-29,177763112,-1246
32-30,177767018,-761
32-31,177770924,182
32-32,177774830,1102
32-1,177778803,1573
32-2,177782709,1374
32-3,177786615,532
32-4,177790521,-615
32-5,177794427,-1307
32-6,177798333,-1094
32-7,177802239,-183
32-8,177806145,733
32-9,177810051,964
32-10,177813957,359
32-11,177817863,-743
32-12,177821769,-1625
32-13,177825675,-1646
32-14,177829581,-807
32-15,177833487,395
32-16,177837393,1247
32-17,177841299,1255
32-18,177845205,432
32-19,177849111,-778
32-20,177853017,-1563
32-21,177856923,-1391
32-22,177860829,-450
32-23,177864735,695
32-24,177868641,1340
32-25,177872547,1057
32-26,177876453,78
32-27,177880359,-939
32-28,177884265,-1242
32-29,177888171,-616
32-30,177892077,496
32-31,177895983,1483
32-32,177899889,1822
32-1,177903739,1344
32-2,177907645,239
32-3,177911551,-866
32-4,177915457,-1311
32-5,177919363,-902
32-6,177923269,18
32-7,177927175,718
32-8,177931081,697
32-9,177934987,-26
32-10,177938893,-1050
32-11,177942799,-1687
32-12,177946705,-1473
32-13,177950611,-551
32-14,177954517,577
32-15,177958423,1224
32-16,177962329,984
32-17,177966235,-30
32-18,177970141,-1230
32-19,177974047,-1785
32-20,177977953,-1372
32-21,177981859,-357
32-22,177985765,571
32-23,177989671,804
32-24,177993577,232
32-25,177997483,-825
32-26,178001389,-1709
32-27,178005295,-1784
32-28,178009201,-990
32-29,178013107,290
32-30,178017013,1419
32-31,178020919,1785
32-32,178024825,1221
32-1,178153734,-1316
32-2,178157640,-1257
32-3,178161546,-384
32-4,178165452,786
32-5,178169358,1529
32-6,178173264,1387
32-7,178177170,423
32-8,178181076,-746
32-9,178184982,-1290
32-10,178188888,-944
32-11,178192794,-66
32-12,178196700,645
32-13,178200606,624
32-14,178204512,-136
32-15,178208418,-1178
32-16,178212324,-1762
32-17,178216230,-1501
32-18,178220136,-724
32-19,178224042,8
32-20,178227948,245
32-21,178231854,-64
32-22,178235760,-654
32-23,178239666,-1201
32-24,178243572,-1318
32-25,178247478,-876
32-26,178251384,36
32-27,178255290,1180
32-28,178259196,2082
32-29,178263102,2332
32-30,178267008,1759
32-31,178270914,660
32-32,178274820,-235
32-1,178278732,-435
32-2,178282638,103
32-3,178286544,917
32-4,178290450,1299
32-5,178294356,915
32-6,178298262,-124
32-7,178302168,-1122
32-8,178306074,-1345
32-9,178309980,-705
32-10,178313886,366
32-11,178317792,1136
32-12,178321698,1102
32-13,178325604,279
32-14,178329510,-877
32-15,178333416,-1550
32-16,178337322,-1268
32-17,178341228,-258
32-18,178345134,855
32-19,178349040,1350
32-20,178352946,930
32-21,178356852,-195
32-22,178360758,-1411
32-23,178364664,-1877
32-24,178368570,-1321
32-25,178372476,-178
32-26,178376382,831
32-27,178380288,1111
32-28,178384194,679
32-29,178388100,-85
32-30,178392006,-680
32-31,178395912,-744
32-32,178399818,-315
32-1,178403724,451
32-2,178407630,1229
32-3,178411536,1533
32-4,178415442,1030
32-5,178419348,-112
32-6,178423254,-1063
32-7,178427160,-1123
32-8,178431066,-358
32-9,178434972,626
32-10,178438878,1082
32-11,178442784,696
32-12,178446690,-312
32-13,178450596,-1351
32-14,178454502,-1671
32-15,178458408,-1063
32-16,178462314,94
32-17,178466220,1136
32-18,178470126,1431
32-19,178474032,831
32-20,178477938,-347
32-21,178481844,-1378
32-22,178485750,-1555
32-23,178489656,-799
32-24,178493562,429
32-25,178497468,1329
32-26,178501374,1302
32-27,178505280,479
32-28,178509186,-500
32-29,178513092,-886
32-30,178516998,-424
32-31,178520904,501
32-32,178524810,1417
32-1,178528788,1903
32-2,178532694,1722
32-3,178536600,891
32-4,178540506,-275
32-5,178544412,-1047
32-6,178548318,-952
32-7,178552224,-145
32-8,178556130,696
32-9,178560036,867
32-10,178563942,214
32-11,178567848,-921
32-12,178571754,-1836
32-13,178575660,-1884
32-14,178579566,-1056
32-15,178583472,148
32-16,178587378,1014
32-17,178591284,1013
32-18,178595190,137
32-19,178599096,-1153
32-20,178603002,-1992
32-21,178606908,-1774
32-22,178610814,-699
32-23,178614720,553
32-24,178618626,1189
32-25,178622532,800
32-26,178626438,-285
32-27,178630344,-1333
32-28,178634250,-1602
32-29,178638156,-933
32-30,178642062,218
32-31,178645968,1221
32-32,178649874,1553
32-1,178653847,1067
32-2,178657753,-33
32-3,178661659,-1103
32-4,178665565,-1466
32-5,178669471,-947
32-6,178673377,44
32-7,178677283,739
32-8,178681189,666
32-9,178685095,-82
32-10,178689001,-1058
32-11,178692907,-1578
32-12,178696813,-1256
32-13,178700719,-337
32-14,178704625,647
32-15,178708531,1128
32-16,178712437,861
32-17,178716343,-3
32-18,178720249,-1015
32-19,178724155,-1454
32-20,178728061,-1034
32-21,178731967,-70
32-22,178735873,871
32-23,178739779,1207
32-24,178743685,760
32-25,178747591,-222
32-26,178751497,-1122
32-27,178755403,-1287
32-28,178759309,-646
32-29,178763215,444
32-30,178767121,1452
32-31,178771027,1845
32-32,178774933,1392
32-1,178778723,284
32-2,178782629,-756
32-3,178786535,-1046
32-4,178790441,-497
32-5,178794347,521
32-6,178798253,1281
32-7,178802159,1240
32-8,178806065,386
32-9,178809971,-788
32-10,178813877,-1441
32-11,178817783,-1177
32-12,178821689,-259
32-13,178825595,701
32-14,178829501,1017
32-15,178833407,460
32-16,178837313,-649
32-17,178841219,-1631
32-18,178845125,-1810
32-19,178849031,-1106
32-20,178852937,38
32-21,178856843,934
32-22,178860749,1028
32-23,178864655,299
32-24,178868561,-824
32-25,178872467,-1600
32-26,178876373,-1513
32-27,178880279,-692
32-28,178884185,446
32-29,178888091,1293
32-30,178891997,1409
32-31,178895903,755
32-32,178899809,-364
32-1,178903720,-1218
32-2,178907626,-1221
32-3,178911532,-392
32-4,178915438,767
32-5,178919344,1466
32-6,178923250,1230
32-7,178927156,206
32-8,178931062,-972
32-9,178934968,-1508
32-10,178938874,-1080
32-11,178942780,17
32-12,178946686,1120
32-13,178950592,1564
32-14,178954498,1118
32-15,178958404,-3
32-16,178962310,-1080
32-17,178966216,-1390
32-18,178970122,-832
32-19,178974028,143
32-20,178977934,808
32-21,178981840,700
32-22,178985746,-133
32-23,178989652,-1227
32-24,178993558,-1790
32-25,178997464,-1405
32-26,179001370,-354
32-27,179005276,783
32-28,179009182,1471
32-29,179013088,1462
32-30,179016994,790
32-31,179020900,-191
32-32,179024806,-851
32-1,179028718,-803
32-2,179032624,-39
32-3,179036530,1027
32-4,179040436,1677
32-5,179044342,1403
32-6,179048248,250
32-7,179052154,-959
32-8,179056060,-1352
32-9,179059966,-814
32-10,179063872,175
32-11,179067778,838
32-12,179071684,666
32-13,179075590,-254
32-14,179079496,-1405
32-15,179083402,-1998
32-16,179087308,-1616
32-17,179091214,-508
32-18,179095120,709
32-19,179099026,1278
32-20,179102932,867
32-21,179106838,-252
32-22,179110744,-1376
32-23,179114650,-1715
32-24,179118556,-1077
32-25,179122462,65
32-26,179126368,995
32-27,179130274,1164
32-28,179134180,630
32-29,179138086,-170
32-30,179141992,-702
32-31,179145898,-631
32-32,179149804,-49
32-1,179153715,786
32-2,179157621,1499
32-3,179161527,1679
32-4,179165433,1087
32-5,179169339,-95
32-6,179173245,-1070
32-7,179177151,-1144
32-8,179181057,-376
32-9,179184963,552
32-10,179188869,857
32-11,179192775,313
32-12,179196681,-740
32-13,179200587,-1681
32-14,179204493,-1842
32-15,179208399,-1114
32-16,179212305,76
32-17,179216211,1087
32-18,179220117,1334
32-19,179224023,685
32-20,179227929,-553
32-21,179231835,-1589
32-22,179235741,-1646
32-23,179239647,-704
32-24,179243553,610
32-25,179247459,1393
32-26,179251365,1116
32-27,179255271,60
32-28,179259177,-1018
32-29,179263083,-1353
32-30,179266989,-761
32-31,179270895,277
32-32,179274801,1252
32-1,179278774,1752
32-2,179282680,1534
32-3,179286586,600
32-4,179290492,-646
32-5,179294398,-1379
32-6,179298304,-1147
32-7,179302210,-227
32-8,179306116,628
32-9,179310022,758
32-10,179313928,36
32-11,179317834,-1100
32-12,179321740,-1856
32-13,179325646,-1805
32-14,179329552,-1227
32-15,179333458,-635
32-16,179337364,-400
32-17,179341270,-572
32-18,179345176,-970
32-19,179349082,-1415
32-20,179352988,-1576
32-21,179356894,-1233
32-22,179360800,-361
32-23,179364706,944
32-24,179368612,2115
32-25,179372518,2481
32-26,179376424,1873
32-27,179380330,708
32-28,179384236,-172
32-29,179388142,-227
32-30,179392048,428
32-31,179395954,1230
32-32,179399860,1509
32-1,179403711,1014
32-2,179407617,-68
32-3,179411523,-1121
32-4,179415429,-1494
32-5,179419335,-980
32-6,179423241,131
32-7,179427147,1092
32-8,179431053,1275
32-9,179434959,610
32-10,179438865,-533
32-11,179442771,-1408
32-12,179446677,-1426
32-13,179450583,-651
32-14,179454489,429
32-15,179458395,1106
32-16,179462301,951
32-17,179466207,76
32-18,179470113,-1000
32-19,179474019,-1504
32-20,179477925,-1068
32-21,179481831,1
32-22,179485737,1031
32-23,179489643,1366
32-24,179493549,825
32-25,179497455,-302
32-26,179501361,-1345
32-27,179505267,-1605
32-28,179509173,-941
32-29,179513079,285
32-30,179516985,1399
32-31,179520891,1765
32-32,179524797,1208
32-1,179528703,14
32-2,179532609,-1011
32-3,179536515,-1157
32-4,179540421,-433
32-5,179544327,681
32-6,179548233,1444
32-7,179552139,1362
32-8,179556045,452
32-9,179559951,-801
32-10,179563857,-1535
32-11,179567763,-1281
32-12,179571669,-311
32-13,179575575,687
32-14,179579481,1031
32-15,179583387,535
32-16,179587293,-504
32-17,179591199,-1440
32-18,179595105,-1597
32-19,179599011,-880
32-20,179602917,301
32-21,179606823,1292
32-22,179610729,1497
32-23,179614635,858
32-24,179618541,-255
32-25,179622447,-1087
32-26,179626353,-1068
32-27,179630259,-338
32-28,179634165,700
32-29,179638071,1496
32-30,179641977,1602
32-31,179645883,930
32-32,179649789,-224
32-1,179653706,-1123
32-2,179657612,-1175
32-3,179661518,-387
32-4,179665424,751
32-5,179669330,1500
32-6,179673236,1348
32-7,179677142,335
32-8,179681048,-888
32-9,179684954,-1488
32-10,179688860,-1200
32-11,179692766,-386
32-12,179696672,288
32-13,179700578,317
32-14,179704484,-257
32-15,179708390,-1091
32-16,179712296,-1663
32-17,179716202,-1560
32-18,179720108,-822
32-19,179724014,288
32-20,179727920,1231
32-21,179731826,1457
32-22,179735732,798
32-23,179739638,-376
32-24,179743544,-1199
32-25,179747450,-1138
32-26,179751356,-375
32-27,179755262,527
32-28,179759168,1031
32-29,179763074,956
32-30,179766980,375
32-31,179770886,-417
32-32,179774792,-904
32-1,179778704,-771
32-2,179782610,-18
32-3,179786516,976
32-4,179790422,1511
32-5,179794328,1145
32-6,179798234,-13
32-7,179802140,-1166
32-8,179806046,-1468
32-9,179809952,-817
32-10,179813858,266
32-11,179817764,979
32-12,179821670,836
32-13,179825576,-53
32-14,179829482,-1170
32-15,179833388,-1747
32-16,179837294,-1384
32-17,179841200,-311
32-18,179845106,887
32-19,179849012,1513
32-20,179852918,1221
32-21,179856824,170
32-22,179860730,-1023
32-23,179864636,-1508
32-24,179868542,-993
32-25,179872448,112
32-26,179876354,1075
32-27,179880260,1317
32-28,179884166,878
32-29,179888072,152
32-30,179891978,-380
32-31,179895884,-406
32-32,179899790,-17
32-1,179903701,633
32-2,179907607,1269
32-3,179911513,1462
32-4,179915419,891
32-5,179919325,-309
32-6,179923231,-1337
32-7,179927137,-1464
32-8,179931043,-726
32-9,179934949,264
32-10,179938855,746
32-11,179942761,396
32-12,179946667,-575
32-13,179950573,-1591
32-14,179954479,-1931
32-15,179958385,-1373
32-16,179962291,-251
32-17,179966197,809
32-18,179970103,1170
32-19,179974009,647
32-20,179977915,-483
32-21,179981821,-1470
32-22,179985727,-1596
32-23,179989633,-810
32-24,179993539,385
32-25,179997445,1178
32-26,180001351,1031
32-27,180005257,155
32-28,180009163,-780
32-29,180013069,-1064
32-30,180016975,-515
32-31,180020881,442
32-32,180024787,1342
32-1,180028821,1793
32-2,180032727,1590
32-3,180036633,746
32-4,180040539,-423
32-5,180044445,-1187
32-6,180048351,-1083
32-7,180052257,-266
32-8,180056163,605
32-9,180060069,863
32-10,180063975,372
32-11,180067881,-574
32-12,180071787,-1352
32-13,180075693,-1379
32-14,180079599,-648
32-15,180083505,423
32-16,180087411,1217
32-17,180091317,1243
32-18,180095223,464
32-19,180099129,-735
32-20,180103035,-1561
32-21,180106941,-1437
32-22,180110847,-506
32-23,180114753,645
32-24,180118659,1283
32-25,180122565,966
32-26,180126471,-82
32-27,180130377,-1164
32-28,180134283,-1485
32-29,180138189,-850
32-30,180142095,251
32-31,180146001,1142
32-32,180149907,1316
32-1,180153697,728
32-2,180157603,-302
32-3,180161509,-1195
32-4,180165415,-1446
32-5,180169321,-918
32-6,180173227,164
32-7,180177133,1225
32-8,180181039,1669
32-9,180184945,1212
32-10,180188851,27
32-11,180192757,-1105
32-12,180196663,-1414
32-13,180200569,-811
32-14,180204475,207
32-15,180208381,836
32-16,180212287,648
32-17,180216193,-225
32-18,180220099,-1257
32-19,180224005,-1691
32-20,180227911,-1231
32-21,180231817,-170
32-22,180235723,915
32-23,180239629,1379
32-24,180243535,968
32-25,180247441,-92
32-26,180251347,-1151
32-27,180255253,-1465
32-28,180259159,-851
32-29,180263065,328
32-30,180266971,1410
32-31,180270877,1755
32-32,180274783,1181
32-1,180278694,-12
32-2,180282600,-1048
32-3,180286506,-1235
32-4,180290412,-542
32-5,180294318,576
32-6,180298224,1378
32-7,180302130,1369
32-8,180306036,562
32-9,180309942,-587
32-10,180313848,-1276
32-11,180317754,-1068
32-12,180321660,-175
32-13,180325566,800
32-14,180329472,1186
32-15,180333378,732
32-16,180337284,-322
32-17,180341190,-1322
32-18,180345096,-1550
32-19,180349002,-892
32-20,180352908,213
32-21,180356814,1085
32-22,180360720,1166
32-23,180364626,426
32-24,180368532,-742
32-25,180372438,-1574
32-26,180376344,-1484
32-27,180380250,-593
32-28,180384156,634
32-29,180388062,1541
32-30,180391968,1635
32-31,180395874,862
32-32,180399780,-404
32-1,180403692,-1356
32-2,180407598,-1390
32-3,180411504,-520
32-4,180415410,741
32-5,180419316,1597
32-6,180423222,1504
32-7,180427128,494
32-8,180431034,-783
32-9,180434940,-1411
32-10,180438846,-1029
32-11,180442752,21
32-12,180446658,970
32-13,180450564,1135
32-14,180454470,429
32-15,180458376,-748
32-16,180462282,-1614
32-17,180466188,-1536
32-18,180470094,-597
32-19,180474000,652
32-20,180477906,1457
32-21,180481812,1346
32-22,180485718,410
32-23,180489624,-799
32-24,180493530,-1438
32-25,180497436,-1103
32-26,180501342,-110
32-27,180505248,950
32-28,180509154,1523
32-29,180513060,1397
32-30,180516966,681
32-31,180520872,-242
32-32,180524778,-780
32-1,180528689,-622
32-2,180532595,160
32-3,180536501,1127
32-4,180540407,1578
32-5,180544313,1114
32-6,180548219,-110
32-7,180552125,-1256
32-8,180556031,-1503
32-9,180559937,-802
32-10,180563843,289
32-11,180567749,961
32-12,180571655,766
32-13,180575561,-144
32-14,180579467,-1243
32-15,180583373,-1782
32-16,180587279,-1403
32-17,180591185,-372
32-18,180595091,757
32-19,180598997,1354
32-20,180602903,1129
32-21,180606809,234
32-22,180610715,-797
32-23,180614621,-1222
32-24,180618527,-796
32-25,180622433,110
32-26,180626339,888
32-27,180630245,1044
32-28,180634151,623
32-29,180638057,-31
32-30,180641963,-476
32-31,180645869,-408
32-32,180649775,49
32-1,180653687,673
32-2,180657593,1155
32-3,180661499,1137
32-4,180665405,469
32-5,180669311,-643
32-6,180673217,-1511
32-7,180677123,-1514
32-8,180681029,-658
32-9,180684935,555
32-10,180688841,1377
32-11,180692747,1318
32-12,180696653,413
32-13,180700559,-748
32-14,180704465,-1323
32-15,180708371,-970
32-16,180712277,-11
32-17,180716183,864
32-18,180720089,1054
32-19,180723995,458
32-20,180727901,-608
32-21,180731807,-1468
32-22,180735713,-1500
32-23,180739619,-696
32-24,180743525,483
32-25,180747431,1296
32-26,180751337,1209
32-27,180755243,367
32-28,180759149,-616
32-29,180763055,-1028
32-30,180766961,-606
32-31,180770867,287
32-32,180774773,1168
32-1,180778715,1599
32-2,180782621,1359
32-3,180786527,459
32-4,180790433,-751
32-5,180794339,-1513
32-6,180798245,-1357
32-7,180802151,-437
32-8,180806057,544
32-9,180809963,839
32-10,180813869,268
32-11,180817775,-861
32-12,180821681,-1827
32-13,180825587,-1928
32-14,180829493,-1127
32-15,180833399,101
32-16,180837305,1056
32-17,180841211,1183
32-18,180845117,440
32-19,180849023,-755
32-20,180852929,-1589
32-21,180856835,-1475
32-22,180860741,-558
32-23,180864647,552
32-24,180868553,1126
32-25,180872459,760
32-26,180876365,-272
32-27,180880271,-1265
32-28,180884177,-1486
32-29,180888083,-784
32-30,180891989,387
32-31,180895895,1419
32-32,180899801,1795
32-1,180903682,1362
32-2,180907588,292
32-3,180911494,-800
32-4,180915400,-1220
32-5,180919306,-759
32-6,180923212,240
32-7,180927118,1038
32-8,180931024,1094
32-9,180934930,388
32-10,180938836,-695
32-11,180942742,-1434
32-12,180946648,-1312
32-13,180950554,-427
32-14,180954460,722
32-15,180958366,1426
32-16,180962272,1243
32-17,180966178,250
32-18,180970084,-979
32-19,180973990,-1568
32-20,180977896,-1158
32-21,180981802,-95
32-22,180985708,929
32-23,180989614,1236
32-24,180993520,663
32-25,180997426,-460
32-26,181001332,-1455
32-27,181005238,-1626
32-28,181009144,-882
32-29,181013050,375
32-30,181016956,1496
32-31,181020862,1853
32-32,181024768,1255
32-1,181028680,-8
32-2,181032586,-1138
32-3,181036492,-1394
32-4,181040398,-711
32-5,181044304,418
32-6,181048210,1189
32-7,181052116,1068
32-8,181056022,104
32-9,181059928,-1053
32-10,181063834,-1551
32-11,181067740,-1192
32-12,181071646,-444
32-13,181075552,86
32-14,181079458,40
32-15,181083364,-444
32-16,181087270,-1047
32-17,181091176,-1422
32-18,181095082,-1257
32-19,181098988,-553
32-20,181102894,550
32-21,181106800,1678
32-22,181110706,2268
32-23,181114612,1998
32-24,181118518,930
32-25,181122424,-269
32-26,181126330,-844
32-27,181130236,-598
32-28,181134142,241
32-29,181138048,1044
32-30,181141954,1246
32-31,181145860,696
32-32,181149766,-326
32-1,181153672,-1098
32-2,181157578,-1096
32-3,181161484,-355
32-4,181165390,716
32-5,181169296,1446
32-6,181173202,1367
32-7,181177108,505
32-8,181181014,-619
32-9,181184920,-1223
32-10,181188826,-958
32-11,181192732,-64
32-12,181196638,779
32-13,181200544,921
32-14,181204450,257
32-15,181208356,-871
32-16,181212262,-1761
32-17,181216168,-1806
32-18,181220074,-1009
32-19,181223980,181
32-20,181227886,1038
32-21,181231792,1045
32-22,181235698,238
32-23,181239604,-893
32-24,181243510,-1530
32-25,181247416,-1266
32-26,181251322,-401
32-27,181255228,535
32-28,181259134,1071
32-29,181263040,1029
32-30,181266946,463
32-31,181270852,-347
32-32,181274758,-860
32-1,181278675,-732
32-2,181282581,12
32-3,181286487,979
32-4,181290393,1523
32-5,181294299,1235
32-6,181298205,201
32-7,181302111,-846
32-8,181306017,-1133
32-9,181309923,-584
32-10,181313829,334
32-11,181317735,902
32-12,181321641,718
32-13,181325547,-86
32-14,181329453,-1059
32-15,181333359,-1521
32-16,181337265,-1126
32-17,181341171,-128
32-18,181345077,930
32-19,181348983,1402
32-20,181352889,1013
32-21,181356795,-21
32-22,181360701,-1098
32-23,181364607,-1442
32-24,181368513,-844
32-25,181372419,246
32-26,181376325,1138
32-27,181380231,1301
32-28,181384137,801
32-29,181388043,30
32-30,181391949,-528
32-31,181395855,-551
32-32,181399761,-128
32-1,181403673,544
32-2,181407579,1161
32-3,181411485,1314
32-4,181415391,722
32-5,181419297,-445
32-6,181423203,-1387
32-7,181427109,-1424
32-8,181431015,-629
32-9,181434921,378
32-10,181438827,878
32-11,181442733,577
32-12,181446639,-326
32-13,181450545,-1303
32-14,181454451,-1643
32-15,181458357,-1122
32-16,181462263,-71
32-17,181466169,900
32-18,181470075,1172
32-19,181473981,603
32-20,181477887,-508
32-21,181481793,-1463
32-22,181485699,-1588
32-23,181489605,-834
32-24,181493511,333
32-25,181497417,1144
32-26,181501323,1057
32-27,181505229,234
32-28,181509135,-694
32-29,181513041,-1015
32-30,181516947,-511
32-31,181520853,412
32-32,181524759,1289
32-1,181528732,1735
32-2,181532638,1551
32-3,181536544,748
32-4,181540450,-365
32-5,181544356,-1049
32-6,181548262,-860
32-7,181552168,22
32-8,181556074,921
32-9,181559980,1159
32-10,181563886,567
32-11,181567792,-547
32-12,181571698,-1444
32-13,181575604,-1484
32-14,181579510,-741
32-15,181583416,224
32-16,181587322,755
32-17,181591228,523
32-18,181595134,-274
32-19,181599040,-1187
32-20,181602946,-1636
32-21,181606852,-1284
32-22,181610758,-302
32-23,181614664,937
32-24,181618570,1831
32-25,181622476,1801
32-26,181626382,851
32-27,181630288,-422
32-28,181634194,-1119
32-29,181638100,-816
32-30,181642006,163
32-31,181645912,1135
32-32,181649818,1480
32-1,181653790,1023
32-2,181657696,-33
32-3,181661602,-1069
32-4,181665508,-1438
32-5,181669414,-952
32-6,181673320,47
32-7,181677226,814
32-8,181681132,813
32-9,181685038,68
32-10,181688944,-990
32-11,181692850,-1633
32-12,181696756,-1399
32-13,181700662,-477
32-14,181704568,603
32-15,181708474,1190
32-16,181712380,948
32-17,181716286,32
32-18,181720192,-1036
32-19,181724098,-1488
32-20,181728004,-1037
32-21,181731910,-10
32-22,181735816,981
32-23,181739722,1327
32-24,181743628,846
32-25,181747534,-210
32-26,181751440,-1200
32-27,181755346,-1436
32-28,181759252,-790
32-29,181763158,395
32-30,181767064,1493
32-31,181770970,1875
32-32,181774876,1347
32-1,181778666,170
32-2,181782572,-900
32-3,181786478,-1153
32-4,181790384,-524
32-5,181794290,578
32-6,181798196,1402
32-7,181802102,1399
32-8,181806008,549
32-9,181809914,-685
32-10,181813820,-1448
32-11,181817726,-1238
32-12,181821632,-241
32-13,181825538,901
32-14,181829444,1416
32-15,181833350,984
32-16,181837256,-163
32-17,181841162,-1311
32-18,181845068,-1644
32-19,181848974,-1008
32-20,181852880,123
32-21,181856786,1003
32-22,181860692,1052
32-23,181864598,268
32-24,181868504,-921
32-25,181872410,-1759
32-26,181876316,-1674
32-27,181880222,-781
32-28,181884128,468
32-29,181888034,1425
32-30,181891940,1568
32-31,181895846,822
32-32,181899752,-432
32-1,181903724,-1367
32-2,181907630,-1370
32-3,181911536,-465
32-4,181915442,832
32-5,181919348,1729
32-6,181923254,1680
32-7,181927160,694
32-8,181931066,-602
32-9,181934972,-1291
32-10,181938878,-999
32-11,181942784,-55
32-12,181946690,790
32-13,181950596,897
32-14,181954502,217
32-15,181958408,-866
32-16,181962314,-1644
32-17,181966220,-1557
32-18,181970126,-673
32-19,181974032,531
32-20,181977938,1353
32-21,181981844,1295
32-22,181985750,383
32-23,181989656,-862
32-24,181993562,-1561
32-25,181997468,-1262
32-26,182001374,-248
32-27,182005280,868
32-28,182009186,1505
32-29,182013092,1424
32-30,182016998,717
32-31,182020904,-241
32-32,182024810,-847
32-1,182028661,-758
32-2,182032567,-8
32-3,182036473,984
32-4,182040379,1518
32-5,182044285,1147
32-6,182048191,-41
32-7,182052097,-1222
32-8,182056003,-1543
32-9,182059909,-905
32-10,182063815,172
32-11,182067721,893
32-12,182071627,797
32-13,182075533,-10
32-14,182079439,-1025
32-15,182083345,-1508
32-16,182087251,-1152
32-17,182091157,-294
32-18,182095063,499
32-19,182098969,695
32-20,182102875,192
32-21,182106781,-691
32-22,182110687,-1451
32-23,182114593,-1549
32-24,182118499,-886
32-25,182122405,253
32-26,182126311,1369
32-27,182130217,1894
32-28,182134123,1670
32-29,182138029,888
32-30,182141935,62
32-31,182145841,-279
32-32,182149747,-51
32-1,182153653,545
32-2,182157559,1060
32-3,182161465,1047
32-4,182165371,344
32-5,182169277,-799
32-6,182173183,-1596
32-7,182177089,-1401
32-8,182180995,-351
32-9,182184901,850
32-10,182188807,1381
32-11,182192713,918
32-12,182196619,-261
32-13,182200525,-1450
32-14,182204431,-1822
32-15,182208337,-1182
32-16,182212243,16
32-17,182216149,1060
32-18,182220055,1359
32-19,182223961,814
32-20,182227867,-306
32-21,182231773,-1324
32-22,182235679,-1522
32-23,182239585,-821
32-24,182243491,332
32-25,182247397,1147
32-26,182251303,1028
32-27,182255209,158
32-28,182259115,-777
32-29,182263021,-1029
32-30,182266927,-404
32-31,182270833,653
32-32,182274739,1661
32-1,182278717,2197
32-2,182282623,1938
32-3,182286529,983
32-4,182290435,-107
32-5,182294341,-732
32-6,182298247,-811
32-7,182302153,-684
32-8,182306059,-705
32-9,182309965,-910
32-10,182313871,-1104
32-11,182317777,-1265
32-12,182321683,-1362
32-13,182325589,-1216
32-14,182329495,-615
32-15,182333401,508
32-16,182337307,1647
32-17,182341213,2152
32-18,182345119,1775
32-19,182349025,692
32-20,182352931,-401
32-21,182356837,-828
32-22,182360743,-488
32-23,182364649,248
32-24,182368555,729
32-25,182372461,522
32-26,182376367,-215
32-27,182380273,-953
32-28,182384179,-1060
32-29,182388085,-379
32-30,182391991,659
32-31,182395897,1497
32-32,182399803,1756
32-1,182403715,1350
32-2,182407621,324
32-3,182411527,-874
32-4,182415433,-1553
32-5,182419339,-1308
32-6,182423245,-303
32-7,182427151,684
32-8,182431057,947
32-9,182434963,345
32-10,182438869,-733
32-11,182442775,-1450
32-12,182446681,-1243
32-13,182450587,-333
32-14,182454493,677
32-15,182458399,1126
32-16,182462305,712
32-17,182466211,-366
32-18,182470117,-1526
32-19,182474023,-1947
32-20,182477929,-1343
32-21,182481835,-116
32-22,182485741,1037
32-23,182489647,1457
32-24,182493553,943
32-25,182497459,-250
32-26,182501365,-1402
32-27,182505271,-1749
32-28,182509177,-1172
32-29,182513083,-84
32-30,182516989,847
32-31,182520895,1052
32-32,182524801,440
32-1,182528774,-627
32-2,182532680,-1413
32-3,182536586,-1353
32-4,182540492,-483
32-5,182544398,816
32-6,182548304,1872
32-7,182552210,2103
32-8,182556116,1338
32-9,182560022,-48
32-10,182563928,-1124
32-11,182567834,-1271
32-12,182571740,-550
32-13,182575646,451
32-14,182579552,942
32-15,182583458,583
32-16,182587364,-404
32-17,182591270,-1314
32-18,182595176,-1437
32-19,182599082,-770
32-20,182602988,173
32-21,182606894,778
32-22,182610800,682
32-23,182614706,51
32-24,182618612,-698
32-25,182622518,-1078
32-26,182626424,-828
32-27,182630330,-59
32-28,182634236,1013
32-29,182638142,1926
32-30,182642048,2230
32-31,182645954,1740
32-32,182649860,636
32-1,182653649,-369
32-2,182657555,-688
32-3,182661461,-275
32-4,182665367,435
32-5,182669273,772
32-6,182673179,425
32-7,182677085,-489
32-8,182680991,-1448
32-9,182684897,-1730
32-10,182688803,-1145
32-11,182692709,-72
32-12,182696615,821
32-13,182700521,954
32-14,182704427,265
32-15,182708333,-868
32-16,182712239,-1690
32-17,182716145,-1578
32-18,182720051,-654
32-19,182723957,507
32-20,182727863,1183
32-21,182731769,960
32-22,182735675,-26
32-23,182739581,-1217
32-24,182743487,-1791
32-25,182747393,-1367
32-26,182751299,-282
32-27,182755205,856
32-28,182759111,1502
32-29,182763017,1459
32-30,182766923,800
32-31,182770829,-136
32-32,182774735,-758
32-1,182778647,-713
32-2,182782553,-8
32-3,182786459,941
32-4,182790365,1431
32-5,182794271,1046
32-6,182798177,-77
32-7,182802083,-1138
32-8,182805989,-1340
32-9,182809895,-635
32-10,182813801,444
32-11,182817707,1128
32-12,182821613,949
32-13,182825519,5
32-14,182829425,-1192
32-15,182833331,-1854
32-16,182837237,-1543
32-17,182841143,-475
32-18,182845049,745
32-19,182848955,1396
32-20,182852861,1146
32-21,182856767,157
32-22,182860673,-963
32-23,182864579,-1403
32-24,182868485,-923
32-25,182872391,55
32-26,182876297,851
32-27,182880203,958
32-28,182884109,492
32-29,182888015,-138
32-30,182891921,-505
32-31,182895827,-368
32-32,182899733,137
32-1,182903644,836
32-2,182907550,1482
32-3,182911456,1693
32-4,182915362,1166
32-5,182919268,24
32-6,182923174,-967
32-7,182927080,-1122
32-8,182930986,-457
32-9,182934892,458
32-10,182938798,917
32-11,182942704,634
32-12,182946610,-217
32-13,182950516,-1136
32-14,182954422,-1445
32-15,182958328,-942
32-16,182962234,64
32-17,182966140,1009
32-18,182970046,1296
32-19,182973952,764
32-20,182977858,-322
32-21,182981764,-1282
32-22,182985670,-1430
32-23,182989576,-690
32-24,182993482,479
32-25,182997388,1299
32-26,183001294,1208
32-27,183005200,349
32-28,183009106,-642
32-29,183013012,-1038
32-30,183016918,-594
32-31,183020824,313
32-32,183024730,1212
32-1,183028703,1698
32-2,183032609,1547
32-3,183036515,738
32-4,183040421,-428
32-5,183044327,-1212
32-6,183048233,-1146
32-7,183052139,-380
32-8,183056045,434
32-9,183059951,644
32-10,183063857,116
32-11,183067763,-864
32-12,183071669,-1656
32-13,183075575,-1652
32-14,183079481,-837
32-15,183083387,355
32-16,183087293,1262
32-17,183091199,1352
32-18,183095105,576
32-19,183099011,-669
32-20,183102917,-1566
32-21,183106823,-1518
32-22,183110729,-659
32-23,183114635,447
32-24,183118541,1084
32-25,183122447,806
32-26,183126353,-149
32-27,183130259,-1106
32-28,183134165,-1355
32-29,183138071,-711
32-30,183141977,407
32-31,183145883,1444
32-32,183149789,1917
32-1,183153792,1624
32-2,183157698,658
32-3,183161604,-451
32-4,183165510,-1032
32-5,183169416,-783
32-6,183173322,59
32-7,183177228,781
32-8,183181134,821
32-9,183185040,134
32-10,183188946,-923
32-11,183192852,-1635
32-12,183196758,-1487
32-13,183200664,-589
32-14,183204570,543
32-15,183208476,1215
32-16,183212382,1032
32-17,183216288,120
32-18,183220194,-994
32-19,183224100,-1514
32-20,183228006,-1111
32-21,183231912,-100
32-22,183235818,893
32-23,183239724,1237
32-24,183243630,746
32-25,183247536,-318
32-26,183251442,-1294
32-27,183255348,-1479
32-28,183259254,-758
32-29,183263160,480
32-30,183267066,1575
32-31,183270972,1904
32-32,183274878,1299
32-1,183278784,53
32-2,183282690,-1046
32-3,183286596,-1293
32-4,183290502,-650
32-5,183294408,433
32-6,183298314,1225
32-7,183302220,1224
32-8,183306126,439
32-9,183310032,-685
32-10,183313938,-1353
32-11,183317844,-1124
32-12,183321750,-211
32-13,183325656,776
32-14,183329562,1145
32-15,183333468,662
32-16,183337374,-422
32-17,183341280,-1463
32-18,183345186,-1726
32-19,183349092,-1078
32-20,183352998,64
32-21,183356904,1023
32-22,183360810,1211
32-23,183364716,573
32-24,183368622,-513
32-25,183372528,-1290
32-26,183376434,-1172
32-27,183380340,-301
32-28,183384246,859
32-29,183388152,1701
32-30,183392058,1768
32-31,183395964,1026
32-32,183399870,-163
32-1,183403635,-1021
32-2,183407541,-979
32-3,183411447,-95
32-4,183415353,1100
32-5,183419259,1842
32-6,183423165,1645
32-7,183427071,589
32-8,183430977,-684
32-9,183434883,-1294
32-10,183438789,-928
32-11,183442695,59
32-12,183446601,926
32-13,183450507,1037
32-14,183454413,341
32-15,183458319,-780
32-16,183462225,-1600
32-17,183466131,-1536
32-18,183470037,-674
32-19,183473943,477
32-20,183477849,1220
32-21,183481755,1110
32-22,183485661,223
32-23,183489567,-932
32-24,183493473,-1540
32-25,183497379,-1217
32-26,183501285,-274
32-27,183505191,734
32-28,183509097,1299
32-29,183513003,1231
32-30,183516909,622
32-31,183520815,-189
32-32,183524721,-644
32-1,183528633,-460
32-2,183532539,301
32-3,183536445,1262
32-4,183540351,1772
32-5,183544257,1418
32-6,183548163,296
32-7,183552069,-840
32-8,183555975,-1181
32-9,183559881,-625
32-10,183563787,357
32-11,183567693,1012
32-12,183571599,876
32-13,183575505,44
32-14,183579411,-993
32-15,183583317,-1507
32-16,183587223,-1122
32-17,183591129,-98
32-18,183595035,983
32-19,183598941,1457
32-20,183602847,1051
32-21,183606753,-4
32-22,183610659,-1092
32-23,183614565,-1433
32-24,183618471,-821
32-25,183622377,285
32-26,183626283,1182
32-27,183630189,1340
32-28,183634095,852
32-29,183638001,131
32-30,183641907,-342
32-31,183645813,-272
32-32,183649719,212
32-1,183653630,897
32-2,183657536,1477
32-3,183661442,1562
32-4,183665348,911
32-5,183669254,-300
32-6,183673160,-1262
32-7,183677066,-1290
32-8,183680972,-475
32-9,183684878,535
32-10,183688784,981
32-11,183692690,575
32-12,183696596,-432
32-13,183700502,-1441
32-14,183704408,-1716
32-15,183708314,-1066
32-16,183712220,121
32-17,183716126,1175
32-18,183720032,1452
32-19,183723938,815
32-20,183727844,-402
32-21,183731750,-1432
32-22,183735656,-1573
32-23,183739562,-812
32-24,183743468,340
32-25,183747374,1102
32-26,183751280,963
32-27,183755186,129
32-28,183759092,-744
32-29,183762998,-973
32-30,183766904,-396
32-31,183770810,553
32-32,183774716,1409
32-1,183778628,1834
32-2,183782534,1603
32-3,183786440,768
32-4,183790346,-263
32-5,183794252,-917
32-6,183798158,-995
32-7,183802064,-728
32-8,183805970,-516
32-9,183809876,-546
32-10,183813782,-713
32-11,183817688,-967
32-12,183821594,-1137
32-13,183825500,-998
32-14,183829406,-432
32-15,183833312,594
32-16,183837218,1685
32-17,183841124,2288
32-18,183845030,2066
32-19,183848936,1071
32-20,183852842,-20
32-21,183856748,-501
32-22,183860654,-254
32-23,183864560,356
32-24,183868466,692
32-25,183872372,340
32-26,183876278,-499
32-27,183880184,-1276
32-28,183884090,-1393
32-29,183887996,-721
32-30,183891902,350
32-31,183895808,1306
32-32,183899714,1687
32-1,183903626,1332
32-2,183907532,355
32-3,183911438,-718
32-4,183915344,-1245
32-5,183919250,-941
32-6,183923156,-30
32-7,183927062,807
32-8,183930968,986
32-9,183934874,411
32-10,183938780,-599
32-11,183942686,-1337
32-12,183946592,-1281
32-13,183950498,-526
32-14,183954404,459
32-15,183958310,1042
32-16,183962216,863
32-17,183966122,22
32-18,183970028,-1002
32-19,183973934,-1475
32-20,183977840,-1084
32-21,183981746,-121
32-22,183985652,825
32-23,183989558,1162
32-24,183993464,705
32-25,183997370,-305
32-26,184001276,-1256
32-27,184005182,-1477
32-28,184009088,-839
32-29,184012994,306
32-30,184016900,1337
32-31,184020806,1678
32-32,184024712,1164
32-1,184153621,-1189
32-2,184157527,-1183
32-3,184161433,-309
32-4,184165339,911
32-5,184169245,1679
32-6,184173151,1473
32-7,184177057,353
32-8,184180963,-1023
32-9,184184869,-1733
32-10,184188775,-1415
32-11,184192681,-418
32-12,184196587,504
32-13,184200493,685
32-14,184204399,20
32-15,184208305,-1126
32-16,184212211,-2010
32-17,184216117,-2021
32-18,184220023,-1201
32-19,184223929,-10
32-20,184227835,832
32-21,184231741,809
32-22,184235647,-45
32-23,184239553,-1214
32-24,184243459,-1846
32-25,184247365,-1540
32-26,184251271,-590
32-27,184255177,496
32-28,184259083,1210
32-29,184262989,1279
32-30,184266895,716
32-31,184270801,-185
32-32,184274707,-832
32-1,184278618,-833
32-2,184282524,-167
32-3,184286430,798
32-4,184290336,1376
32-5,184294242,1092
32-6,184298148,0
32-7,184302054,-1142
32-8,184305960,-1507
32-9,184309866,-958
32-10,184313772,44
32-11,184317678,716
32-12,184321584,585
32-13,184325490,-257
32-14,184329396,-1352
32-15,184333302,-1960
32-16,184337208,-1659
32-17,184341114,-656
32-18,184345020,481
32-19,184348926,1042
32-20,184352832,693
32-21,184356738,-358
32-22,184360644,-1478
32-23,184364550,-1864
32-24,184368456,-1279
32-25,184372362,-163
32-26,184376268,767
32-27,184380174,961
32-28,184384080,490
32-29,184387986,-247
32-30,184391892,-772
32-31,184395798,-781
32-32,184399704,-367
32-1,184403616,306
32-2,184407522,955
32-3,184411428,1152
32-4,184415334,603
32-5,184419240,-572
32-6,184423146,-1611
32-7,184427052,-1800
32-8,184430958,-1162
32-9,184434864,-267
32-10,184438770,175
32-11,184442676,-174
32-12,184446582,-1160
32-13,184450488,-2231
32-14,184454394,-2640
32-15,184458300,-2121
32-16,184462206,-998
32-17,184466112,90
32-18,184470018,516
32-19,184473924,107
32-20,184477830,-892
32-21,184481736,-1796
32-22,184485642,-1901
32-23,184489548,-1136
32-24,184493454,60
32-25,184497360,921
32-26,184501266,882
32-27,184505172,89
32-28,184509078,-834
32-29,184512984,-1183
32-30,184516890,-716
32-31,184520796,195
32-32,184524702,1091
32-1,184528614,1571
32-2,184532520,1391
32-3,184536426,534
32-4,184540332,-673
32-5,184544238,-1476
32-6,184548144,-1384
32-7,184552050,-531
32-8,184555956,400
32-9,184559862,684
32-10,184563768,136
32-11,184567674,-963
32-12,184571580,-1896
32-13,184575486,-1963
32-14,184579392,-1126
32-15,184583298,135
32-16,184587204,1112
32-17,184591110,1262
32-18,184595016,563
32-19,184598922,-565
32-20,184602828,-1317
32-21,184606734,-1121
32-22,184610640,-148
32-23,184614546,1011
32-24,184618452,1627
32-25,184622358,1251
32-26,184626264,123
32-27,184630170,-1036
32-28,184634076,-1440
32-29,184637982,-864
32-30,184641888,261
32-31,184645794,1307
32-32,184649700,1717
32-1,184653611,1300
32-2,184657517,214
32-3,184661423,-950
32-4,184665329,-1499
32-5,184669235,-1177
32-6,184673141,-262
32-7,184677047,515
32-8,184680953,571
32-9,184684859,-141
32-10,184688765,-1234
32-11,184692671,-1977
32-12,184696577,-1830
32-13,184700483,-891
32-14,184704389,340
32-15,184708295,1161
32-16,184712201,1113
32-17,184716107,245
32-18,184720013,-910
32-19,184723919,-1495
32-20,184727825,-1112
32-21,184731731,-55
32-22,184735637,1011
32-23,184739543,1411
32-24,184743449,951
32-25,184747355,-95
32-26,184751261,-1060
32-27,184755167,-1234
32-28,184759073,-507
32-29,184762979,739
32-30,184766885,1863
32-31,184770791,2248
32-32,184774697,1723
32-1,184778609,541
32-2,184782515,-554
32-3,184786421,-851
32-4,184790327,-273
32-5,184794233,763
32-6,184798139,1523
32-7,184802045,1493
32-8,184805951,656
32-9,184809857,-520
32-10,184813763,-1214
32-11,184817669,-988
32-12,184821575,-73
32-13,184825481,902
32-14,184829387,1271
32-15,184833293,825
32-16,184837199,-171
32-17,184841105,-1108
32-18,184845011,-1299
32-19,184848917,-625
32-20,184852823,532
32-21,184856729,1531
32-22,184860635,1765
32-23,184864541,1121
32-24,184868447,-53
32-25,184872353,-989
32-26,184876259,-1055
32-27,184880165,-315
32-28,184884071,811
32-29,184887977,1719
32-30,184891883,1916
32-31,184895789,1276
32-32,184899695,90
32-1,184903607,-873
32-2,184907513,-989
32-3,184911419,-234
32-4,184915325,927
32-5,184919231,1727
32-6,184923137,1626
32-7,184927043,638
32-8,184930949,-624
32-9,184934855,-1279
32-10,184938761,-978
32-11,184942667,-43
32-12,184946573,819
32-13,184950479,998
32-14,184954385,430
32-15,184958291,-546
32-16,184962197,-1288
32-17,184966103,-1253
32-18,184970009,-468
32-19,184973915,667
32-20,184977821,1482
32-21,184981727,1468
32-22,184985633,612
32-23,184989539,-611
32-24,184993445,-1344
32-25,184997351,-1120
32-26,185001257,-194
32-27,185005163,880
32-28,185009069,1549
32-29,185012975,1551
32-30,185016881,917
32-31,185020787,-33
32-32,185024693,-703
32-1,185028604,-706
32-2,185032510,-23
32-3,185036416,970
32-4,185040322,1583
32-5,185044228,1328
32-6,185048134,231
32-7,185052040,-964
32-8,185055946,-1415
32-9,185059852,-955
32-10,185063758,-6
32-11,185067664,681
32-12,185071570,605
32-13,185075476,-187
32-14,185079382,-1250
32-15,185083288,-1843
32-16,185087194,-1520
32-17,185091100,-477
32-18,185095006,710
32-19,185098912,1361
32-20,185102818,1116
32-21,185106724,178
32-22,185110630,-786
32-23,185114536,-1088
32-24,185118442,-679
32-25,185122348,-115
32-26,185126254,102
32-27,185130160,-79
32-28,185134066,-343
32-29,185137972,-471
32-30,185141878,-359
32-31,185145784,-83
32-32,185149690,266
32-1,185153602,852
32-2,185157508,1542
32-3,185161414,1959
32-4,185165320,1697
32-5,185169226,658
32-6,185173132,-474
32-7,185177038,-978
32-8,185180944,-719
32-9,185184850,-3
32-10,185188756,455
32-11,185192662,153
32-12,185196568,-828
32-13,185200474,-1997
32-14,185204380,-2566
32-15,185208286,-2136
32-16,185212192,-1030
32-17,185216098,67
32-18,185220004,528
32-19,185223910,136
32-20,185227816,-857
32-21,185231722,-1763
32-22,185235628,-1955
32-23,185239534,-1357
32-24,185243440,-365
32-25,185247346,282
32-26,185251252,56
32-27,185255158,-871
32-28,185259064,-1788
32-29,185262970,-1983
32-30,185266876,-1456
32-31,185270782,-935
32-32,185274688,-927
32-1,185278599,-1389
32-2,185282505,-1934
32-3,185286411,-2284
32-4,185290317,-2412
32-5,185294223,-2219
32-6,185298129,-1645
32-7,185302035,-654
32-8,185305941,487
32-9,185309847,1286
32-10,185313753,1412
32-11,185317659,769
32-12,185321565,-171
32-13,185325471,-740
32-14,185329377,-744
32-15,185333283,-388
32-16,185337189,-151
32-17,185341095,-409
32-18,185345001,-1096
32-19,185348907,-1910
32-20,185352813,-2326
32-21,185356719,-1955
32-22,185360625,-974
32-23,185364531,156
32-24,185368437,823
32-25,185372343,574
32-26,185376249,-397
32-27,185380155,-1408
32-28,185384061,-1714
32-29,185387967,-1095
32-30,185391873,43
32-31,185395779,1072
32-32,185399685,1487
32-1,185403597,1145
32-2,185407503,181
32-3,185411409,-852
32-4,185415315,-1294
32-5,185419221,-923
32-6,185423127,13
32-7,185427033,822
32-8,185430939,929
32-9,185434845,284
32-10,185438751,-743
32-11,185442657,-1432
32-12,185446563,-1246
32-13,185450469,-305
32-14,185454375,873
32-15,185458281,1627
32-16,185462187,1554
32-17,185466093,740
32-18,185469999,-310
32-19,185473905,-828
32-20,185477811,-467
32-21,185481717,534
32-22,185485623,1586
32-23,185489529,2025
32-24,185493435,1595
32-25,185497341,517
32-26,185501247,-555
32-27,185505153,-868
32-28,185509059,-249
32-29,185512965,961
32-30,185516871,2127
32-31,185520777,2586
32-32,185524683,2116
32-1,185528595,956
32-2,185532501,-141
32-3,185536407,-417
32-4,185540313,243
32-5,185544219,1415
32-6,185548125,2336
32-7,185552031,2446
32-8,185555937,1684
32-9,185559843,552
32-10,185563749,-123
32-11,185567655,25
32-12,185571561,705
32-13,185575467,1342
32-14,185579373,1454
32-15,185583279,1022
32-16,185587185,317
32-17,185591091,-245
32-18,185594997,-243
32-19,185598903,382
32-20,185602809,1473
32-21,185606715,2648
32-22,185610621,3300
32-23,185614527,3058
32-24,185618433,1963
32-25,185622339,734
32-26,185626245,178
32-27,185630151,482
32-28,185634057,1354
32-29,185637963,2149
32-30,185641869,2339
32-31,185645775,1786
32-32,185649681,746
32-1,185653592,-80
32-2,185657498,-122
32-3,185661404,667
32-4,185665310,1892
32-5,185669216,2806
32-6,185673122,2832
32-7,185677028,1938
32-8,185680934,685
32-9,185684840,-35
32-10,185688746,177
32-11,185692652,1055
32-12,185696558,1910
32-13,185700464,2099
32-14,185704370,1518
32-15,185708276,509
32-16,185712182,-243
32-17,185716088,-158
32-18,185719994,748
32-19,185723900,2018
32-20,185727806,2938
32-21,185731712,2983
32-22,185735618,2138
32-23,185739524,914
32-24,185743430,189
32-25,185747336,396
32-26,185751242,1276
32-27,185755148,2254
32-28,185759054,2787
32-29,185762960,2686
32-30,185766866,2037
32-31,185770772,1182
32-32,185774678,692
32-1,185778590,860
32-2,185782496,1641
32-3,185786402,2643
32-4,185790308,3162
32-5,185794214,2767
32-6,185798120,1549
32-7,185802026,299
32-8,185805932,-116
32-9,185809838,410
32-10,185813744,1362
32-11,185817650,1953
32-12,185821556,1730
32-13,185825462,835
32-14,185829368,-224
32-15,185833274,-745
32-16,185837180,-402
32-17,185841086,548
32-18,185844992,1533
32-19,185848898,1910
32-20,185852804,1397
32-21,185856710,187
32-22,185860616,-1101
32-23,185864522,-1658
32-24,185868428,-1241
32-25,185872334,-262
32-26,185876240,590
32-27,185880146,733
32-28,185884052,195
32-29,185887958,-610
32-30,185891864,-1183
32-31,185895770,-1232
32-32,185899676,-879
32-1,185903588,-307
32-2,185907494,232
32-3,185911400,402
32-4,185915306,-46
32-5,185919212,-979
32-6,185923118,-1704
32-7,185927024,-1643
32-8,185930930,-861
32-9,185934836,88
32-10,185938742,519
32-11,185942648,209
32-12,185946554,-612
32-13,185950460,-1448
32-14,185954366,-1655
32-15,185958272,-1050
32-16,185962178,38
32-17,185966084,1015
32-18,185969990,1258
32-19,185973896,630
32-20,185977802,-561
32-21,185981708,-1637
32-22,185985614,-1891
32-23,185989520,-1217
32-24,185993426,-97
32-25,185997332,679
32-26,186001238,601
32-27,186005144,-157
32-28,186009050,-980
32-29,186012956,-1200
32-30,186016862,-615
32-31,186020768,371
32-32,186024674,1255
32-1,186028585,1626
32-2,186032491,1296
32-3,186036397,229
32-4,186040303,-1283
32-5,186044209,-2429
32-6,186048115,-2694
32-7,186052021,-2196
32-8,186055927,-1561
32-9,186059833,-1461
32-10,186063739,-2047
32-11,186067645,-3060
32-12,186071551,-3861
32-13,186075457,-3809
32-14,186079363,-2938
32-15,186083269,-1748
32-16,186087175,-878
32-17,186091081,-833
32-18,186094987,-1637
32-19,186098893,-2845
32-20,186102799,-3655
32-21,186106705,-3500
32-22,186110611,-2574
32-23,186114517,-1463
32-24,186118423,-819
32-25,186122329,-1076
32-26,186126235,-2051
32-27,186130141,-3089
32-28,186134047,-3430
32-29,186137953,-2844
32-30,186141859,-1737
32-31,186145765,-690
32-32,186149671,-204
32-1,186153705,-436
32-2,186157611,-1276
32-3,186161517,-2196
32-4,186165423,-2560
32-5,186169329,-2135
32-6,186173235,-1191
32-7,186177141,-434
32-8,186181047,-427
32-9,186184953,-1170
32-10,186188859,-2206
32-11,186192765,-2791
32-12,186196671,-2495
32-13,186200577,-1520
32-14,186204483,-394
32-15,186208389,184
32-16,186212295,-193
32-17,186216201,-1359
32-18,186220107,-2641
32-19,186224013,-3125
32-20,186227919,-2502
32-21,186231825,-1187
32-22,186235731,82
32-23,186239637,579
32-24,186243543,85
32-25,186247449,-1127
32-26,186251355,-2433
32-27,186255261,-3089
32-28,186259167,-2876
32-29,186263073,-2103
32-30,186266979,-1367
32-31,186270885,-1219
32-32,186274791,-1762
32-1,186278697,-2719
32-2,186282603,-3389
32-3,186286509,-3110
32-4,186290415,-1859
32-5,186294321,-142
32-6,186298227,1230
32-7,186302133,1712
32-8,186306039,1239
32-9,186309945,214
32-10,186313851,-505
32-11,186317757,-409
32-12,186321663,301
32-13,186325569,1007
32-14,186329475,1077
32-15,186333381,311
32-16,186337287,-864
32-17,186341193,-1667
32-18,186345099,-1609
32-19,186349005,-941
32-20,186352911,-235
32-21,186356817,180
32-22,186360723,290
32-23,186364629,208
32-24,186368535,-58
32-25,186372441,-260
32-26,186376347,-124
32-27,186380253,442
32-28,186384159,1461
32-29,186388065,2523
32-30,186391971,3130
32-31,186395877,2980
32-32,186399783,2150
32-1,186403578,1296
32-2,186407484,971
32-3,186411390,1209
32-4,186415296,1665
32-5,186419202,1729
32-6,186423108,1020
32-7,186427014,-353
32-8,186430920,-1778
32-9,186434826,-2456
32-10,186438732,-2156
32-11,186442638,-1208
32-12,186446544,-246
32-13,186450450,95
32-14,186454356,-336
32-15,186458262,-1252
32-16,186462168,-1958
32-17,186466074,-1824
32-18,186469980,-874
32-19,186473886,427
32-20,186477792,1384
32-21,186481698,1524
32-22,186485604,915
32-23,186489510,40
32-24,186493416,-394
32-25,186497322,-101
32-26,186501228,652
32-27,186505134,1414
32-28,186509040,1694
32-29,186512946,1229
32-30,186516852,95
32-31,186520758,-1315
32-32,186524664,-2385
32-1,186528576,-2746
32-2,186532482,-2334
32-3,186536388,-1459
32-4,186540294,-783
32-5,186544200,-788
32-6,186548106,-1452
32-7,186552012,-2048
32-8,186555918,-1797
32-9,186559824,-601
32-10,186563730,996
32-11,186567636,2091
32-12,186571542,2176
32-13,186575448,1405
32-14,186579354,282
32-15,186583260,-413
32-16,186587166,-216
32-17,186591072,727
32-18,186594978,1876
32-19,186598884,2422
32-20,186602790,1938
32-21,186606696,584
32-22,186610602,-1011
32-23,186614508,-1913
32-24,186618414,-1735
32-25,186622320,-908
32-26,186626226,-207
32-27,186630132,-217
32-28,186634038,-866
32-29,186637944,-1749
32-30,186641850,-2412
32-31,186645756,-2510
32-32,186649662,-2045
32-1,186778754,3893
32-2,186782660,4289
32-3,186786566,3857
32-4,186790472,2852
32-5,186794378,2020
32-6,186798284,1833
32-7,186802190,2156
32-8,186806096,2409
32-9,186810002,1991
32-10,186813908,752
32-11,186817814,-1064
32-12,186821720,-2861
32-13,186825626,-4030
32-14,186829532,-4472
32-15,186833438,-4408
32-16,186837344,-4261
32-17,186841250,-4416
32-18,186845156,-4877
32-19,186849062,-5280
32-20,186852968,-4871
32-21,186856874,-3154
32-22,186860780,-426
32-23,186864686,2528
32-24,186868592,4692
32-25,186872498,5392
32-26,186876404,4824
32-27,186880310,3873
32-28,186884216,3509
32-29,186888122,3900
32-30,186892028,4538
32-31,186895934,4856
32-32,186899840,4570
32-1,186903569,3892
32-2,186907475,3241
32-3,186911381,2873
32-4,186915287,3006
32-5,186919193,3748
32-6,186923099,4992
32-7,186927005,6260
32-8,186930911,6296
32-9,186934817,4787
32-10,186938723,2590
32-11,186942629,606
32-12,186946535,-211
32-13,186950441,808
32-14,186954347,3470
32-15,186958253,6241
32-16,186962159,7475
32-17,186966065,6182
32-18,186969971,2831
32-19,186973877,-872
32-20,186977783,-3222
32-21,186981689,-3388
32-22,186985595,-2143
32-23,186989501,-1394
32-24,186993407,-2419
32-25,186997313,-5419
32-26,187001219,-10648
32-27,187005125,-16638
32-28,187009031,-21400
32-29,187012937,-24595
32-30,187016843,-26332
32-31,187020749,-27500
32-32,187024655,-28800
32-1,187028566,-29856
32-2,187032472,-30654
32-3,187036378,-30564
32-4,187040284,-30182
32-5,187044190,-29083
32-6,187048096,-25573
32-7,187052002,-20930
32-8,187055908,-17015
32-9,187059814,-14918
32-10,187063720,-13690
32-11,187067626,-11911
32-12,187071532,-9533
32-13,187075438,-7962
32-14,187079344,-8696
32-15,187083250,-11854
32-16,187087156,-17054
32-17,187091062,-23028
32-18,187094968,-26713
32-19,187098874,-25608
32-20,187102780,-20435
32-21,187106686,-14823
32-22,187110592,-11786
32-23,187114498,-10870
32-24,187118404,-9626
32-25,187122310,-7410
32-26,187126216,-5735
32-27,187130122,-5817
32-28,187134028,-6835
32-29,187137934,-7337
32-30,187141840,-7327
32-31,187145746,-7529
32-32,187149652,-8008
32-1,187153564,-7672
32-2,187157470,-5619
32-3,187161376,-2109
32-4,187165282,2175
32-5,187169188,6340
32-6,187173094,9270
32-7,187177000,10459
32-8,187180906,10447
32-9,187184812,10969
32-10,187188718,12547
32-11,187192624,11633
32-12,187196530,4402
32-13,187200436,-7494
32-14,187204342,-16722
32-15,187208248,-16250
32-16,187212154,-5830
32-17,187216060,7580
32-18,187219966,16381
32-19,187223872,18793
32-20,187227778,17907
32-21,187231684,16811
32-22,187235590,14748
32-23,187239496,9727
32-24,187243402,3134
32-25,187247308,-1489
32-26,187251214,-2208
32-27,187255120,-44
32-28,187259026,2865
32-29,187262932,5297
32-30,187266838,7386
32-31,187270744,9818
32-32,187274650,13264
32-1,187278562,16978
32-2,187282468,20283
32-3,187286374,23583
32-4,187290280,26908
32-5,187294186,29591
32-6,187298092,29175
32-7,187301998,24382
32-8,187305904,17703
32-9,187309810,12027
32-10,187313716,7920
32-11,187317622,2999
32-12,187321528,-4565
32-13,187325434,-11786
32-14,187329340,-15264
32-15,187333246,-15612
32-16,187337152,-15693
32-17,187341058,-17799
32-18,187344964,-20985
32-19,187348870,-22828
32-20,187352776,-23210
32-21,187356682,-23651
32-22,187360588,-25166
32-23,187364494,-25893
32-24,187368400,-23931
32-25,187372306,-19673
32-26,187376212,-14304
32-27,187380118,-8789
32-28,187384024,-2144
32-29,187387930,5628
32-30,187391836,14089
32-31,187395742,21860
32-32,187399648,25537
32-1,187403559,23130
32-2,187407465,15480
32-3,187411371,5843
32-4,187415277,-1891
32-5,187419183,-4299
32-6,187423089,-1816
32-7,187426995,2750
32-8,187430901,7322
32-9,187434807,12406
32-10,187438713,19293
32-11,187442619,27029
32-12,187446525,32767
32-13,187450431,32767
32-14,187454337,32358
32-15,187458243,26875
32-16,187462149,12635
32-17,187466055,2392
32-18,187469961,3187
32-19,187473867,14500
32-20,187477773,27728
32-21,187481679,30859
32-22,187485585,30473
32-23,187489491,28680
32-24,187493397,26971
32-25,187497303,27192
32-26,187501209,27693
32-27,187505115,28249
32-28,187509021,28355
32-29,187512927,27943
32-30,187516833,26833
32-31,187520739,26594
32-32,187524645,26983
32-1,187528587,26645
32-2,187532493,23363
32-3,187536399,10860
32-4,187540305,-6249
32-5,187544211,-19286
32-6,187548117,-21387
32-7,187552023,-15141
32-8,187555929,-9240
32-9,187559835,-8346
32-10,187563741,-8416
32-11,187567647,-3677
32-12,187571553,7769
32-13,187575459,22767
32-14,187579365,26644
32-15,187583271,26310
32-16,187587177,14171
32-17,187591083,-9632
32-18,187594989,-31926
32-19,187598895,-32768
32-20,187602801,-32359
32-21,187606707,-17247
32-22,187610613,1899
32-23,187614519,14525
32-24,187618425,17728
32-25,187622331,11452
32-26,187626237,400
32-27,187630143,-9625
32-28,187634049,-16806
32-29,187637955,-18986
32-30,187641861,-13828
32-31,187645767,-1922
32-32,187649673,11956
32-1,187653554,19288
32-2,187657460,15165
32-3,187661366,4498
32-4,187665272,-4156
32-5,187669178,-5172
32-6,187673084,-422
32-7,187676990,1813
32-8,187680896,-3367
32-9,187684802,-13435
32-10,187688708,-21748
32-11,187692614,-22936
32-12,187696520,-18179
32-13,187700426,-13158
32-14,187704332,-11277
32-15,187708238,-12139
32-16,187712144,-11283
32-17,187716050,-5275
32-18,187719956,4015
32-19,187723862,12760
32-20,187727768,17514
32-21,187731674,16477
32-22,187735580,11021
32-23,187739486,4866
32-24,187743392,1022
32-25,187747298,161
32-26,187751204,787
32-27,187755110,1516
32-28,187759016,2840
32-29,187762922,6765
32-30,187766828,13762
32-31,187770734,20719
32-32,187774640,23549
32-1,187778552,23210
32-2,187782458,24912
32-3,187786364,28173
32-4,187790270,26469
32-5,187794176,14400
32-6,187798082,-6300
32-7,187801988,-25957
32-8,187805894,-32768
32-9,187809800,-32359
32-10,187813706,-31631
32-11,187817612,-29837
32-12,187821518,-30248
32-13,187825424,-30809
32-14,187829330,-30424
32-15,187833236,-29558
32-16,187837142,-26635
32-17,187841048,-23519
32-18,187844954,-22277
32-19,187848860,-23688
32-20,187852766,-26086
32-21,187856672,-28150
32-22,187860578,-27798
32-23,187864484,-27314
32-24,187868390,-24976
32-25,187872296,-22016
32-26,187876202,-15996
32-27,187880108,-5945
32-28,187884014,6946
32-29,187887920,19477
32-30,187891826,28633
32-31,187895732,32767
32-32,187899638,32767
32-1,187903550,31380
32-2,187907456,28784
32-3,187911362,24362
32-4,187915268,18133
32-5,187919174,11904
32-6,187923080,7837
32-7,187926986,8276
32-8,187930892,13922
32-9,187934798,21339
32-10,187938704,25071
32-11,187942610,23794
32-12,187946516,21669
32-13,187950422,23025
32-14,187954328,27112
32-15,187958234,28810
32-16,187962140,25846
32-17,187966046,20701
32-18,187969952,16592
32-19,187973858,14908
32-20,187977764,15091
32-21,187981670,16815
32-22,187985576,20578
32-23,187989482,25560
32-24,187993388,29390
32-25,187997294,29442
32-26,188001200,29074
32-27,188005106,28098
32-28,188009012,27599
32-29,188012918,27143
32-30,188016824,27674
32-31,188020730,27327
32-32,188024636,26783
32-1,188028608,21150
32-2,188032514,13655
32-3,188036420,11794
32-4,188040326,19752
32-5,188044232,25819
32-6,188048138,25496
32-7,188052044,8740
32-8,188055950,-17629
32-9,188059856,-32768
32-10,188063762,-32768
32-11,188067668,-32359
