32-1,142531790,-931
32-2,142535696,-1033
32-3,142539602,-555
32-4,142543508,187
32-5,142547414,804
32-6,142551320,933
32-7,142555226,518
32-8,142559132,-233
32-9,142563038,-844
32-10,142566944,-885
32-11,142570850,-390
32-12,142574756,285
32-13,142578662,673
32-14,142582568,551
32-15,142586474,36
32-16,142590380,-544
32-17,142594286,-759
32-18,142598192,-462
32-19,142602098,141
32-20,142606004,687
32-21,142609910,806
32-22,142613816,442
32-23,142617722,-199
32-24,142621628,-742
32-25,142625534,-806
32-26,142629440,-416
32-27,142633346,170
32-28,142637252,669
32-29,142641158,808
32-30,142645064,543
32-31,142648970,-10
32-32,142652876,-525
32-1,142656787,-644
32-2,142660693,-314
32-3,142664599,298
32-4,142668505,816
32-5,142672411,864
32-6,142676317,351
32-7,142680223,-428
32-8,142684129,-911
32-9,142688035,-783
32-10,142691941,-178
32-11,142695847,474
32-12,142699753,736
32-13,142703659,479
32-14,142707565,-131
32-15,142711471,-714
32-16,142715377,-851
32-17,142719283,-467
32-18,142723189,196
32-19,142727095,724
32-20,142731001,753
32-21,142734907,284
32-22,142738813,-421
32-23,142742719,-875
32-24,142746625,-743
32-25,142750531,-180
32-26,142754437,465
32-27,142758343,826
32-28,142762249,771
32-29,142766155,416
32-30,142770061,-54
32-31,142773967,-343
32-32,142777873,-283
32-1,142781785,55
32-2,142785691,545
32-3,142789597,890
32-4,142793503,795
32-5,142797409,206
32-6,142801315,-562
32-7,142805221,-930
32-8,142809127,-680
32-9,142813033,-44
32-10,142816939,504
32-11,142820845,581
32-12,142824751,186
32-13,142828657,-422
32-14,142832563,-815
32-15,142836469,-702
32-16,142840375,-169
32-17,142844281,493
32-18,142848187,864
32-19,142852093,700
32-20,142855999,108
32-21,142859905,-583
32-22,142863811,-906
32-23,142867717,-653
32-24,142871623,-25
32-25,142875529,572
32-26,142879435,725
32-27,142883341,373
32-28,142887247,-147
32-29,142891153,-453
32-30,142895059,-312
32-31,142898965,100
32-32,142902871,490
32-1,142906783,735
32-2,142910689,746
32-3,142914595,460
32-4,142918501,-160
32-5,142922407,-793
32-6,142926313,-958
32-7,142930219,-543
32-8,142934125,117
32-9,142938031,522
32-10,142941937,441
32-11,142945843,-18
32-12,142949749,-577
32-13,142953655,-851
32-14,142957561,-636
32-15,142961467,-50
32-16,142965373,590
32-17,142969279,846
32-18,142973185,539
32-19,142977091,-144
32-20,142980997,-793
32-21,142984903,-955
32-22,142988809,-590
32-23,142992715,45
32-24,142996621,578
32-25,143000527,595
32-26,143004433,91
32-27,143008339,-577
32-28,143012245,-906
32-29,143016151,-618
32-30,143020057,0
32-31,143023963,518
32-32,143027869,665
32-1,143031963,401
32-2,143035869,-116
32-3,143039775,-677
32-4,143043681,-980
32-5,143047587,-782
32-6,143051493,-171
32-7,143055399,539
32-8,143059305,974
32-9,143063211,926
32-10,143067117,413
32-11,143071023,-307
32-12,143074929,-740
32-13,143078835,-619
32-14,143082741,-76
32-15,143086647,460
32-16,143090553,565
32-17,143094459,200
32-18,143098365,-396
32-19,143102271,-816
32-20,143106177,-747
32-21,143110083,-242
32-22,143113989,436
32-23,143117895,896
32-24,143121801,811
32-25,143125707,194
32-26,143129613,-590
32-27,143133519,-986
32-28,143137425,-732
32-29,143141331,-57
32-30,143145237,630
32-31,143149143,923
32-32,143153049,682
32-1,143156778,37
32-2,143160684,-668
32-3,143164590,-945
32-4,143168496,-669
32-5,143172402,-38
32-6,143176308,574
32-7,143180214,771
32-8,143184120,459
32-9,143188026,-219
32-10,143191932,-856
32-11,143195838,-977
32-12,143199744,-517
32-13,143203650,214
32-14,143207556,731
32-15,143211462,697
32-16,143215368,176
32-17,143219274,-536
32-18,143223180,-977
32-19,143227086,-846
32-20,143230992,-256
32-21,143234898,444
32-22,143238804,785
32-23,143242710,557
32-24,143246616,-87
32-25,143250522,-775
32-26,143254428,-1004
32-27,143258334,-649
32-28,143262240,52
32-29,143266146,743
32-30,143270052,1006
32-31,143273958,708
32-32,143277864,4
32-1,143281775,-709
32-2,143285681,-934
32-3,143289587,-550
32-4,143293493,213
32-5,143297399,917
32-6,143301305,1073
32-7,143305211,526
32-8,143309117,-463
32-9,143313023,-1220
32-10,143316929,-1167
32-11,143320835,-388
32-12,143324741,516
32-13,143328647,880
32-14,143332553,501
32-15,143336459,-327
32-16,143340365,-1104
32-17,143344271,-1279
32-18,143348177,-712
32-19,143352083,239
32-20,143355989,1003
32-21,143359895,1108
32-22,143363801,468
32-23,143367707,-499
32-24,143371613,-1125
32-25,143375519,-1114
32-26,143379425,-749
32-27,143383331,-401
32-28,143387237,-161
32-29,143391143,26
32-30,143395049,127
32-31,143398955,-73
32-32,143402861,-462
32-1,143406773,-690
32-2,143410679,-461
32-3,143414585,311
32-4,143418491,1153
32-5,143422397,1534
32-6,143426303,1181
32-7,143430209,254
32-8,143434115,-591
32-9,143438021,-849
32-10,143441927,-538
32-11,143445833,-66
32-12,143449739,64
32-13,143453645,-270
32-14,143457551,-839
32-15,143461457,-1257
32-16,143465363,-1134
32-17,143469269,-479
32-18,143473175,390
32-19,143477081,1017
32-20,143480987,998
32-21,143484893,327
32-22,143488799,-655
32-23,143492705,-1298
32-24,143496611,-1145
32-25,143500517,-380
32-26,143504423,480
32-27,143508329,928
32-28,143512235,830
32-29,143516141,348
32-30,143520047,-279
32-31,143523953,-685
32-32,143527859,-644
32-1,143531771,-141
32-2,143535677,647
32-3,143539583,1211
32-4,143543489,1057
32-5,143547395,120
32-6,143551301,-965
32-7,143555207,-1315
32-8,143559113,-835
32-9,143563019,-82
32-10,143566925,319
32-11,143570831,122
32-12,143574737,-391
32-13,143578643,-882
32-14,143582549,-1069
32-15,143586455,-784
32-16,143590361,-116
32-17,143594267,773
32-18,143598173,1483
32-19,143602079,1530
32-20,143605985,783
32-21,143609891,-402
32-22,143613797,-1234
32-23,143617703,-1149
32-24,143621609,-331
32-25,143625515,515
32-26,143629421,707
32-27,143633327,206
32-28,143637233,-455
32-29,143641139,-769
32-30,143645045,-523
32-31,143648951,44
32-32,143652857,641
32-1,143656768,1091
32-2,143660674,1173
32-3,143664580,717
32-4,143668486,-262
32-5,143672392,-1186
32-6,143676298,-1349
32-7,143680204,-666
32-8,143684110,316
32-9,143688016,875
32-10,143691922,689
32-11,143695828,-65
32-12,143699734,-921
32-13,143703640,-1252
32-14,143707546,-821
32-15,143711452,-33
32-16,143715358,538
32-17,143719264,508
32-18,143723170,-16
32-19,143727076,-647
32-20,143730982,-1053
32-21,143734888,-989
32-22,143738794,-484
32-23,143742700,337
32-24,143746606,1239
32-25,143750512,1606
32-26,143754418,1112
32-27,143758324,38
32-28,143762230,-876
32-29,143766136,-969
32-30,143770042,-306
32-31,143773948,589
32-32,143777854,1123
32-1,143781919,968
32-2,143785825,196
32-3,143789731,-805
32-4,143793637,-1404
32-5,143797543,-1152
32-6,143801449,-240
32-7,143805355,658
32-8,143809261,938
32-9,143813167,503
32-10,143817073,-332
32-11,143820979,-1096
32-12,143824885,-1251
32-13,143828791,-663
32-14,143832697,315
32-15,143836603,1096
32-16,143840509,1165
32-17,143844415,489
32-18,143848321,-550
32-19,143852227,-1248
32-20,143856133,-1107
32-21,143860039,-349
32-22,143863945,424
32-23,143867851,697
32-24,143871757,334
32-25,143875663,-381
32-26,143879569,-984
32-27,143883475,-1072
32-28,143887381,-579
32-29,143891287,223
32-30,143895193,1062
32-31,143899099,1598
32-32,143903005,1507
32-1,143906764,690
32-2,143910670,-469
32-3,143914576,-1168
32-4,143918482,-1025
32-5,143922388,-285
32-6,143926294,399
32-7,143930200,458
32-8,143934106,-67
32-9,143938012,-803
32-10,143941918,-1249
32-11,143945824,-1033
32-12,143949730,-260
32-13,143953636,649
32-14,143957542,1172
32-15,143961448,979
32-16,143965354,174
32-17,143969260,-815
32-18,143973166,-1348
32-19,143977072,-1039
32-20,143980978,-127
32-21,143984884,810
32-22,143988790,1147
32-23,143992696,701
32-24,143996602,-240
32-25,144000508,-1130
32-26,144004414,-1352
32-27,144008320,-805
32-28,144012226,179
32-29,144016132,1085
32-30,144020038,1367
32-31,144023944,855
32-32,144027850,-207
32-1,144031761,-1180
32-2,144035667,-1404
32-3,144039573,-801
32-4,144043479,260
32-5,144047385,1192
32-6,144051291,1408
32-7,144055197,770
32-8,144059103,-393
32-9,144063009,-1270
32-10,144066915,-1213
32-11,144070821,-393
32-12,144074727,522
32-13,144078633,862
32-14,144082539,475
32-15,144086445,-315
32-16,144090351,-1054
32-17,144094257,-1244
32-18,144098163,-715
32-19,144102069,237
32-20,144105975,1073
32-21,144109881,1253
32-22,144113787,666
32-23,144117693,-349
32-24,144121599,-1164
32-25,144125505,-1197
32-26,144129411,-509
32-27,144133317,461
32-28,144137223,1224
32-29,144141129,1371
32-30,144145035,853
32-31,144148941,-93
32-32,144152847,-904
32-1,144156759,-1029
32-2,144160665,-402
32-3,144164571,621
32-4,144168477,1382
32-5,144172383,1328
32-6,144176289,421
32-7,144180195,-773
32-8,144184101,-1389
32-9,144188007,-1068
32-10,144191913,-214
32-11,144195819,499
32-12,144199725,582
32-13,144203631,106
32-14,144207537,-561
32-15,144211443,-1055
32-16,144215349,-1042
32-17,144219255,-492
32-18,144223161,389
32-19,144227067,1201
32-20,144230973,1425
32-21,144234879,859
32-22,144238785,-253
32-23,144242691,-1163
32-24,144246597,-1209
32-25,144250503,-486
32-26,144254409,435
32-27,144258315,948
32-28,144262221,879
32-29,144266127,422
32-30,144270033,-178
32-31,144273939,-579
32-32,144277845,-540
32-1,144281756,-37
32-2,144285662,752
32-3,144289568,1313
32-4,144293474,1156
32-5,144297380,223
32-6,144301286,-922
32-7,144305192,-1372
32-8,144309098,-850
32-9,144313004,179
32-10,144316910,945
32-11,144320816,902
32-12,144324722,153
32-13,144328628,-834
32-14,144332534,-1425
32-15,144336440,-1178
32-16,144340346,-265
32-17,144344252,758
32-18,144348158,1263
32-19,144352064,950
32-20,144355970,25
32-21,144359876,-959
32-22,144363782,-1333
32-23,144367688,-853
32-24,144371594,107
32-25,144375500,911
32-26,144379406,1058
32-27,144383312,539
32-28,144387218,-193
32-29,144391124,-633
32-30,144395030,-478
32-31,144398936,61
32-32,144402842,640
32-1,144406754,1051
32-2,144410660,1106
32-3,144414566,693
32-4,144418472,-153
32-5,144422378,-946
32-6,144426284,-1086
32-7,144430190,-502
32-8,144434096,335
32-9,144438002,812
32-10,144441908,655
32-11,144445814,25
32-12,144449720,-681
32-13,144453626,-970
32-14,144457532,-624
32-15,144461438,126
32-16,144465344,840
32-17,144469250,1069
32-18,144473156,696
32-19,144477062,-56
32-20,144480968,-759
32-21,144484874,-930
32-22,144488780,-500
32-23,144492686,255
32-24,144496592,898
32-25,144500498,956
32-26,144504404,412
32-27,144508310,-319
32-28,144512216,-724
32-29,144516122,-525
32-30,144520028,18
32-31,144523934,547
32-32,144527840,845
32-1,144531935,802
32-2,144535841,445
32-3,144539747,-122
32-4,144543653,-576
32-5,144547559,-550
32-6,144551465,-72
32-7,144555371,452
32-8,144559277,569
32-9,144563183,154
32-10,144567089,-607
32-11,144570995,-1302
32-12,144574901,-1394
32-13,144578807,-718
32-14,144582713,328
32-15,144586619,1073
32-16,144590525,1049
32-17,144594431,328
32-18,144598337,-660
32-19,144602243,-1296
32-20,144606149,-1135
32-21,144610055,-308
32-22,144613961,662
32-23,144617867,1191
32-24,144621773,932
32-25,144625679,21
32-26,144629585,-958
32-27,144633491,-1334
32-28,144637397,-885
32-29,144641303,48
32-30,144645209,980
32-31,144649115,1476
32-32,144653021,1307
32-1,144656749,515
32-2,144660655,-485
32-3,144664561,-1032
32-4,144668467,-872
32-5,144672373,-208
32-6,144676279,449
32-7,144680185,623
32-8,144684091,262
32-9,144687997,-395
32-10,144691903,-877
32-11,144695809,-790
32-12,144699715,-201
32-13,144703621,534
32-14,144707527,970
32-15,144711433,846
32-16,144715339,260
32-17,144719245,-486
32-18,144723151,-898
32-19,144727057,-681
32-20,144730963,-7
32-21,144734869,707
32-22,144738775,986
32-23,144742681,667
32-24,144746587,-19
32-25,144750493,-679
32-26,144754399,-881
32-27,144758305,-554
32-28,144762211,60
32-29,144766117,657
32-30,144770023,884
32-31,144773929,628
32-32,144777835,41
32-1,144781747,-523
32-2,144785653,-672
32-3,144789559,-375
32-4,144793465,163
32-5,144797371,655
32-6,144801277,789
32-7,144805183,461
32-8,144809089,-173
32-9,144812995,-662
32-10,144816901,-625
32-11,144820807,-126
32-12,144824713,473
32-13,144828619,752
32-14,144832525,558
32-15,144836431,25
32-16,144840337,-553
32-17,144844243,-767
32-18,144848149,-445
32-19,144852055,225
32-20,144855961,846
32-21,144859867,991
32-22,144863773,578
32-23,144867679,-158
32-24,144871585,-773
32-25,144875491,-840
32-26,144879397,-393
32-27,144883303,259
32-28,144887209,785
32-29,144891115,900
32-30,144895021,580
32-31,144898927,-23
32-32,144902833,-555
32-1,144906745,-658
32-2,144910651,-302
32-3,144914557,332
32-4,144918463,868
32-5,144922369,926
32-6,144926275,427
32-7,144930181,-319
32-8,144934087,-762
32-9,144937993,-630
32-10,144941899,-95
32-11,144945805,424
32-12,144949711,545
32-13,144953617,212
32-14,144957523,-367
32-15,144961429,-822
32-16,144965335,-787
32-17,144969241,-272
32-18,144973147,434
32-19,144977053,904
32-20,144980959,823
32-21,144984865,260
32-22,144988771,-504
32-23,144992677,-993
32-24,144996583,-886
32-25,145000489,-333
32-26,145004395,317
32-27,145008301,706
32-28,145012207,704
32-29,145016113,418
32-30,145020019,0
32-31,145023925,-289
32-32,145027831,-301
32-1,145031742,-64
32-2,145035648,348
32-3,145039554,660
32-4,145043460,580
32-5,145047366,44
32-6,145051272,-641
32-7,145055178,-923
32-8,145059084,-615
32-9,145062990,28
32-10,145066896,544
32-11,145070802,570
32-12,145074708,126
32-13,145078614,-514
32-14,145082520,-931
32-15,145086426,-814
32-16,145090332,-248
32-17,145094238,452
32-18,145098144,847
32-19,145102050,682
32-20,145105956,53
32-21,145109862,-687
32-22,145113768,-1043
32-23,145117674,-775
32-24,145121580,-92
32-25,145125486,574
32-26,145129392,786
32-27,145133298,474
32-28,145137204,-46
32-29,145141110,-389
32-30,145145016,-299
32-31,145148922,81
32-32,145152828,468
32-1,145156740,730
32-2,145160646,749
32-3,145164552,456
32-4,145168458,-143
32-5,145172364,-728
32-6,145176270,-854
32-7,145180176,-439
32-8,145184082,194
32-9,145187988,564
32-10,145191894,438
32-11,145195800,-82
32-12,145199706,-685
32-13,145203612,-950
32-14,145207518,-678
32-15,145211424,-48
32-16,145215330,573
32-17,145219236,770
32-18,145223142,433
32-19,145227048,-230
32-20,145230954,-843
32-21,145234860,-984
32-22,145238766,-588
32-23,145242672,104
32-24,145246578,698
32-25,145250484,740
32-26,145254390,219
32-27,145258296,-465
32-28,145262202,-809
32-29,145266108,-539
32-30,145270014,66
32-31,145273920,599
32-32,145277826,821
32-1,145281921,642
32-2,145285827,144
32-3,145289733,-488
32-4,145293639,-904
32-5,145297545,-814
32-6,145301451,-300
32-7,145305357,269
32-8,145309263,501
32-9,145313169,271
32-10,145317075,-287
32-11,145320981,-853
32-12,145324887,-1007
32-13,145328793,-629
32-14,145332699,48
32-15,145336605,604
32-16,145340511,689
32-17,145344417,307
32-18,145348323,-320
32-19,145352229,-812
32-20,145356135,-827
32-21,145360041,-376
32-22,145363947,276
32-23,145367853,728
32-24,145371759,657
32-25,145375665,94
32-26,145379571,-599
32-27,145383477,-935
32-28,145387383,-682
32-29,145391289,-52
32-30,145395195,610
32-31,145399101,952
32-32,145403007,803
32-1,145406735,235
32-2,145410641,-450
32-3,145414547,-785
32-4,145418453,-620
32-5,145422359,-107
32-6,145426265,378
32-7,145430171,475
32-8,145434077,130
32-9,145437983,-484
32-10,145441889,-959
32-11,145445795,-908
32-12,145449701,-352
32-13,145453607,368
32-14,145457513,806
32-15,145461419,701
32-16,145465325,142
32-17,145469231,-568
32-18,145473137,-965
32-19,145477043,-782
32-20,145480949,-208
32-21,145484855,360
32-22,145488761,529
32-23,145492667,226
32-24,145496573,-318
32-25,145500479,-790
32-26,145504385,-866
32-27,145508291,-514
32-28,145512197,89
32-29,145516103,697
32-30,145520009,995
32-31,145523915,835
32-32,145527821,269
32-1,145531733,-368
32-2,145535639,-647
32-3,145539545,-465
32-4,145543451,2
32-5,145547357,414
32-6,145551263,446
32-7,145555169,46
32-8,145559075,-584
32-9,145562981,-966
32-10,145566887,-783
32-11,145570793,-182
32-12,145574699,470
32-13,145578605,769
32-14,145582511,564
32-15,145586417,-17
32-16,145590323,-667
32-17,145594229,-926
32-18,145598135,-619
32-19,145602041,37
32-20,145605947,628
32-21,145609853,750
32-22,145613759,345
32-23,145617665,-342
32-24,145621571,-918
32-25,145625477,-979
32-26,145629383,-520
32-27,145633289,176
32-28,145637195,766
32-29,145641101,924
32-30,145645007,604
32-31,145648913,-28
32-32,145652819,-595
32-1,145656730,-741
32-2,145660636,-426
32-3,145664542,165
32-4,145668448,656
32-5,145672354,703
32-6,145676260,234
32-7,145680166,-445
32-8,145684072,-804
32-9,145687978,-621
32-10,145691884,-87
32-11,145695790,413
32-12,145699696,531
32-13,145703602,199
32-14,145707508,-399
32-15,145711414,-893
32-16,145715320,-901
32-17,145719226,-420
32-18,145723132,259
32-19,145727038,732
32-20,145730944,705
32-21,145734850,241
32-22,145738756,-413
32-23,145742662,-842
32-24,145746568,-731
32-25,145750474,-195
32-26,145754380,428
32-27,145758286,750
32-28,145762192,649
32-29,145766098,285
32-30,145770004,-142
32-31,145773910,-385
32-32,145777816,-330
32-1,145781728,-20
32-2,145785634,453
32-3,145789540,801
32-4,145793446,731
32-5,145797352,174
32-6,145801258,-551
32-7,145805164,-879
32-8,145809070,-630
32-9,145812976,-55
32-10,145816882,423
32-11,145820788,486
32-12,145824694,144
32-13,145828600,-399
32-14,145832506,-779
32-15,145836412,-700
32-16,145840318,-223
32-17,145844224,386
32-18,145848130,744
32-19,145852036,618
32-20,145855942,75
32-21,145859848,-578
32-22,145863754,-875
32-23,145867660,-601
32-24,145871566,-4
32-25,145875472,470
32-26,145879378,480
32-27,145883284,102
32-28,145887190,-285
32-29,145891096,-391
32-30,145895002,-162
32-31,145898908,181
32-32,145902814,478
32-1,145906695,721
32-2,145910601,853
32-3,145914507,715
32-4,145918413,187
32-5,145922319,-446
32-6,145926225,-723
32-7,145930131,-499
32-8,145934037,-17
32-9,145937943,286
32-10,145941849,182
32-11,145945755,-250
32-12,145949661,-772
32-13,145953567,-978
32-14,145957473,-670
32-15,145961379,-19
32-16,145965285,634
32-17,145969191,891
32-18,145973097,628
32-19,145977003,8
32-20,145980909,-625
32-21,145984815,-835
32-22,145988721,-522
32-23,145992627,100
32-24,145996533,641
32-25,146000439,656
32-26,146004345,137
32-27,146008251,-515
32-28,146012157,-810
32-29,146016063,-498
32-30,146019969,132
32-31,146023875,688
32-32,146027781,939
32-1,146031906,795
32-2,146035812,316
32-3,146039718,-330
32-4,146043624,-795
32-5,146047530,-778
32-6,146051436,-322
32-7,146055342,238
32-8,146059248,535
32-9,146063154,420
32-10,146067060,-20
32-11,146070966,-526
32-12,146074872,-698
32-13,146078778,-397
32-14,146082684,184
32-15,146086590,686
32-16,146090496,763
32-17,146094402,386
32-18,146098308,-257
32-19,146102214,-775
32-20,146106120,-785
32-21,146110026,-286
32-22,146113932,423
32-23,146117838,899
32-24,146121744,808
32-25,146125650,195
32-26,146129556,-557
32-27,146133462,-954
32-28,146137368,-751
32-29,146141274,-133
32-30,146145180,574
32-31,146149086,988
32-32,146152992,888
32-1,146156721,323
32-2,146160627,-383
32-3,146164533,-751
32-4,146168439,-615
32-5,146172345,-113
32-6,146176251,423
32-7,146180157,623
32-8,146184063,382
32-9,146187969,-182
32-10,146191875,-689
32-11,146195781,-732
32-12,146199687,-311
32-13,146203593,268
32-14,146207499,617
32-15,146211405,529
32-16,146215311,101
32-17,146219217,-461
32-18,146223123,-799
32-19,146227029,-639
32-20,146230935,-58
32-21,146234841,632
32-22,146238747,964
32-23,146242653,718
32-24,146246559,58
32-25,146250465,-648
32-26,146254371,-914
32-27,146258277,-621
32-28,146262183,7
32-29,146266089,646
32-30,146269995,884
32-31,146273901,576
32-32,146277807,-116
32-1,146281719,-781
32-2,146285625,-937
32-3,146289531,-527
32-4,146293437,174
32-5,146297343,800
32-6,146301249,975
32-7,146305155,602
32-8,146309061,-125
32-9,146312967,-736
32-10,146316873,-811
32-11,146320779,-374
32-12,146324685,229
32-13,146328591,556
32-14,146332497,399
32-15,146336403,-132
32-16,146340309,-717
32-17,146344215,-923
32-18,146348121,-593
32-19,146352027,71
32-20,146355933,679
32-21,146359839,832
32-22,146363745,452
32-23,146367651,-243
32-24,146371557,-848
32-25,146375463,-951
32-26,146379369,-547
32-27,146383275,93
32-28,146387181,653
32-29,146391087,832
32-30,146394993,563
32-31,146398899,-41
32-32,146402805,-627
32-1,146406716,-794
32-2,146410622,-468
32-3,146414528,180
32-4,146418434,744
32-5,146422340,829
32-6,146426246,350
32-7,146430152,-404
32-8,146434058,-865
32-9,146437964,-718
32-10,146441870,-116
32-11,146445776,493
32-12,146449682,689
32-13,146453588,362
32-14,146457494,-312
32-15,146461400,-927
32-16,146465306,-1017
32-17,146469212,-509
32-18,146473118,277
32-19,146477024,836
32-20,146480930,778
32-21,146484836,189
32-22,146488742,-564
32-23,146492648,-980
32-24,146496554,-812
32-25,146500460,-308
32-26,146504366,250
32-27,146508272,594
32-28,146512178,588
32-29,146516084,298
32-30,146519990,-137
32-31,146523896,-414
32-32,146527802,-342
32-1,146531744,11
32-2,146535650,470
32-3,146539556,720
32-4,146543462,522
32-5,146547368,-86
32-6,146551274,-752
32-7,146555180,-968
32-8,146559086,-603
32-9,146562992,30
32-10,146566898,479
32-11,146570804,469
32-12,146574710,85
32-13,146578616,-451
32-14,146582522,-834
32-15,146586428,-811
32-16,146590334,-394
32-17,146594240,226
32-18,146598146,662
32-19,146602052,604
32-20,146605958,73
32-21,146609864,-618
32-22,146613770,-955
32-23,146617676,-713
32-24,146621582,-102
32-25,146625488,483
32-26,146629394,685
32-27,146633300,433
32-28,146637206,-26
32-29,146641112,-321
32-30,146645018,-259
32-31,146648924,-55
32-32,146652830,0
32-1,146656712,-155
32-2,146660618,-409
32-3,146664524,-612
32-4,146668430,-710
32-5,146672336,-663
32-6,146676242,-494
32-7,146680148,-329
32-8,146684054,-231
32-9,146687960,-246
32-10,146691866,-330
32-11,146695772,-453
32-12,146699678,-638
32-13,146703584,-713
32-14,146707490,-497
32-15,146711396,17
32-16,146715302,652
32-17,146719208,1067
32-18,146723114,1086
32-19,146727020,783
32-20,146730926,339
32-21,146734832,16
32-22,146738738,-95
32-23,146742644,-68
32-24,146746550,-29
32-25,146750456,-174
32-26,146754362,-474
32-27,146758268,-691
32-28,146762174,-604
32-29,146766080,-185
32-30,146769986,337
32-31,146773892,733
32-32,146777798,899
32-1,146781892,808
32-2,146785798,447
32-3,146789704,-91
32-4,146793610,-516
32-5,146797516,-539
32-6,146801422,-157
32-7,146805328,332
32-8,146809234,561
32-9,146813140,400
32-10,146817046,-68
32-11,146820952,-567
32-12,146824858,-716
32-13,146828764,-401
32-14,146832670,191
32-15,146836576,735
32-16,146840482,879
32-17,146844388,522
32-18,146848294,-109
32-19,146852200,-619
32-20,146856106,-732
32-21,146860012,-525
32-22,146863918,-266
32-23,146867824,-139
32-24,146871730,-180
32-25,146875636,-327
32-26,146879542,-489
32-27,146883448,-514
32-28,146887354,-329
32-29,146891260,83
32-30,146895166,628
32-31,146899072,985
32-32,146902978,965
32-1,146906707,563
32-2,146910613,-1
32-3,146914519,-355
32-4,146918425,-385
32-5,146922331,-179
32-6,146926237,61
32-7,146930143,78
32-8,146934049,-191
32-9,146937955,-653
32-10,146941861,-1006
32-11,146945767,-888
32-12,146949673,-321
32-13,146953579,393
32-14,146957485,861
32-15,146961391,856
32-16,146965297,436
32-17,146969203,-213
32-18,146973109,-694
32-19,146977015,-665
32-20,146980921,-162
32-21,146984827,488
32-22,146988733,797
32-23,146992639,540
32-24,146996545,-112
32-25,147000451,-783
32-26,147004357,-1007
32-27,147008263,-676
32-28,147012169,-9
32-29,147016075,660
32-30,147019981,919
32-31,147023887,624
32-32,147027793,-63
32-1,147031704,-714
32-2,147035610,-865
32-3,147039516,-480
32-4,147043422,143
32-5,147047328,615
32-6,147051234,614
32-7,147055140,142
32-8,147059046,-527
32-9,147062952,-936
32-10,147066858,-786
32-11,147070764,-189
32-12,147074670,540
32-13,147078576,1039
32-14,147082482,1099
32-15,147086388,709
32-16,147090294,59
32-17,147094200,-417
32-18,147098106,-444
32-19,147102012,-87
32-20,147105918,334
32-21,147109824,441
32-22,147113730,163
32-23,147117636,-329
32-24,147121542,-722
32-25,147125448,-683
32-26,147129354,-254
32-27,147133260,336
32-28,147137166,815
32-29,147141072,918
32-30,147144978,584
32-31,147148884,-62
32-32,147152790,-615
32-1,147156794,-700
32-2,147160700,-342
32-3,147164606,154
32-4,147168512,411
32-5,147172418,235
32-6,147176324,-265
32-7,147180230,-774
32-8,147184136,-928
32-9,147188042,-632
32-10,147191948,-27
32-11,147195854,652
32-12,147199760,1096
32-13,147203666,1098
32-14,147207572,623
32-15,147211478,-64
32-16,147215384,-514
32-17,147219290,-516
32-18,147223196,-159
32-19,147227102,236
32-20,147231008,319
32-21,147234914,32
32-22,147238820,-475
32-23,147242726,-806
32-24,147246632,-642
32-25,147250538,-113
32-26,147254444,477
32-27,147258350,779
32-28,147262256,696
32-29,147266162,362
32-30,147270068,-71
32-31,147273974,-353
32-32,147277880,-333
32-1,147281700,-34
32-2,147285606,448
32-3,147289512,800
32-4,147293418,712
32-5,147297324,140
32-6,147301230,-597
32-7,147305136,-934
32-8,147309042,-691
32-9,147312948,-106
32-10,147316854,417
32-11,147320760,530
32-12,147324666,189
32-13,147328572,-415
32-14,147332478,-879
32-15,147336384,-851
32-16,147340290,-356
32-17,147344196,308
32-18,147348102,712
32-19,147352008,598
32-20,147355914,47
32-21,147359820,-644
32-22,147363726,-1018
32-23,147367632,-818
32-24,147371538,-182
32-25,147375444,507
32-26,147379350,784
32-27,147383256,528
32-28,147387162,39
32-29,147391068,-312
32-30,147394974,-260
32-31,147398880,64
32-32,147402786,396
32-1,147406697,629
32-2,147410603,645
32-3,147414509,368
32-4,147418415,-209
32-5,147422321,-767
32-6,147426227,-874
32-7,147430133,-454
32-8,147434039,173
32-9,147437945,545
32-10,147441851,437
32-11,147445757,-73
32-12,147449663,-689
32-13,147453569,-977
32-14,147457475,-712
32-15,147461381,-58
32-16,147465287,606
32-17,147469193,859
32-18,147473099,580
32-19,147477005,-47
32-20,147480911,-678
32-21,147484817,-897
32-22,147488723,-599
32-23,147492629,32
32-24,147496535,636
32-25,147500441,737
32-26,147504347,279
32-27,147508253,-392
32-28,147512159,-790
32-29,147516065,-612
32-30,147519971,-67
32-31,147523877,498
32-32,147527783,833
32-1,147531695,772
32-2,147535601,324
32-3,147539507,-342
32-4,147543413,-821
32-5,147547319,-762
32-6,147551225,-218
32-7,147555131,407
32-8,147559037,665
32-9,147562943,402
32-10,147566849,-232
32-11,147570755,-865
32-12,147574661,-1039
32-13,147578567,-625
32-14,147582473,112
32-15,147586379,712
32-16,147590285,777
32-17,147594191,302
32-18,147598097,-450
32-19,147602003,-1022
32-20,147605909,-1016
32-21,147609815,-459
32-22,147613721,305
32-23,147617627,810
32-24,147621533,734
32-25,147625439,143
32-26,147629345,-572
32-27,147633251,-915
32-28,147637157,-653
32-29,147641063,-9
32-30,147644969,656
32-31,147648875,981
32-32,147652781,810
32-1,147656693,246
32-2,147660599,-403
32-3,147664505,-702
32-4,147668411,-530
32-5,147672317,-31
32-6,147676223,463
32-7,147680129,609
32-8,147684035,324
32-9,147687941,-263
32-10,147691847,-761
32-11,147695753,-776
32-12,147699659,-314
32-13,147703565,340
32-14,147707471,786
32-15,147711377,753
32-16,147715283,268
32-17,147719189,-448
32-18,147723095,-945
32-19,147727001,-869
32-20,147730907,-297
32-21,147734813,403
32-22,147738719,759
32-23,147742625,538
32-24,147746531,-56
32-25,147750437,-641
32-26,147754343,-892
32-27,147758249,-759
32-28,147762155,-375
32-29,147766061,80
32-30,147769967,362
32-31,147773873,321
32-32,147777779,-47
32-1,147781812,-481
32-2,147785718,-599
32-3,147789624,-302
32-4,147793530,303
32-5,147797436,888
32-6,147801342,1123
32-7,147805248,916
32-8,147809154,353
32-9,147813060,-200
32-10,147816966,-391
32-11,147820872,-247
32-12,147824778,6
32-13,147828684,108
32-14,147832590,-53
32-15,147836496,-398
32-16,147840402,-759
32-17,147844308,-828
32-18,147848214,-469
32-19,147852120,167
32-20,147856026,753
32-21,147859932,931
32-22,147863838,605
32-23,147867744,-54
32-24,147871650,-643
32-25,147875556,-771
32-26,147879462,-438
32-27,147883368,96
32-28,147887274,547
32-29,147891180,676
32-30,147895086,444
32-31,147898992,-54
32-32,147902898,-543
32-1,147906688,-696
32-2,147910594,-395
32-3,147914500,244
32-4,147918406,834
32-5,147922312,969
32-6,147926218,522
32-7,147930124,-232
32-8,147934030,-748
32-9,147937936,-728
32-10,147941842,-289
32-11,147945748,203
32-12,147949654,361
32-13,147953560,104
32-14,147957466,-421
32-15,147961372,-871
32-16,147965278,-867
32-17,147969184,-403
32-18,147973090,267
32-19,147976996,761
32-20,147980902,762
32-21,147984808,283
32-22,147988714,-436
32-23,147992620,-929
32-24,147996526,-850
32-25,148000432,-330
32-26,148004338,278
32-27,148008244,615
32-28,148012150,565
32-29,148016056,251
32-30,148019962,-173
32-31,148023868,-468
32-32,148027774,-468
32-1,148031685,-186
32-2,148035591,291
32-3,148039497,662
32-4,148043403,613
32-5,148047309,97
32-6,148051215,-577
32-7,148055121,-870
32-8,148059027,-599
32-9,148062933,5
32-10,148066839,527
32-11,148070745,606
32-12,148074651,204
32-13,148078557,-453
32-14,148082463,-919
32-15,148086369,-847
32-16,148090275,-306
32-17,148094181,374
32-18,148098087,758
32-19,148101993,614
32-20,148105899,48
32-21,148109805,-627
32-22,148113711,-963
32-23,148117617,-725
32-24,148121523,-79
32-25,148125429,563
32-26,148129335,764
32-27,148133241,441
32-28,148137147,-81
32-29,148141053,-429
32-30,148144959,-360
32-31,148148865,-8
32-32,148152771,369
32-1,148156683,638
32-2,148160589,666
32-3,148164495,381
32-4,148168401,-208
32-5,148172307,-770
32-6,148176213,-871
32-7,148180119,-449
32-8,148184025,187
32-9,148187931,586
32-10,148191837,516
32-11,148195743,45
32-12,148199649,-552
32-13,148203555,-846
32-14,148207461,-604
32-15,148211367,-2
32-16,148215273,599
32-17,148219179,803
32-18,148223085,508
32-19,148226991,-101
32-20,148230897,-706
32-21,148234803,-890
32-22,148238709,-537
32-23,148242615,155
32-24,148246521,784
32-25,148250427,865
32-26,148254333,356
32-27,148258239,-342
32-28,148262145,-705
32-29,148266051,-464
32-30,148269957,86
32-31,148273863,503
32-32,148277769,550
32-1,148281681,237
32-2,148285587,-235
32-3,148289493,-655
32-4,148293399,-806
32-5,148297305,-577
32-6,148301211,-59
32-7,148305117,541
32-8,148309023,958
32-9,148312929,996
32-10,148316835,566
32-11,148320741,-143
32-12,148324647,-633
32-13,148328553,-601
32-14,148332459,-138
32-15,148336365,364
32-16,148340271,485
32-17,148344177,166
32-18,148348083,-403
32-19,148351989,-829
32-20,148355895,-751
32-21,148359801,-206
32-22,148363707,503
32-23,148367613,953
32-24,148371519,834
32-25,148375425,203
32-26,148379331,-528
32-27,148383237,-864
32-28,148387143,-596
32-29,148391049,20
32-30,148394955,549
32-31,148398861,649
32-32,148402767,297
32-1,148406831,-274
32-2,148410737,-725
32-3,148414643,-762
32-4,148418549,-431
32-5,148422455,133
32-6,148426361,725
32-7,148430267,1074
32-8,148434173,1037
32-9,148438079,579
32-10,148441985,-19
32-11,148445891,-346
32-12,148449797,-289
32-13,148453703,-11
32-14,148457609,200
32-15,148461515,129
32-16,148465421,-186
32-17,148469327,-608
32-18,148473233,-832
32-19,148477139,-603
32-20,148481045,-11
32-21,148484951,656
32-22,148488857,985
32-23,148492763,793
32-24,148496669,185
32-25,148500575,-522
32-26,148504481,-841
32-27,148508387,-601
32-28,148512293,28
32-29,148516199,671
32-30,148520105,881
32-31,148524011,526
32-32,148527917,-193
32-1,148531676,-857
32-2,148535582,-1011
32-3,148539488,-618
32-4,148543394,86
32-5,148547300,747
32-6,148551206,939
32-7,148555112,541
32-8,148559018,-233
32-9,148562924,-854
32-10,148566830,-887
32-11,148570736,-396
32-12,148574642,259
32-13,148578548,635
32-14,148582454,510
32-15,148586360,-25
32-16,148590266,-664
32-17,148594172,-936
32-18,148598078,-641
32-19,148601984,13
32-20,148605890,627
32-21,148609796,800
32-22,148613702,463
32-23,148617608,-175
32-24,148621514,-750
32-25,148625420,-859
32-26,148629326,-483
32-27,148633232,131
32-28,148637138,670
32-29,148641044,821
32-30,148644950,530
32-31,148648856,-62
32-32,148652762,-612
32-1,148656674,-752
32-2,148660580,-420
32-3,148664486,217
32-4,148668392,773
32-5,148672298,848
32-6,148676204,342
32-7,148680110,-431
32-8,148684016,-906
32-9,148687922,-788
32-10,148691828,-227
32-11,148695734,358
32-12,148699640,563
32-13,148703546,292
32-14,148707452,-284
32-15,148711358,-797
32-16,148715264,-837
32-17,148719170,-368
32-18,148723076,345
32-19,148726982,886
32-20,148730888,908
32-21,148734794,416
32-22,148738700,-350
32-23,148742606,-909
32-24,148746512,-890
32-25,148750418,-390
32-26,148754324,249
32-27,148758230,639
32-28,148762136,618
32-29,148766042,306
32-30,148769948,-114
32-31,148773854,-383
32-32,148777760,-353
32-1,148781666,-65
32-2,148785572,391
32-3,148789478,730
32-4,148793384,666
32-5,148797290,147
32-6,148801196,-524
32-7,148805102,-815
32-8,148809008,-565
32-9,148812914,-13
32-10,148816820,428
32-11,148820726,442
32-12,148824632,37
32-13,148828538,-562
32-14,148832444,-952
32-15,148836350,-826
32-16,148840256,-274
32-17,148844162,393
32-18,148848068,758
32-19,148851974,590
32-20,148855880,-4
32-21,148859786,-693
32-22,148863692,-1010
32-23,148867598,-723
32-24,148871504,-41
32-25,148875410,606
32-26,148879316,786
32-27,148883222,446
32-28,148887128,-77
32-29,148891034,-419
32-30,148894940,-355
32-31,148898846,-19
32-32,148902752,355
32-1,148906669,647
32-2,148910575,711
32-3,148914481,445
32-4,148918387,-170
32-5,148922293,-791
32-6,148926199,-957
32-7,148930105,-575
32-8,148934011,49
32-9,148937917,449
32-10,148941823,377
32-11,148945729,-90
32-12,148949635,-670
32-13,148953541,-951
32-14,148957447,-714
32-15,148961353,-119
32-16,148965259,489
32-17,148969165,709
32-18,148973071,414
32-19,148976977,-228
32-20,148980883,-869
32-21,148984789,-1064
32-22,148988695,-703
32-23,148992601,-12
32-24,148996507,605
32-25,149000413,688
32-26,149004319,235
32-27,149008225,-376
32-28,149012131,-702
32-29,149016037,-498
32-30,149019943,-7
32-31,149023849,445
32-32,149027755,672
32-1,149031667,563
32-2,149035573,136
32-3,149039479,-465
32-4,149043385,-906
32-5,149047291,-869
32-6,149051197,-374
32-7,149055103,250
32-8,149059009,602
32-9,149062915,494
32-10,149066821,-13
32-11,149070727,-623
32-12,149074633,-883
32-13,149078539,-617
32-14,149082445,-13
32-15,149086351,554
32-16,149090257,716
32-17,149094163,419
32-18,149098069,-181
32-19,149101975,-731
32-20,149105881,-832
32-21,149109787,-423
32-22,149113693,253
32-23,149117599,765
32-24,149121505,744
32-25,149125411,190
32-26,149129317,-532
32-27,149133223,-926
32-28,149137129,-719
32-29,149141035,-82
32-30,149144941,630
32-31,149148847,1021
32-32,149152753,881
32-1,149156664,284
32-2,149160570,-438
32-3,149164476,-800
32-4,149168382,-626
32-5,149172288,-55
32-6,149176194,517
32-7,149180100,668
32-8,149184006,294
32-9,149187912,-420
32-10,149191818,-980
32-11,149195724,-939
32-12,149199630,-346
32-13,149203536,396
32-14,149207442,820
32-15,149211348,687
32-16,149215254,119
32-17,149219160,-599
32-18,149223066,-1016
32-19,149226972,-830
32-20,149230878,-184
32-21,149234784,528
32-22,149238690,832
32-23,149242596,565
32-24,149246502,-61
32-25,149250408,-689
32-26,149254314,-882
32-27,149258220,-550
32-28,149262126,84
32-29,149266032,697
32-30,149269938,884
32-31,149273844,520
32-32,149277750,-200
32-1,149281662,-854
32-2,149285568,-980
32-3,149289474,-550
32-4,149293380,166
32-5,149297286,807
32-6,149301192,992
32-7,149305098,606
32-8,149309004,-167
32-9,149312910,-823
32-10,149316816,-905
32-11,149320722,-422
32-12,149324628,272
32-13,149328534,691
32-14,149332440,580
32-15,149336346,28
32-16,149340252,-638
32-17,149344158,-936
32-18,149348064,-651
32-19,149351970,28
32-20,149355876,690
32-21,149359782,884
32-22,149363688,505
32-23,149367594,-207
32-24,149371500,-811
32-25,149375406,-859
32-26,149379312,-379
32-27,149383218,298
32-28,149387124,811
32-29,149391030,868
32-30,149394936,467
32-31,149398842,-199
32-32,149402748,-746
32-1,149406659,-810
32-2,149410565,-382
32-3,149414471,300
32-4,149418377,820
32-5,149422283,819
32-6,149426189,261
32-7,149430095,-523
32-8,149434001,-970
32-9,149437907,-800
32-10,149441813,-180
32-11,149445719,464
32-12,149449625,704
32-13,149453531,420
32-14,149457437,-203
32-15,149461343,-774
32-16,149465249,-886
32-17,149469155,-494
32-18,149473061,140
32-19,149476967,629
32-20,149480873,661
32-21,149484779,240
32-22,149488685,-404
32-23,149492591,-808
32-24,149496497,-699
32-25,149500403,-306
32-26,149504309,47
32-27,149508215,152
32-28,149512121,90
32-29,149516027,15
32-30,149519933,-80
32-31,149523839,-151
32-32,149527745,-149
32-1,149531657,21
32-2,149535563,453
32-3,149539469,904
32-4,149543375,1015
32-5,149547281,633
32-6,149551187,-13
32-7,149555093,-436
32-8,149558999,-431
32-9,149562905,-121
32-10,149566811,202
32-11,149570717,231
32-12,149574623,-65
32-13,149578529,-541
32-14,149582435,-878
32-15,149586341,-775
32-16,149590247,-275
32-17,149594153,370
32-18,149598059,769
32-19,149601965,679
32-20,149605871,155
32-21,149609777,-521
32-22,149613683,-875
32-23,149617589,-671
32-24,149621495,-98
32-25,149625401,465
32-26,149629307,638
32-27,149633213,372
32-28,149637119,-77
32-29,149641025,-444
32-30,149644931,-482
32-31,149648837,-193
32-32,149652743,315
32-1,149656655,860
32-2,149660561,1084
32-3,149664467,729
32-4,149668373,-184
32-5,149672279,-1086
32-6,149676185,-1264
32-7,149680091,-616
32-8,149683997,307
32-9,149687903,790
32-10,149691809,529
32-11,149695715,-234
32-12,149699621,-1038
32-13,149703527,-1343
32-14,149707433,-910
32-15,149711339,-1
32-16,149715245,863
32-17,149719151,1150
32-18,149723057,683
32-19,149726963,-293
32-20,149730869,-1192
32-21,149734775,-1353
32-22,149738681,-763
32-23,149742587,82
32-24,149746493,600
32-25,149750399,388
32-26,149754305,-309
32-27,149758211,-951
32-28,149762117,-1087
32-29,149766023,-602
32-30,149769929,141
32-31,149773835,830
32-32,149777741,1317
32-1,149781652,1390
32-2,149785558,895
32-3,149789464,-62
32-4,149793370,-929
32-5,149797276,-1099
32-6,149801182,-545
32-7,149805088,211
32-8,149808994,528
32-9,149812900,191
32-10,149816806,-532
32-11,149820712,-1176
32-12,149824618,-1228
32-13,149828524,-610
32-14,149832430,314
32-15,149836336,1024
32-16,149840242,1086
32-17,149844148,468
32-18,149848054,-514
32-19,149851960,-1272
32-20,149855866,-1273
32-21,149859772,-533
32-22,149863678,453
32-23,149867584,1049
32-24,149871490,872
32-25,149875396,43
32-26,149879302,-918
32-27,149883208,-1355
32-28,149887114,-970
32-29,149891020,-27
32-30,149894926,927
32-31,149898832,1300
32-32,149902738,868
32-1,149906650,-146
32-2,149910556,-1157
32-3,149914462,-1473
32-4,149918368,-952
32-5,149922274,82
32-6,149926180,1051
32-7,149930086,1367
32-8,149933992,877
32-9,149937898,-174
32-10,149941804,-1138
32-11,149945710,-1323
32-12,149949616,-660
32-13,149953522,361
32-14,149957428,1068
32-15,149961334,1029
32-16,149965240,312
32-17,149969146,-686
32-18,149973052,-1309
32-19,149976958,-1085
32-20,149980864,-199
32-21,149984770,758
32-22,149988676,1138
32-23,149992582,741
32-24,149996488,-146
32-25,150000394,-1011
32-26,150004300,-1260
32-27,150008206,-761
32-28,150012112,172
32-29,150016018,1016
32-30,150019924,1237
32-31,150023830,703
32-32,150027736,-301
32-1,150031648,-1170
32-2,150035554,-1312
32-3,150039460,-682
32-4,150043366,363
32-5,150047272,1257
32-6,150051178,1428
32-7,150055084,754
32-8,150058990,-424
32-9,150062896,-1321
32-10,150066802,-1294
32-11,150070708,-486
32-12,150074614,463
32-13,150078520,870
32-14,150082426,524
32-15,150086332,-288
32-16,150090238,-1080
32-17,150094144,-1289
32-18,150098050,-732
32-19,150101956,234
32-20,150105862,1023
32-21,150109768,1142
32-22,150113674,556
32-23,150117580,-400
32-24,150121486,-1155
32-25,150125392,-1179
32-26,150129298,-546
32-27,150133204,340
32-28,150137110,1041
32-29,150141016,1180
32-30,150144922,709
32-31,150148828,-181
32-32,150152734,-979
32-1,150156645,-1136
32-2,150160551,-550
32-3,150164457,475
32-4,150168363,1294
32-5,150172269,1307
32-6,150176175,452
32-7,150180081,-729
32-8,150183987,-1380
32-9,150187893,-1066
32-10,150191799,-121
32-11,150195705,747
32-12,150199611,946
32-13,150203517,425
32-14,150207423,-466
32-15,150211329,-1194
32-16,150215235,-1235
32-17,150219141,-561
32-18,150223047,390
32-19,150226953,1036
32-20,150230859,968
32-21,150234765,226
32-22,150238671,-695
32-23,150242577,-1117
32-24,150246483,-860
32-25,150250389,-390
32-26,150254295,-150
32-27,150258201,-193
32-28,150262107,-261
32-29,150266013,-169
32-30,150269919,11
32-31,150273825,113
32-32,150277731,-33
32-1,150281643,-354
32-2,150285549,-571
32-3,150289455,-610
32-4,150293361,-556
32-5,150297267,-600
32-6,150301173,-775
32-7,150305079,-789
32-8,150308985,-460
32-9,150312891,254
32-10,150316797,1099
32-11,150320703,1654
32-12,150324609,1658
32-13,150328515,1002
32-14,150332421,69
32-15,150336327,-536
32-16,150340233,-586
32-17,150344139,-268
32-18,150348045,-26
32-19,150351951,-149
32-20,150355857,-553
32-21,150359763,-967
32-22,150363669,-1041
32-23,150367575,-593
32-24,150371481,240
32-25,150375387,1095
32-26,150379293,1461
32-27,150383199,1105
32-28,150387105,335
32-29,150391011,-299
32-30,150394917,-344
32-31,150398823,121
32-32,150402729,743
32-1,150406640,1185
32-2,150410546,1169
32-3,150414452,618
32-4,150418358,-354
32-5,150422264,-1175
32-6,150426170,-1201
32-7,150430076,-423
32-8,150433982,567
32-9,150437888,1070
32-10,150441794,822
32-11,150445700,59
32-12,150449606,-782
32-13,150453512,-1155
32-14,150457418,-794
32-15,150461324,52
32-16,150465230,869
32-17,150469136,1134
32-18,150473042,700
32-19,150476948,-182
32-20,150480854,-1006
32-21,150484760,-1190
32-22,150488666,-640
32-23,150492572,274
32-24,150496478,991
32-25,150500384,968
32-26,150504290,244
32-27,150508196,-647
32-28,150512102,-1077
32-29,150516008,-713
32-30,150519914,142
32-31,150523820,995
32-32,150527726,1447
32-1,150656636,-434
32-2,150660542,-1249
32-3,150664448,-1395
32-4,150668354,-864
32-5,150672260,97
32-6,150676166,1114
32-7,150680072,1675
32-8,150683978,1447
32-9,150687884,428
32-10,150691790,-767
32-11,150695696,-1259
32-12,150699602,-818
32-13,150703508,88
32-14,150707414,727
32-15,150711320,655
32-16,150715226,19
32-17,150719132,-761
32-18,150723038,-1161
32-19,150726944,-876
32-20,150730850,-84
32-21,150734756,784
32-22,150738662,1201
32-23,150742568,910
32-24,150746474,79
32-25,150750380,-802
32-26,150754286,-1103
32-27,150758192,-672
32-28,150762098,192
32-29,150766004,998
32-30,150769910,1231
32-31,150773816,772
32-32,150777722,-127
32-1,150781633,-942
32-2,150785539,-1131
32-3,150789445,-652
32-4,150793351,179
32-5,150797257,917
32-6,150801163,1114
32-7,150805069,683
32-8,150808975,-124
32-9,150812881,-764
32-10,150816787,-781
32-11,150820693,-267
32-12,150824599,381
32-13,150828505,713
32-14,150832411,545
32-15,150836317,32
32-16,150840223,-498
32-17,150844129,-662
32-18,150848035,-360
32-19,150851941,195
32-20,150855847,713
32-21,150859753,891
32-22,150863659,645
32-23,150867565,98
32-24,150871471,-443
32-25,150875377,-576
32-26,150879283,-267
32-27,150883189,281
32-28,150887095,777
32-29,150891001,896
32-30,150894907,537
32-31,150898813,-234
32-32,150902719,-1002
32-1,150906631,-1206
32-2,150910537,-629
32-3,150914443,451
32-4,150918349,1325
32-5,150922255,1381
32-6,150926161,562
32-7,150930067,-597
32-8,150933973,-1270
32-9,150937879,-1018
32-10,150941785,-135
32-11,150945691,715
32-12,150949597,935
32-13,150953503,441
32-14,150957409,-412
32-15,150961315,-1091
32-16,150965221,-1098
32-17,150969127,-455
32-18,150973033,408
32-19,150976939,976
32-20,150980845,900
32-21,150984751,261
32-22,150988657,-592
32-23,150992563,-1091
32-24,150996469,-884
32-25,151000375,-202
32-26,151004281,515
32-27,151008187,878
32-28,151012093,791
32-29,151015999,394
32-30,151019905,-129
32-31,151023811,-474
32-32,151027717,-449
32-1,151031629,-74
32-2,151035535,516
32-3,151039441,929
32-4,151043347,804
32-5,151047253,113
32-6,151051159,-713
32-7,151055065,-1027
32-8,151058971,-655
32-9,151062877,80
32-10,151066783,674
32-11,151070689,750
32-12,151074595,333
32-13,151078501,-298
32-14,151082407,-709
32-15,151086313,-598
32-16,151090219,-100
32-17,151094125,469
32-18,151098031,770
32-19,151101937,639
32-20,151105843,181
32-21,151109749,-373
32-22,151113655,-673
32-23,151117561,-519
32-24,151121467,-30
32-25,151125373,468
32-26,151129279,604
32-27,151133185,314
32-28,151137091,-132
32-29,151140997,-416
32-30,151144903,-329
32-31,151148809,7
32-32,151152715,381
32-1,151156626,662
32-2,151160532,680
32-3,151164438,360
32-4,151168344,-267
32-5,151172250,-861
32-6,151176156,-958
32-7,151180062,-487
32-8,151183968,269
32-9,151187874,869
32-10,151191780,975
32-11,151195686,539
32-12,151199592,-217
32-13,151203498,-785
32-14,151207404,-774
32-15,151211310,-256
32-16,151215216,370
32-17,151219122,645
32-18,151223028,400
32-19,151226934,-187
32-20,151230840,-732
32-21,151234746,-824
32-22,151238652,-438
32-23,151242558,113
32-24,151246464,458
32-25,151250370,303
32-26,151254276,-194
32-27,151258182,-623
32-28,151262088,-662
32-29,151265994,-268
32-30,151269900,262
32-31,151273806,699
32-32,151277712,947
32-1,151281618,933
32-2,151285524,616
32-3,151289430,64
32-4,151293336,-437
32-5,151297242,-583
32-6,151301148,-347
32-7,151305054,33
32-8,151308960,214
32-9,151312866,53
32-10,151316772,-383
32-11,151320678,-838
32-12,151324584,-898
32-13,151328490,-472
32-14,151332396,189
32-15,151336302,701
32-16,151340208,760
32-17,151344114,369
32-18,151348020,-252
32-19,151351926,-698
32-20,151355832,-672
32-21,151359738,-297
32-22,151363644,92
32-23,151367550,217
32-24,151371456,10
32-25,151375362,-356
32-26,151379268,-632
32-27,151383174,-607
32-28,151387080,-274
32-29,151390986,213
32-30,151394892,719
32-31,151398798,1000
32-32,151402704,924
32-1,151406622,515
32-2,151410528,-29
32-3,151414434,-372
32-4,151418340,-411
32-5,151422246,-198
32-6,151426152,81
32-7,151430058,153
32-8,151433964,-72
32-9,151437870,-517
32-10,151441776,-885
32-11,151445682,-808
32-12,151449588,-297
32-13,151453494,348
32-14,151457400,748
32-15,151461306,681
32-16,151465212,218
32-17,151469118,-422
32-18,151473024,-834
32-19,151476930,-717
32-20,151480836,-167
32-21,151484742,488
32-22,151488648,811
32-23,151492554,622
32-24,151496460,55
32-25,151500366,-572
32-26,151504272,-807
32-27,151508178,-527
32-28,151512084,83
32-29,151515990,690
32-30,151519896,877
32-31,151523802,509
32-32,151527708,-214
32-1,151531619,-865
32-2,151535525,-975
32-3,151539431,-519
32-4,151543337,213
32-5,151547243,856
32-6,151551149,1023
32-7,151555055,626
32-8,151558961,-126
32-9,151562867,-744
32-10,151566773,-804
32-11,151570679,-350
32-12,151574585,258
32-13,151578491,576
32-14,151582397,409
32-15,151586303,-120
32-16,151590209,-692
32-17,151594115,-881
32-18,151598021,-550
32-19,151601927,92
32-20,151605833,682
32-21,151609739,844
32-22,151613645,496
32-23,151617551,-170
32-24,151621457,-763
32-25,151625363,-862
32-26,151629269,-464
32-27,151633175,147
32-28,151637081,649
32-29,151640987,767
32-30,151644893,478
32-31,151648799,-81
32-32,151652705,-591
32-1,151656617,-702
32-2,151660523,-366
32-3,151664429,249
32-4,151668335,782
32-5,151672241,866
32-6,151676147,413
32-7,151680053,-298
32-8,151683959,-760
32-9,151687865,-684
32-10,151691771,-190
32-11,151695677,347
32-12,151699583,543
32-13,151703489,283
32-14,151707395,-288
32-15,151711301,-818
32-16,151715207,-907
32-17,151719113,-489
32-18,151723019,216
32-19,151726925,804
32-20,151730831,902
32-21,151734737,471
32-22,151738643,-276
32-23,151742549,-859
32-24,151746455,-880
32-25,151750361,-420
32-26,151754267,220
32-27,151758173,678
32-28,151762079,779
32-29,151765985,568
32-30,151769891,150
32-31,151773797,-222
32-32,151777703,-336
32-1,151781609,-154
32-2,151785515,267
32-3,151789421,624
32-4,151793327,584
32-5,151797233,67
32-6,151801139,-611
32-7,151805045,-885
32-8,151808951,-564
32-9,151812857,97
32-10,151816763,631
32-11,151820669,665
32-12,151824575,205
32-13,151828481,-483
32-14,151832387,-957
32-15,151836293,-878
32-16,151840199,-316
32-17,151844105,414
32-18,151848011,872
32-19,151851917,780
32-20,151855823,186
32-21,151859729,-605
32-22,151863635,-1079
32-23,151867541,-926
32-24,151871447,-289
32-25,151875353,403
32-26,151879259,685
32-27,151883165,472
32-28,151887071,67
32-29,151890977,-213
32-30,151894883,-161
32-31,151898789,94
32-32,151902695,356
32-1,151906612,565
32-2,151910518,613
32-3,151914424,407
32-4,151918330,-84
32-5,151922236,-583
32-6,151926142,-687
32-7,151930048,-323
32-8,151933954,235
32-9,151937860,578
32-10,151941766,475
32-11,151945672,-29
32-12,151949578,-660
32-13,151953484,-964
32-14,151957390,-687
32-15,151961296,-16
32-16,151965202,641
32-17,151969108,866
32-18,151973014,548
32-19,151976920,-118
32-20,151980826,-790
32-21,151984732,-1029
32-22,151988638,-702
32-23,151992544,-10
32-24,151996450,648
32-25,152000356,782
32-26,152004262,333
32-27,152008168,-333
32-28,152012074,-734
32-29,152015980,-579
32-30,152019886,-82
32-31,152023792,420
32-32,152027698,696
32-1,152031610,608
32-2,152035516,186
32-3,152039422,-411
32-4,152043328,-841
32-5,152047234,-803
32-6,152051140,-325
32-7,152055046,269
32-8,152058952,568
32-9,152062858,378
32-10,152066764,-212
32-11,152070670,-851
32-12,152074576,-1046
32-13,152078482,-640
32-14,152082388,94
32-15,152086294,705
32-16,152090200,813
32-17,152094106,405
32-18,152098012,-303
32-19,152101918,-902
32-20,152105824,-985
32-21,152109730,-527
32-22,152113636,179
32-23,152117542,684
32-24,152121448,638
32-25,152125354,71
32-26,152129260,-645
32-27,152133166,-1023
32-28,152137072,-809
32-29,152140978,-188
32-30,152144884,500
32-31,152148790,877
32-32,152152696,742
32-1,152156607,171
32-2,152160513,-520
32-3,152164419,-856
32-4,152168325,-672
32-5,152172231,-114
32-6,152176137,443
32-7,152180043,592
32-8,152183949,241
32-9,152187855,-431
32-10,152191761,-972
32-11,152195667,-963
32-12,152199573,-426
32-13,152203479,301
32-14,152207385,781
32-15,152211291,736
32-16,152215197,222
32-17,152219103,-506
32-18,152223009,-978
32-19,152226915,-853
32-20,152230821,-232
32-21,152234727,506
32-22,152238633,878
32-23,152242539,670
32-24,152246445,35
32-25,152250351,-678
32-26,152254257,-974
32-27,152258163,-689
32-28,152262069,-33
32-29,152265975,632
32-30,152269881,885
32-31,152273787,576
32-32,152277693,-78
32-1,152281605,-618
32-2,152285511,-709
32-3,152289417,-465
32-4,152293323,-195
32-5,152297229,-94
32-6,152301135,-204
32-7,152305041,-415
32-8,152308947,-626
32-9,152312853,-660
32-10,152316759,-400
32-11,152320665,79
32-12,152324571,677
32-13,152328477,1109
32-14,152332383,1150
32-15,152336289,784
32-16,152340195,166
32-17,152344101,-315
32-18,152348007,-418
32-19,152351913,-226
32-20,152355819,30
32-21,152359725,86
32-22,152363631,-128
32-23,152367537,-490
32-24,152371443,-789
32-25,152375349,-750
32-26,152379255,-335
32-27,152383161,267
32-28,152387067,782
32-29,152390973,927
32-30,152394879,633
32-31,152398785,18
32-32,152402691,-564
32-1,152406603,-738
32-2,152410509,-431
32-3,152414415,189
32-4,152418321,732
32-5,152422227,822
32-6,152426133,359
32-7,152430039,-368
32-8,152433945,-818
32-9,152437851,-697
32-10,152441757,-145
32-11,152445663,452
32-12,152449569,672
32-13,152453475,373
32-14,152457381,-276
32-15,152461287,-878
32-16,152465193,-992
32-17,152469099,-552
32-18,152473005,184
32-19,152476911,795
32-20,152480817,906
32-21,152484723,487
32-22,152488629,-242
32-23,152492535,-798
32-24,152496441,-791
32-25,152500347,-302
32-26,152504253,331
32-27,152508159,724
32-28,152512065,712
32-29,152515971,399
32-30,152519877,-49
32-31,152523783,-368
32-32,152527689,-389
32-1,152531600,-123
32-2,152535506,340
32-3,152539412,687
32-4,152543318,592
32-5,152547224,-10
32-6,152551130,-759
32-7,152555036,-1066
32-8,152558942,-740
32-9,152562848,-73
32-10,152566754,461
32-11,152570660,503
32-12,152574566,70
32-13,152578472,-480
32-14,152582378,-763
32-15,152586284,-662
32-16,152590190,-413
32-17,152594096,-260
32-18,152598002,-268
32-19,152601908,-337
32-20,152605814,-376
32-21,152609720,-419
32-22,152613626,-403
32-23,152617532,-240
32-24,152621438,154
32-25,152625344,702
32-26,152629250,1047
32-27,152633156,976
32-28,152637062,559
32-29,152640968,47
32-30,152644874,-213
32-31,152648780,-163
32-32,152652686,74
32-1,152656628,327
32-2,152660534,372
32-3,152664440,105
32-4,152668346,-435
32-5,152672252,-926
32-6,152676158,-961
32-7,152680064,-476
32-8,152683970,239
32-9,152687876,727
32-10,152691782,696
32-11,152695688,179
32-12,152699594,-527
32-13,152703500,-913
32-14,152707406,-679
32-15,152711312,-7
32-16,152715218,659
32-17,152719124,874
32-18,152723030,507
32-19,152726936,-195
32-20,152730842,-780
32-21,152734748,-867
32-22,152738654,-529
32-23,152742560,-100
32-24,152746466,120
32-25,152750372,-38
32-26,152754278,-359
32-27,152758184,-555
32-28,152762090,-449
32-29,152765996,-22
32-30,152769902,480
32-31,152773808,891
32-32,152777714,1054
32-1,152781595,838
32-2,152785501,296
32-3,152789407,-378
32-4,152793313,-833
32-5,152797219,-802
32-6,152801125,-321
32-7,152805031,333
32-8,152808937,824
32-9,152812843,910
32-10,152816749,515
32-11,152820655,-149
32-12,152824561,-598
32-13,152828467,-542
32-14,152832373,-110
32-15,152836279,312
32-16,152840185,353
32-17,152844091,0
32-18,152847997,-545
32-19,152851903,-936
32-20,152855809,-853
32-21,152859715,-321
32-22,152863621,405
32-23,152867527,916
32-24,152871433,891
32-25,152875339,345
32-26,152879245,-377
32-27,152883151,-789
32-28,152887057,-619
32-29,152890963,-33
32-30,152894869,626
32-31,152898775,982
32-32,152902681,834
32-1,152906593,279
32-2,152910499,-376
32-3,152914405,-684
32-4,152918311,-507
32-5,152922217,10
32-6,152926123,545
32-7,152930029,723
32-8,152933935,428
32-9,152937841,-214
32-10,152941747,-795
32-11,152945653,-880
32-12,152949559,-432
32-13,152953465,246
32-14,152957371,711
32-15,152961277,662
32-16,152965183,136
32-17,152969089,-560
32-18,152972995,-939
32-19,152976901,-745
32-20,152980807,-225
32-21,152984713,222
32-22,152988619,294
32-23,152992525,29
32-24,152996431,-334
32-25,153000337,-613
32-26,153004243,-593
32-27,153008149,-261
32-28,153012055,279
32-29,153015961,855
32-30,153019867,1141
32-31,153023773,981
32-32,153027679,456
32-1,153031591,-139
32-2,153035497,-441
32-3,153039403,-382
32-4,153043309,-111
32-5,153047215,131
32-6,153051121,102
32-7,153055027,-213
32-8,153058933,-665
32-9,153062839,-913
32-10,153066745,-701
32-11,153070651,-150
32-12,153074557,469
32-13,153078463,813
32-14,153082369,697
32-15,153086275,178
32-16,153090181,-487
32-17,153094087,-831
32-18,153097993,-630
32-19,153101899,-67
32-20,153105805,472
32-21,153109711,597
32-22,153113617,233
32-23,153117523,-406
32-24,153121429,-933
32-25,153125335,-946
32-26,153129241,-452
32-27,153133147,241
32-28,153137053,779
32-29,153140959,877
32-30,153144865,532
32-31,153148771,-83
32-32,153152677,-628
32-1,153156588,-755
32-2,153160494,-424
32-3,153164400,196
32-4,153168306,723
32-5,153172212,779
32-6,153176118,282
32-7,153180024,-469
32-8,153183930,-922
32-9,153187836,-789
32-10,153191742,-224
32-11,153195648,381
32-12,153199554,623
32-13,153203460,380
32-14,153207366,-182
32-15,153211272,-704
32-16,153215178,-786
32-17,153219084,-384
32-18,153222990,243
32-19,153226896,716
32-20,153230802,714
32-21,153234708,260
32-22,153238614,-409
32-23,153242520,-868
32-24,153246426,-786
32-25,153250332,-287
32-26,153254238,316
32-27,153258144,687
32-28,153262050,688
32-29,153265956,410
32-30,153269862,-14
32-31,153273768,-334
32-32,153277674,-362
32-1,153281678,-101
32-2,153285584,357
32-3,153289490,701
32-4,153293396,629
32-5,153297302,81
32-6,153301208,-632
32-7,153305114,-945
32-8,153309020,-655
32-9,153312926,-10
32-10,153316832,543
32-11,153320738,632
32-12,153324644,240
32-13,153328550,-393
32-14,153332456,-837
32-15,153336362,-760
32-16,153340268,-236
32-17,153344174,417
32-18,153348080,777
32-19,153351986,605
32-20,153355892,1
32-21,153359798,-701
32-22,153363704,-1023
32-23,153367610,-732
32-24,153371516,-37
32-25,153375422,620
32-26,153379328,814
32-27,153383234,480
32-28,153387140,-57
32-29,153391046,-437
32-30,153394952,-414
32-31,153398858,-101
32-32,153402764,281
32-1,153406584,613
32-2,153410490,736
32-3,153414396,530
32-4,153418302,-48
32-5,153422208,-678
32-6,153426114,-902
32-7,153430020,-574
32-8,153433926,63
32-9,153437832,549
32-10,153441738,572
32-11,153445644,130
32-12,153449550,-502
32-13,153453456,-846
32-14,153457362,-632
32-15,153461268,-31
32-16,153465174,587
32-17,153469080,815
32-18,153472986,529
32-19,153476892,-111
32-20,153480798,-768
32-21,153484704,-986
32-22,153488610,-634
32-23,153492516,58
32-24,153496422,661
32-25,153500328,701
32-26,153504234,188
32-27,153508140,-446
32-28,153512046,-727
32-29,153515952,-430
32-30,153519858,178
32-31,153523764,725
32-32,153527670,991
32-1,153531581,871
32-2,153535487,412
32-3,153539393,-224
32-4,153543299,-699
32-5,153547205,-721
32-6,153551111,-305
32-7,153555017,238
32-8,153558923,520
32-9,153562829,376
32-10,153566735,-114
32-11,153570641,-657
32-12,153574547,-828
32-13,153578453,-515
32-14,153582359,69
32-15,153586265,567
32-16,153590171,662
32-17,153594077,309
32-18,153597983,-342
32-19,153601889,-910
32-20,153605795,-973
32-21,153609701,-498
32-22,153613607,179
32-23,153617513,595
32-24,153621419,458
32-25,153625325,-127
32-26,153629231,-763
32-27,153633137,-1015
32-28,153637043,-709
32-29,153640949,-33
32-30,153644855,690
32-31,153648761,1100
32-32,153652667,990
32-1,153656579,391
32-2,153660485,-380
32-3,153664391,-846
32-4,153668297,-818
32-5,153672203,-378
32-6,153676109,150
32-7,153680015,366
32-8,153683921,141
32-9,153687827,-421
32-10,153691733,-918
32-11,153695639,-929
32-12,153699545,-444
32-13,153703451,252
32-14,153707357,736
32-15,153711263,721
32-16,153715169,244
32-17,153719075,-458
32-18,153722981,-922
32-19,153726887,-810
32-20,153730793,-224
32-21,153734699,472
32-22,153738605,818
32-23,153742511,618
32-24,153746417,23
32-25,153750323,-649
32-26,153754229,-927
32-27,153758135,-655
32-28,153762041,-30
32-29,153765947,626
32-30,153769853,900
32-31,153773759,654
32-32,153777665,27
32-1,153781577,-624
32-2,153785483,-846
32-3,153789389,-549
32-4,153793295,70
32-5,153797201,680
32-6,153801107,876
32-7,153805013,530
32-8,153808919,-170
32-9,153812825,-745
32-10,153816731,-782
32-11,153820637,-318
32-12,153824543,309
32-13,153828449,662
32-14,153832355,518
32-15,153836261,-21
32-16,153840167,-633
32-17,153844073,-870
32-18,153847979,-559
32-19,153851885,88
32-20,153855791,698
32-21,153859697,884
32-22,153863603,559
32-23,153867509,-95
32-24,153871415,-710
32-25,153875321,-843
32-26,153879227,-454
32-27,153883133,191
32-28,153887039,757
32-29,153890945,925
32-30,153894851,642
32-31,153898757,36
32-32,153902663,-559
32-1,153906727,-762
32-2,153910633,-483
32-3,153914539,132
32-4,153918445,704
32-5,153922351,832
32-6,153926257,402
32-7,153930163,-312
32-8,153934069,-774
32-9,153937975,-683
32-10,153941881,-162
32-11,153945787,423
32-12,153949693,672
32-13,153953599,445
32-14,153957505,-113
32-15,153961411,-653
32-16,153965317,-766
32-17,153969223,-386
32-18,153973129,238
32-19,153977035,722
32-20,153980941,736
32-21,153984847,286
32-22,153988753,-407
32-23,153992659,-903
32-24,153996565,-834
32-25,154000471,-300
32-26,154004377,361
32-27,154008283,758
32-28,154012189,739
32-29,154016095,426
32-30,154020001,-14
32-31,154023907,-335
32-32,154027813,-380
32-1,154031572,-159
32-2,154035478,276
32-3,154039384,643
32-4,154043290,609
32-5,154047196,89
32-6,154051102,-610
32-7,154055008,-921
32-8,154058914,-647
32-9,154062820,-34
32-10,154066726,490
32-11,154070632,581
32-12,154074538,223
32-13,154078444,-359
32-14,154082350,-774
32-15,154086256,-695
32-16,154090162,-190
32-17,154094068,437
32-18,154097974,778
32-19,154101880,616
32-20,154105786,63
32-21,154109692,-596
32-22,154113598,-945
32-23,154117504,-749
32-24,154121410,-159
32-25,154125316,453
32-26,154129222,670
32-27,154133128,404
32-28,154137034,-50
32-29,154140940,-362
32-30,154144846,-315
32-31,154148752,-28
32-32,154152658,292
32-1,154156569,562
32-2,154160475,638
32-3,154164381,402
32-4,154168287,-183
32-5,154172193,-779
32-6,154176099,-906
32-7,154180005,-466
32-8,154183911,224
32-9,154187817,682
32-10,154191723,632
32-11,154195629,123
32-12,154199535,-559
32-13,154203441,-940
32-14,154207347,-743
32-15,154211253,-118
32-16,154215159,543
32-17,154219065,805
32-18,154222971,526
32-19,154226877,-105
32-20,154230783,-732
32-21,154234689,-921
32-22,154238595,-563
32-23,154242501,113
32-24,154246407,693
32-25,154250313,711
32-26,154254219,168
32-27,154258125,-530
32-28,154262031,-890
32-29,154265937,-642
32-30,154269843,-37
32-31,154273749,557
32-32,154277655,882
32-1,154281598,792
32-2,154285504,329
32-3,154289410,-336
32-4,154293316,-831
32-5,154297222,-833
32-6,154301128,-364
32-7,154305034,247
32-8,154308940,588
32-9,154312846,450
32-10,154316752,-87
32-11,154320658,-691
32-12,154324564,-899
32-13,154328470,-566
32-14,154332376,64
32-15,154336282,587
32-16,154340188,657
32-17,154344094,262
32-18,154348000,-398
32-19,154351906,-929
32-20,154355812,-929
32-21,154359718,-389
32-22,154363624,364
32-23,154367530,864
32-24,154371436,784
32-25,154375342,183
32-26,154379248,-565
32-27,154383154,-965
32-28,154387060,-747
32-29,154390966,-93
32-30,154394872,632
32-31,154398778,1029
32-32,154402684,901
32-1,154406565,339
32-2,154410471,-338
32-3,154414377,-686
32-4,154418283,-568
32-5,154422189,-98
32-6,154426095,414
32-7,154430001,600
32-8,154433907,337
32-9,154437813,-252
32-10,154441719,-767
32-11,154445625,-802
32-12,154449531,-361
32-13,154453437,279
32-14,154457343,743
32-15,154461249,760
32-16,154465155,342
32-17,154469061,-314
32-18,154472967,-773
32-19,154476873,-681
32-20,154480779,-125
32-21,154484685,519
32-22,154488591,779
32-23,154492497,494
32-24,154496403,-142
32-25,154500309,-778
32-26,154504215,-975
32-27,154508121,-626
32-28,154512027,56
32-29,154515933,729
32-30,154519839,976
32-31,154523745,665
32-32,154527651,-36
32-1,154531715,-716
32-2,154535621,-906
32-3,154539527,-537
32-4,154543433,139
32-5,154547339,762
32-6,154551245,935
32-7,154555151,561
32-8,154559057,-135
32-9,154562963,-665
32-10,154566869,-660
32-11,154570775,-243
32-12,154574681,224
32-13,154578587,395
32-14,154582493,169
32-15,154586399,-285
32-16,154590305,-715
32-17,154594211,-813
32-18,154598117,-471
32-19,154602023,147
32-20,154605929,780
32-21,154609835,1087
32-22,154613741,891
32-23,154617647,246
32-24,154621553,-503
32-25,154625459,-860
32-26,154629365,-673
32-27,154633271,-125
32-28,154637177,437
32-29,154641083,676
32-30,154644989,495
32-31,154648895,13
32-32,154652801,-455
32-1,154656560,-563
32-2,154660466,-243
32-3,154664372,356
32-4,154668278,884
32-5,154672184,952
32-6,154676090,465
32-7,154679996,-304
32-8,154683902,-826
32-9,154687808,-775
32-10,154691714,-250
32-11,154695620,358
32-12,154699526,616
32-13,154703432,375
32-14,154707338,-203
32-15,154711244,-740
32-16,154715150,-819
32-17,154719056,-398
32-18,154722962,267
32-19,154726868,780
32-20,154730774,806
32-21,154734680,344
32-22,154738586,-378
32-23,154742492,-909
32-24,154746398,-881
32-25,154750304,-385
32-26,154754210,256
32-27,154758116,677
32-28,154762022,721
32-29,154765928,470
32-30,154769834,62
32-31,154773740,-255
32-32,154777646,-303
32-1,154781558,-80
32-2,154785464,349
32-3,154789370,696
32-4,154793276,650
32-5,154797182,135
32-6,154801088,-551
32-7,154804994,-860
32-8,154808900,-607
32-9,154812806,-24
32-10,154816712,471
32-11,154820618,538
32-12,154824524,149
32-13,154828430,-483
32-14,154832336,-924
32-15,154836242,-838
32-16,154840148,-324
32-17,154844054,259
32-18,154847960,525
32-19,154851866,335
32-20,154855772,-122
32-21,154859678,-590
32-22,154863584,-778
32-23,154867490,-538
32-24,154871396,22
32-25,154875302,667
32-26,154879208,1032
32-27,154883114,916
32-28,154887020,465
32-29,154890926,-18
32-30,154894832,-218
32-31,154898738,-110
32-32,154902644,156
32-1,154906555,444
32-2,154910461,562
32-3,154914367,362
32-4,154918273,-160
32-5,154922179,-674
32-6,154926085,-766
32-7,154929991,-373
32-8,154933897,211
32-9,154937803,590
32-10,154941709,544
32-11,154945615,104
32-12,154949521,-510
32-13,154953427,-882
32-14,154957333,-727
32-15,154961239,-154
32-16,154965145,474
32-17,154969051,731
32-18,154972957,474
32-19,154976863,-124
32-20,154980769,-738
32-21,154984675,-951
32-22,154988581,-641
32-23,154992487,2
32-24,154996393,611
32-25,155000299,727
32-26,155004205,301
32-27,155008111,-332
32-28,155012017,-730
32-29,155015923,-601
32-30,155019829,-121
32-31,155023735,408
32-32,155027641,758
32-1,155031583,736
32-2,155035489,316
32-3,155039395,-351
32-4,155043301,-871
32-5,155047207,-874
32-6,155051113,-371
32-7,155055019,279
32-8,155058925,614
32-9,155062831,416
32-10,155066737,-198
32-11,155070643,-841
32-12,155074549,-1017
32-13,155078455,-602
32-14,155082361,115
32-15,155086267,698
32-16,155090173,794
32-17,155094079,382
32-18,155097985,-332
32-19,155101891,-939
32-20,155105797,-1015
32-21,155109703,-532
32-22,155113609,191
32-23,155117515,694
32-24,155121421,639
32-25,155125327,81
32-26,155129233,-605
32-27,155133139,-953
32-28,155137045,-726
32-29,155140951,-112
32-30,155144857,543
32-31,155148763,878
32-32,155152669,725
32-1,155156550,179
32-2,155160456,-470
32-3,155164362,-806
32-4,155168268,-684
32-5,155172174,-204
32-6,155176080,323
32-7,155179986,509
32-8,155183892,219
32-9,155187798,-408
32-10,155191704,-937
32-11,155195610,-947
32-12,155199516,-449
32-13,155203422,228
32-14,155207328,668
32-15,155211234,617
32-16,155215140,126
32-17,155219046,-579
32-18,155222952,-1043
32-19,155226858,-915
32-20,155230764,-277
32-21,155234670,486
32-22,155238576,855
32-23,155242482,613
32-24,155246388,-65
32-25,155250294,-796
32-26,155254200,-1068
32-27,155258106,-741
32-28,155262012,-52
32-29,155265918,641
32-30,155269824,914
32-31,155273730,645
32-32,155277636,11
32-1,155281548,-613
32-2,155285454,-796
32-3,155289360,-487
32-4,155293266,105
32-5,155297172,676
32-6,155301078,865
32-7,155304984,543
32-8,155308890,-129
32-9,155312796,-700
32-10,155316702,-759
32-11,155320608,-324
32-12,155324514,286
32-13,155328420,637
32-14,155332326,502
32-15,155336232,-39
32-16,155340138,-688
32-17,155344044,-990
32-18,155347950,-734
32-19,155351856,-72
32-20,155355762,614
32-21,155359668,887
32-22,155363574,561
32-23,155367480,-144
32-24,155371386,-742
32-25,155375292,-884
32-26,155379198,-634
32-27,155383104,-246
32-28,155387010,109
32-29,155390916,320
32-30,155394822,332
32-31,155398728,66
32-32,155402634,-310
32-1,155406546,-474
32-2,155410452,-252
32-3,155414358,347
32-4,155418264,916
32-5,155422170,1093
32-6,155426076,802
32-7,155429982,218
32-8,155433888,-260
32-9,155437794,-377
32-10,155441700,-189
32-11,155445606,71
32-12,155449512,123
32-13,155453418,-125
32-14,155457324,-551
32-15,155461230,-899
32-16,155465136,-843
32-17,155469042,-366
32-18,155472948,302
32-19,155476854,812
32-20,155480760,851
32-21,155484666,407
32-22,155488572,-309
32-23,155492478,-840
32-24,155496384,-815
32-25,155500290,-321
32-26,155504196,301
32-27,155508102,672
32-28,155512008,646
32-29,155515914,351
32-30,155519820,-35
32-31,155523726,-297
32-32,155527632,-324
32-1,155531543,-135
32-2,155535449,245
32-3,155539355,608
32-4,155543261,650
32-5,155547167,227
32-6,155551073,-432
32-7,155554979,-769
32-8,155558885,-538
32-9,155562791,41
32-10,155566697,512
32-11,155570603,506
32-12,155574509,68
32-13,155578415,-535
32-14,155582321,-898
32-15,155586227,-756
32-16,155590133,-207
32-17,155594039,460
32-18,155597945,860
32-19,155601851,755
32-20,155605757,201
32-21,155609663,-524
32-22,155613569,-953
32-23,155617475,-797
32-24,155621381,-177
32-25,155625287,512
32-26,155629193,805
32-27,155633099,561
32-28,155637005,62
32-29,155640911,-322
32-30,155644817,-298
32-31,155648723,32
32-32,155652629,407
32-1,155656541,670
32-2,155660447,668
32-3,155664353,352
32-4,155668259,-246
32-5,155672165,-798
32-6,155676071,-897
32-7,155679977,-478
32-8,155683883,167
32-9,155687789,587
32-10,155691695,515
32-11,155695601,5
32-12,155699507,-630
32-13,155703413,-918
32-14,155707319,-623
32-15,155711225,48
32-16,155715131,691
32-17,155719037,898
32-18,155722943,564
32-19,155726849,-124
32-20,155730755,-816
32-21,155734661,-1040
32-22,155738567,-662
32-23,155742473,74
32-24,155746379,708
32-25,155750285,761
32-26,155754191,264
32-27,155758097,-376
32-28,155762003,-720
32-29,155765909,-532
32-30,155769815,-41
32-31,155773721,447
32-32,155777627,728
32-1,155781569,653
32-2,155785475,236
32-3,155789381,-371
32-4,155793287,-813
32-5,155797193,-785
32-6,155801099,-314
32-7,155805005,288
32-8,155808911,615
32-9,155812817,461
32-10,155816723,-99
32-11,155820629,-723
32-12,155824535,-923
32-13,155828441,-554
32-14,155832347,120
32-15,155836253,691
32-16,155840159,808
32-17,155844065,453
32-18,155847971,-203
32-19,155851877,-804
32-20,155855783,-939
32-21,155859689,-521
32-22,155863595,201
32-23,155867501,766
32-24,155871407,757
32-25,155875313,159
32-26,155879219,-615
32-27,155883125,-992
32-28,155887031,-689
32-29,155890937,30
32-30,155894843,717
32-31,155898749,1002
32-32,155902655,795
32-1,155906536,230
32-2,155910442,-434
32-3,155914348,-811
32-4,155918254,-712
32-5,155922160,-185
32-6,155926066,431
32-7,155929972,656
32-8,155933878,323
32-9,155937784,-371
32-10,155941690,-917
32-11,155945596,-884
32-12,155949502,-339
32-13,155953408,356
32-14,155957314,771
32-15,155961220,699
32-16,155965126,242
32-17,155969032,-408
32-18,155972938,-856
32-19,155976844,-767
32-20,155980750,-222
32-21,155984656,427
32-22,155988562,709
32-23,155992468,412
32-24,155996374,-324
32-25,156000280,-1145
32-26,156004186,-1457
32-27,156008092,-1015
32-28,156011998,-67
32-29,156015904,841
32-30,156019810,1118
32-31,156023716,584
32-32,156027622,-449
32-1,156031534,-1246
32-2,156035440,-1281
32-3,156039346,-778
32-4,156043252,-257
32-5,156047158,-71
32-6,156051064,-271
32-7,156054970,-621
32-8,156058876,-958
32-9,156062782,-1068
32-10,156066688,-798
32-11,156070594,-224
32-12,156074500,579
32-13,156078406,1290
32-14,156082312,1524
32-15,156086218,1079
32-16,156090124,78
32-17,156094030,-816
32-18,156097936,-1048
32-19,156101842,-634
32-20,156105748,-46
32-21,156109654,120
32-22,156113560,-267
32-23,156117466,-912
32-24,156121372,-1350
32-25,156125278,-1174
32-26,156129184,-500
32-27,156133090,328
32-28,156136996,982
32-29,156140902,1122
32-30,156144808,680
32-31,156148714,-157
32-32,156152620,-895
32-1,156156532,-1016
32-2,156160438,-442
32-3,156164344,524
32-4,156168250,1263
32-5,156172156,1231
32-6,156176062,391
32-7,156179968,-733
32-8,156183874,-1335
32-9,156187780,-1025
32-10,156191686,-118
32-11,156195592,713
32-12,156199498,894
32-13,156203404,346
32-14,156207310,-584
32-15,156211216,-1345
32-16,156215122,-1372
32-17,156219028,-624
32-18,156222934,411
32-19,156226840,1075
32-20,156230746,953
32-21,156234652,191
32-22,156238558,-774
32-23,156242464,-1341
32-24,156246370,-1145
32-25,156250276,-393
32-26,156254182,474
32-27,156258088,983
32-28,156261994,921
32-29,156265900,382
32-30,156269806,-329
32-31,156273712,-734
32-32,156277618,-602
32-1,156281529,-40
32-2,156285435,700
32-3,156289341,1181
32-4,156293247,1009
32-5,156297153,132
32-6,156301059,-954
32-7,156304965,-1397
32-8,156308871,-920
32-9,156312777,18
32-10,156316683,691
32-11,156320589,631
32-12,156324495,-6
32-13,156328401,-793
32-14,156332307,-1248
32-15,156336213,-1049
32-16,156340119,-296
32-17,156344025,614
32-18,156347931,1138
32-19,156351837,928
32-20,156355743,83
32-21,156359649,-910
32-22,156363555,-1355
32-23,156367461,-935
32-24,156371367,6
32-25,156375273,811
32-26,156379179,948
32-27,156383085,427
32-28,156386991,-280
32-29,156390897,-699
32-30,156394803,-553
32-31,156398709,-22
32-32,156402615,602
32-1,156406527,1122
32-2,156410433,1279
32-3,156414339,862
32-4,156418245,-134
32-5,156422151,-1125
32-6,156426057,-1351
32-7,156429963,-704
32-8,156433869,250
32-9,156437775,768
32-10,156441681,524
32-11,156445587,-238
32-12,156449493,-1020
32-13,156453399,-1275
32-14,156457305,-775
32-15,156461211,170
32-16,156465117,1014
32-17,156469023,1249
32-18,156472929,754
32-19,156476835,-192
32-20,156480741,-1058
32-21,156484647,-1241
32-22,156488553,-642
32-23,156492459,343
32-24,156496365,1104
32-25,156500271,1079
32-26,156504177,337
32-27,156508083,-582
32-28,156511989,-1047
32-29,156515895,-722
32-30,156519801,83
32-31,156523707,893
32-32,156527613,1326
32-1,156531555,1154
32-2,156535461,412
32-3,156539367,-606
32-4,156543273,-1291
32-5,156547179,-1157
32-6,156551085,-358
32-7,156554991,496
32-8,156558897,799
32-9,156562803,414
32-10,156566709,-365
32-11,156570615,-1070
32-12,156574521,-1183
32-13,156578427,-591
32-14,156582333,336
32-15,156586239,1059
32-16,156590145,1131
32-17,156594051,509
32-18,156597957,-493
32-19,156601863,-1269
32-20,156605769,-1255
32-21,156609675,-476
32-22,156613581,538
32-23,156617487,1140
32-24,156621393,948
32-25,156625299,96
32-26,156629205,-878
32-27,156633111,-1306
32-28,156637017,-891
32-29,156640923,92
32-30,156644829,1093
32-31,156648735,1538
32-32,156652641,1175
32-1,156656522,160
32-2,156660428,-859
32-3,156664334,-1186
32-4,156668240,-825
32-5,156672146,-233
32-6,156676052,99
32-7,156679958,-14
32-8,156683864,-336
32-9,156687770,-649
32-10,156691676,-788
32-11,156695582,-589
32-12,156699488,-85
32-13,156703394,680
32-14,156707300,1446
32-15,156711206,1727
32-16,156715112,1258
32-17,156719018,146
32-18,156722924,-900
32-19,156726830,-1151
32-20,156730736,-598
32-21,156734642,202
32-22,156738548,541
32-23,156742454,211
32-24,156746360,-472
32-25,156750266,-1068
32-26,156754172,-1143
32-27,156758078,-632
32-28,156761984,230
32-29,156765890,1065
32-30,156769796,1365
32-31,156773702,911
32-32,156777608,-83
32-1,156781514,-1030
32-2,156785420,-1285
32-3,156789326,-725
32-4,156793232,314
32-5,156797138,1242
32-6,156801044,1454
32-7,156804950,807
32-8,156808856,-351
32-9,156812762,-1244
32-10,156816668,-1224
32-11,156820574,-422
32-12,156824480,534
32-13,156828386,971
32-14,156832292,659
32-15,156836198,-141
32-16,156840104,-960
32-17,156844010,-1216
32-18,156847916,-692
32-19,156851822,257
32-20,156855728,1052
32-21,156859634,1194
32-22,156863540,627
32-23,156867446,-320
32-24,156871352,-1077
32-25,156875258,-1104
32-26,156879164,-459
32-27,156883070,444
32-28,156886976,1154
32-29,156890882,1298
32-30,156894788,837
32-31,156898694,-27
32-32,156902600,-794
32-1,156906517,-941
32-2,156910423,-383
32-3,156914329,586
32-4,156918235,1349
32-5,156922141,1336
32-6,156926047,494
32-7,156929953,-662
32-8,156933859,-1310
32-9,156937765,-1021
32-10,156941671,-109
32-11,156945577,747
32-12,156949483,960
32-13,156953389,462
32-14,156957295,-402
32-15,156961201,-1116
32-16,156965107,-1155
32-17,156969013,-475
32-18,156972919,486
32-19,156976825,1139
32-20,156980731,1071
32-21,156984637,345
32-22,156988543,-650
32-23,156992449,-1273
32-24,156996355,-1070
32-25,157000261,-256
32-26,157004167,632
32-27,157008073,1080
32-28,157011979,946
32-29,157015885,417
32-30,157019791,-224
32-31,157023697,-592
32-32,157027603,-488
32-1,157031515,40
32-2,157035421,790
32-3,157039327,1277
32-4,157043233,1050
32-5,157047139,96
32-6,157051045,-991
32-7,157054951,-1341
32-8,157058857,-791
32-9,157062763,119
32-10,157066669,715
32-11,157070575,623
32-12,157074481,26
32-13,157078387,-687
32-14,157082293,-1080
32-15,157086199,-840
32-16,157090105,-109
32-17,157094011,704
32-18,157097917,1120
32-19,157101823,879
32-20,157105729,145
32-21,157109635,-663
32-22,157113541,-1049
32-23,157117447,-782
32-24,157121353,-53
32-25,157125259,755
32-26,157129165,1189
32-27,157133071,1032
32-28,157136977,461
32-29,157140883,-137
32-30,157144789,-349
32-31,157148695,-146
32-32,157152601,251
32-1,157156513,629
32-2,157160419,751
32-3,157164325,509
32-4,157168231,-47
32-5,157172137,-561
32-6,157176043,-624
32-7,157179949,-203
32-8,157183855,400
32-9,157187761,791
32-10,157191667,735
32-11,157195573,269
32-12,157199479,-347
32-13,157203385,-672
32-14,157207291,-456
32-15,157211197,124
32-16,157215103,737
32-17,157219009,1002
32-18,157222915,768
32-19,157226821,97
32-20,157230727,-745
32-21,157234633,-1175
32-22,157238539,-841
32-23,157242445,74
32-24,157246351,939
32-25,157250257,1018
32-26,157254163,290
32-27,157258069,-623
32-28,157261975,-1044
32-29,157265881,-676
32-30,157269787,167
32-31,157273693,995
32-32,157277599,1408
32-1,157281541,1162
32-2,157285447,323
32-3,157289353,-750
32-4,157293259,-1421
32-5,157297165,-1235
32-6,157301071,-375
32-7,157304977,526
32-8,157308883,862
32-9,157312789,470
32-10,157316695,-348
32-11,157320601,-1098
32-12,157324507,-1237
32-13,157328413,-679
32-14,157332319,189
32-15,157336225,876
32-16,157340131,1014
32-17,157344037,570
32-18,157347943,-226
32-19,157351849,-892
32-20,157355755,-942
32-21,157359661,-366
32-22,157363567,426
32-23,157367473,910
32-24,157371379,769
32-25,157375285,116
32-26,157379191,-622
32-27,157383097,-956
32-28,157387003,-676
32-29,157390909,9
32-30,157394815,745
32-31,157398721,1126
32-32,157402627,943
32-1,157406508,281
32-2,157410414,-491
32-3,157414320,-863
32-4,157418226,-680
32-5,157422132,-115
32-6,157426038,471
32-7,157429944,670
32-8,157433850,378
32-9,157437756,-226
32-10,157441662,-733
32-11,157445568,-739
32-12,157449474,-294
32-13,157453380,307
32-14,157457286,742
32-15,157461192,774
32-16,157465098,408
32-17,157469004,-212
32-18,157472910,-700
32-19,157476816,-681
32-20,157480722,-171
32-21,157484628,486
32-22,157488534,819
32-23,157492440,607
32-24,157496346,-2
32-25,157500252,-650
32-26,157504158,-883
32-27,157508064,-567
32-28,157511970,93
32-29,157515876,740
32-30,157519782,955
32-31,157523688,633
32-32,157527594,-31
32-1,157531505,-655
32-2,157535411,-808
32-3,157539317,-452
32-4,157543223,189
32-5,157547129,792
32-6,157551035,978
32-7,157554941,636
32-8,157558847,-43
32-9,157562753,-608
32-10,157566659,-678
32-11,157570565,-292
32-12,157574471,237
32-13,157578377,521
32-14,157582283,366
32-15,157586189,-136
32-16,157590095,-703
32-17,157594001,-921
32-18,157597907,-625
32-19,157601813,-2
32-20,157605719,592
32-21,157609625,767
32-22,157613531,430
32-23,157617437,-243
32-24,157621343,-874
32-25,157625249,-1005
32-26,157629155,-588
32-27,157633061,102
32-28,157636967,709
32-29,157640873,909
32-30,157644779,646
32-31,157648685,40
32-32,157652591,-577
32-1,157656503,-790
32-2,157660409,-487
32-3,157664315,172
32-4,157668221,784
32-5,157672127,905
32-6,157676033,414
32-7,157679939,-375
32-8,157683845,-878
32-9,157687751,-764
32-10,157691657,-172
32-11,157695563,470
32-12,157699469,725
32-13,157703375,455
32-14,157707281,-175
32-15,157711187,-775
32-16,157715093,-922
32-17,157718999,-535
32-18,157722905,137
32-19,157726811,664
32-20,157730717,685
32-21,157734623,223
32-22,157738529,-450
32-23,157742435,-864
32-24,157746341,-710
32-25,157750247,-164
32-26,157754153,431
32-27,157758059,749
32-28,157761965,699
32-29,157765871,394
32-30,157769777,-56
32-31,157773683,-383
32-32,157777589,-385
32-1,157781495,-73
32-2,157785401,436
32-3,157789307,792
32-4,157793213,679
32-5,157797119,81
32-6,157801025,-654
32-7,157804931,-965
32-8,157808837,-683
32-9,157812743,-52
32-10,157816649,515
32-11,157820555,652
32-12,157824461,318
32-13,157828367,-273
32-14,157832273,-720
32-15,157836179,-680
32-16,157840085,-216
32-17,157843991,397
32-18,157847897,785
32-19,157851803,711
32-20,157855709,212
32-21,157859615,-483
32-22,157863521,-917
32-23,157867427,-759
32-24,157871333,-123
32-25,157875239,538
32-26,157879145,724
32-27,157883051,372
32-28,157886957,-131
32-29,157890863,-422
32-30,157894769,-330
32-31,157898675,-22
32-32,157902581,320
32-1,157906498,645
32-2,157910404,766
32-3,157914310,499
32-4,157918216,-194
32-5,157922122,-905
32-6,157926028,-1075
32-7,157929934,-614
32-8,157933840,111
32-9,157937746,600
32-10,157941652,578
32-11,157945558,109
32-12,157949464,-531
32-13,157953370,-902
32-14,157957276,-735
32-15,157961182,-178
32-16,157965088,422
32-17,157968994,687
32-18,157972900,481
32-19,157976806,-77
32-20,157980712,-698
32-21,157984618,-946
32-22,157988524,-644
32-23,157992430,39
32-24,157996336,687
32-25,158000242,788
32-26,158004148,294
32-27,158008054,-395
32-28,158011960,-787
32-29,158015866,-595
32-30,158019772,-35
32-31,158023678,535
32-32,158027584,862
32-1,158031527,776
32-2,158035433,311
32-3,158039339,-352
32-4,158043245,-849
32-5,158047151,-861
32-6,158051057,-399
32-7,158054963,220
32-8,158058869,573
32-9,158062775,437
32-10,158066681,-126
32-11,158070587,-770
32-12,158074493,-999
32-13,158078399,-653
32-14,158082305,23
32-15,158086211,609
32-16,158090117,739
32-17,158094023,375
32-18,158097929,-296
32-19,158101835,-878
32-20,158105741,-937
32-21,158109647,-427
32-22,158113553,325
32-23,158117459,825
32-24,158121365,723
32-25,158125271,89
32-26,158129177,-661
32-27,158133083,-1026
32-28,158136989,-768
32-29,158140895,-105
32-30,158144801,612
32-31,158148707,1016
32-32,158152613,923
32-1,158156463,382
32-2,158160369,-351
32-3,158164275,-801
32-4,158168181,-733
32-5,158172087,-200
32-6,158175993,442
32-7,158179899,717
32-8,158183805,437
32-9,158187711,-234
32-10,158191617,-812
32-11,158195523,-837
32-12,158199429,-311
32-13,158203335,398
32-14,158207241,831
32-15,158211147,712
32-16,158215053,135
32-17,158218959,-596
32-18,158222865,-1007
32-19,158226771,-803
32-20,158230677,-165
32-21,158234583,526
32-22,158238489,845
32-23,158242395,638
32-24,158246301,38
32-25,158250207,-646
32-26,158254113,-922
32-27,158258019,-621
32-28,158261925,56
32-29,158265831,703
32-30,158269737,872
32-31,158273643,466
32-32,158277549,-261
32-1,158281491,-893
32-2,158285397,-1019
32-3,158289303,-620
32-4,158293209,69
32-5,158297115,735
32-6,158301021,987
32-7,158304927,685
32-8,158308833,-16
32-9,158312739,-639
32-10,158316645,-737
32-11,158320551,-323
32-12,158324457,266
32-13,158328363,583
32-14,158332269,416
32-15,158336175,-122
32-16,158340081,-703
32-17,158343987,-876
32-18,158347893,-508
32-19,158351799,159
32-20,158355705,741
32-21,158359611,867
32-22,158363517,492
32-23,158367423,-181
32-24,158371329,-786
32-25,158375235,-906
32-26,158379141,-516
32-27,158383047,136
32-28,158386953,733
32-29,158390859,941
32-30,158394765,679
32-31,158398671,71
32-32,158402577,-535
32-1,158406489,-724
32-2,158410395,-405
32-3,158414301,244
32-4,158418207,828
32-5,158422113,944
32-6,158426019,498
32-7,158429925,-217
32-8,158433831,-696
32-9,158437737,-657
32-10,158441643,-217
32-11,158445549,276
32-12,158449455,461
32-13,158453361,220
32-14,158457267,-315
32-15,158461173,-806
32-16,158465079,-854
32-17,158468985,-403
32-18,158472891,290
32-19,158476797,802
32-20,158480703,783
32-21,158484609,261
32-22,158488515,-504
32-23,158492421,-1024
32-24,158496327,-928
32-25,158500233,-328
32-26,158504139,398
32-27,158508045,827
32-28,158511951,785
32-29,158515857,385
32-30,158519763,-96
32-31,158523669,-377
32-32,158527575,-443
32-1,158531487,-429
32-2,158535393,-380
32-3,158539299,-337
32-4,158543205,-342
32-5,158547111,-454
32-6,158551017,-622
32-7,158554923,-587
32-8,158558829,-295
32-9,158562735,213
32-10,158566641,768
32-11,158570547,1061
32-12,158574453,968
32-13,158578359,509
32-14,158582265,-38
32-15,158586171,-307
32-16,158590077,-231
32-17,158593983,8
32-18,158597889,130
32-19,158601795,-24
32-20,158605701,-384
32-21,158609607,-781
32-22,158613513,-949
32-23,158617419,-686
32-24,158621325,-61
32-25,158625231,588
32-26,158629137,821
32-27,158633043,523
32-28,158636949,-7
32-29,158640855,-382
32-30,158644761,-346
32-31,158648667,-17
32-32,158652573,360
32-1,158656484,655
32-2,158660390,726
32-3,158664296,478
32-4,158668202,-88
32-5,158672108,-655
32-6,158676014,-797
32-7,158679920,-452
32-8,158683826,109
32-9,158687732,497
32-10,158691638,485
32-11,158695544,65
32-12,158699450,-553
32-13,158703356,-927
32-14,158707262,-758
32-15,158711168,-159
32-16,158715074,497
32-17,158718980,780
32-18,158722886,544
32-19,158726792,-45
32-20,158730698,-656
32-21,158734604,-858
32-22,158738510,-512
32-23,158742416,179
32-24,158746322,800
32-25,158750228,862
32-26,158754134,332
32-27,158758040,-388
32-28,158761946,-805
32-29,158765852,-620
32-30,158769758,-51
32-31,158773664,533
32-32,158777570,870
32-1,158781573,794
32-2,158785479,335
32-3,158789385,-339
32-4,158793291,-867
32-5,158797197,-901
32-6,158801103,-432
32-7,158805009,219
32-8,158808915,595
32-9,158812821,450
32-10,158816727,-143
32-11,158820633,-800
32-12,158824539,-1004
32-13,158828445,-616
32-14,158832351,74
32-15,158836257,640
32-16,158840163,740
32-17,158844069,361
32-18,158847975,-308
32-19,158851881,-886
32-20,158855787,-955
32-21,158859693,-472
32-22,158863599,260
32-23,158867505,780
32-24,158871411,738
32-25,158875317,163
32-26,158879223,-575
32-27,158883129,-986
32-28,158887035,-785
32-29,158890941,-134
32-30,158894847,588
32-31,158898753,964
32-32,158902659,788
32-1,158906479,173
32-2,158910385,-545
32-3,158914291,-901
32-4,158918197,-736
32-5,158922103,-172
32-6,158926009,426
32-7,158929915,641
32-8,158933821,343
32-9,158937727,-308
32-10,158941633,-862
32-11,158945539,-895
32-12,158949445,-432
32-13,158953351,221
32-14,158957257,674
32-15,158961163,660
32-16,158965069,202
32-17,158968975,-484
32-18,158972881,-943
32-19,158976787,-820
32-20,158980693,-230
32-21,158984599,450
32-22,158988505,763
32-23,158992411,534
32-24,158996317,-75
32-25,159000223,-747
32-26,159004129,-1013
32-27,159008035,-710
32-28,159011941,-30
32-29,159015847,669
32-30,159019753,944
32-31,159023659,654
32-32,159027565,-23
32-1,159031477,-697
32-2,159035383,-912
32-3,159039289,-583
32-4,159043195,74
32-5,159047101,715
32-6,159051007,926
32-7,159054913,571
32-8,159058819,-157
32-9,159062725,-775
32-10,159066631,-843
32-11,159070537,-379
32-12,159074443,281
32-13,159078349,668
32-14,159082255,529
32-15,159086161,-55
32-16,159090067,-733
32-17,159093973,-1012
32-18,159097879,-698
32-19,159101785,-5
32-20,159105691,649
32-21,159109597,844
32-22,159113503,487
32-23,159117409,-225
32-24,159121315,-882
32-25,159125221,-1006
32-26,159129127,-563
32-27,159133033,147
32-28,159136939,742
32-29,159140845,891
32-30,159144751,553
32-31,159148657,-100
32-32,159152563,-654
32-1,159156475,-726
32-2,159160381,-377
32-3,159164287,93
32-4,159168193,326
32-5,159172099,144
32-6,159176005,-315
32-7,159179911,-740
32-8,159183817,-804
32-9,159187723,-458
32-10,159191629,121
32-11,159195535,737
32-12,159199441,1120
32-13,159203347,1097
32-14,159207253,664
32-15,159211159,43
32-16,159215065,-357
32-17,159218971,-362
32-18,159222877,-84
32-19,159226783,202
32-20,159230689,205
32-21,159234595,-104
32-22,159238501,-581
32-23,159242407,-904
32-24,159246313,-766
32-25,159250219,-233
32-26,159254125,431
32-27,159258031,878
32-28,159261937,925
32-29,159265843,626
32-30,159269749,124
32-31,159273655,-284
32-32,159277561,-378
32-1,159281472,-140
32-2,159285378,341
32-3,159289284,740
32-4,159293190,714
32-5,159297096,198
32-6,159301002,-490
32-7,159304908,-798
32-8,159308814,-541
32-9,159312720,42
32-10,159316626,541
32-11,159320532,597
32-12,159324438,165
32-13,159328344,-534
32-14,159332250,-1032
32-15,159336156,-934
32-16,159340062,-312
32-17,159343968,441
32-18,159347874,836
32-19,159351780,653
32-20,159355686,45
32-21,159359592,-663
32-22,159363498,-1040
32-23,159367404,-824
32-24,159371310,-145
32-25,159375216,580
32-26,159379122,856
32-27,159383028,544
32-28,159386934,-26
32-29,159390840,-439
32-30,159394746,-412
32-31,159398652,-66
32-32,159402558,340
32-1,159406562,656
32-2,159410468,723
32-3,159414374,444
32-4,159418280,-186
32-5,159422186,-817
32-6,159426092,-981
32-7,159429998,-595
32-8,159433904,37
32-9,159437810,470
32-10,159441716,448
32-11,159445622,8
32-12,159449528,-585
32-13,159453434,-900
32-14,159457340,-682
32-15,159461246,-81
32-16,159465152,543
32-17,159469058,789
32-18,159472964,475
32-19,159476870,-196
32-20,159480776,-800
32-21,159484682,-970
32-22,159488588,-733
32-23,159492494,-396
32-24,159496400,-209
32-25,159500306,-279
32-26,159504212,-433
32-27,159508118,-502
32-28,159512024,-401
32-29,159515930,-120
32-30,159519836,240
32-31,159523742,650
32-32,159527648,976
32-1,159531498,1042
32-2,159535404,800
32-3,159539310,324
32-4,159543216,-131
32-5,159547122,-305
32-6,159551028,-186
32-7,159554934,58
32-8,159558840,186
32-9,159562746,29
32-10,159566652,-377
32-11,159570558,-755
32-12,159574464,-734
32-13,159578370,-324
32-14,159582276,128
32-15,159586182,294
32-16,159590088,121
32-17,159593994,-188
32-18,159597900,-489
32-19,159601806,-676
32-20,159605712,-602
32-21,159609618,-231
32-22,159613524,360
32-23,159617430,902
32-24,159621336,1059
32-25,159625242,718
32-26,159629148,64
32-27,159633054,-489
32-28,159636960,-600
32-29,159640866,-267
32-30,159644772,263
32-31,159648678,564
32-32,159652584,408
32-1,159656465,-128
32-2,159660371,-728
32-3,159664277,-949
32-4,159668183,-683
32-5,159672089,-85
32-6,159675995,536
32-7,159679901,785
32-8,159683807,513
32-9,159687713,-161
32-10,159691619,-811
32-11,159695525,-946
32-12,159699431,-505
32-13,159703337,193
32-14,159707243,698
32-15,159711149,691
32-16,159715055,202
32-17,159718961,-512
32-18,159722867,-977
32-19,159726773,-845
32-20,159730679,-229
32-21,159734585,495
32-22,159738491,858
32-23,159742397,646
32-24,159746303,5
32-25,159750209,-729
32-26,159754115,-1048
32-27,159758021,-767
32-28,159761927,-89
32-29,159765833,616
32-30,159769739,917
32-31,159773645,663
32-32,159777551,6
32-1,159781463,-661
32-2,159785369,-867
32-3,159789275,-532
32-4,159793181,69
32-5,159797087,534
32-6,159800993,525
32-7,159804899,66
32-8,159808805,-539
32-9,159812711,-870
32-10,159816617,-693
32-11,159820523,-154
32-12,159824429,523
32-13,159828335,1042
32-14,159832241,1183
32-15,159836147,861
32-16,159840053,194
32-17,159843959,-376
32-18,159847865,-520
32-19,159851771,-238
32-20,159855677,215
32-21,159859583,438
32-22,159863489,261
32-23,159867395,-220
32-24,159871301,-714
32-25,159875207,-803
32-26,159879113,-425
32-27,159883019,190
32-28,159886925,738
32-29,159890831,906
32-30,159894737,630
32-31,159898643,39
32-32,159902549,-537
32-1,159906460,-714
32-2,159910366,-413
32-3,159914272,197
32-4,159918178,755
32-5,159922084,883
32-6,159925990,472
32-7,159929896,-230
32-8,159933802,-717
32-9,159937708,-679
32-10,159941614,-203
32-11,159945520,356
32-12,159949426,593
32-13,159953332,356
32-14,159957238,-220
32-15,159961144,-762
32-16,159965050,-844
32-17,159968956,-406
32-18,159972862,281
32-19,159976768,806
32-20,159980674,829
32-21,159984580,373
32-22,159988486,-332
32-23,159992392,-840
32-24,159996298,-791
32-25,160000204,-288
32-26,160004110,350
32-27,160008016,757
32-28,160011922,781
32-29,160015828,511
32-30,160019734,90
32-31,160023640,-246
32-32,160027546,-308
32-1,160031611,-83
32-2,160035517,375
32-3,160039423,780
32-4,160043329,785
32-5,160047235,270
32-6,160051141,-475
32-7,160055047,-872
32-8,160058953,-666
32-9,160062859,-56
32-10,160066765,513
32-11,160070671,640
32-12,160074577,264
32-13,160078483,-385
32-14,160082389,-849
32-15,160086295,-775
32-16,160090201,-240
32-17,160094107,425
32-18,160098013,795
32-19,160101919,644
32-20,160105825,66
32-21,160109731,-652
32-22,160113637,-1048
32-23,160117543,-837
32-24,160121449,-167
32-25,160125355,528
32-26,160129261,779
32-27,160133167,492
32-28,160137073,-10
32-29,160140979,-369
32-30,160144885,-354
32-31,160148791,-59
32-32,160152697,313
32-1,160156456,653
32-2,160160362,799
32-3,160164268,601
32-4,160168174,15
32-5,160172080,-628
32-6,160175986,-858
32-7,160179892,-537
32-8,160183798,93
32-9,160187704,571
32-10,160191610,577
32-11,160195516,98
32-12,160199422,-586
32-13,160203328,-965
32-14,160207234,-749
32-15,160211140,-116
32-16,160215046,547
32-17,160218952,818
32-18,160222858,557
32-19,160226764,-88
32-20,160230670,-781
32-21,160234576,-1038
32-22,160238482,-697
32-23,160242388,3
32-24,160246294,614
32-25,160250200,680
32-26,160254106,215
32-27,160258012,-380
32-28,160261918,-694
32-29,160265824,-492
32-30,160269730,30
32-31,160273636,563
32-32,160277542,875
32-1,160281484,807
32-2,160285390,372
32-3,160289296,-243
32-4,160293202,-700
32-5,160297108,-713
32-6,160301014,-291
32-7,160304920,281
32-8,160308826,601
32-9,160312732,457
32-10,160316638,-91
32-11,160320544,-706
32-12,160324450,-905
32-13,160328356,-548
32-14,160332262,119
32-15,160336168,699
32-16,160340074,834
32-17,160343980,459
32-18,160347886,-275
32-19,160351792,-964
32-20,160355698,-1116
32-21,160359604,-634
32-22,160363510,150
32-23,160367416,713
32-24,160371322,680
32-25,160375228,106
32-26,160379134,-625
32-27,160383040,-1010
32-28,160386946,-782
32-29,160390852,-123
32-30,160394758,602
32-31,160398664,974
32-32,160402570,791
32-1,160406451,157
32-2,160410357,-569
32-3,160414263,-895
32-4,160418169,-693
32-5,160422075,-177
32-6,160425981,275
32-7,160429887,326
32-8,160433793,-26
32-9,160437699,-541
32-10,160441605,-868
32-11,160445511,-759
32-12,160449417,-282
32-13,160453323,340
32-14,160457229,865
32-15,160461135,1060
32-16,160465041,796
32-17,160468947,133
32-18,160472853,-536
32-19,160476759,-768
32-20,160480665,-489
32-21,160484571,29
32-22,160488477,338
32-23,160492383,228
32-24,160496289,-207
32-25,160500195,-712
32-26,160504101,-874
32-27,160508007,-567
32-28,160511913,48
32-29,160515819,676
32-30,160519725,932
32-31,160523631,681
32-32,160527537,53
32-1,160531449,-588
32-2,160535355,-792
32-3,160539261,-471
32-4,160543167,153
32-5,160547073,746
32-6,160550979,926
32-7,160554885,585
32-8,160558791,-80
32-9,160562697,-639
32-10,160566603,-713
32-11,160570509,-319
32-12,160574415,266
32-13,160578321,626
32-14,160582227,497
32-15,160586133,-62
32-16,160590039,-718
32-17,160593945,-987
32-18,160597851,-676
32-19,160601757,-7
32-20,160605663,626
32-21,160609569,834
32-22,160613475,532
32-23,160617381,-111
32-24,160621287,-731
32-25,160625193,-879
32-26,160629099,-485
32-27,160633005,183
32-28,160636911,764
32-29,160640817,927
32-30,160644723,616
32-31,160648629,-16
32-32,160652535,-616
32-1,160656568,-783
32-2,160660474,-439
32-3,160664380,217
32-4,160668286,780
32-5,160672192,853
32-6,160676098,371
32-7,160680004,-357
32-8,160683910,-803
32-9,160687816,-690
32-10,160691722,-166
32-11,160695628,394
32-12,160699534,597
32-13,160703440,320
32-14,160707346,-274
32-15,160711252,-816
32-16,160715158,-891
32-17,160719064,-451
32-18,160722970,220
32-19,160726876,705
32-20,160730782,695
32-21,160734688,238
32-22,160738594,-424
32-23,160742500,-888
32-24,160746406,-830
32-25,160750312,-340
32-26,160754218,292
32-27,160758124,712
32-28,160762030,750
32-29,160765936,481
32-30,160769842,56
32-31,160773748,-260
32-32,160777654,-302
32-1,160781560,-88
32-2,160785466,318
32-3,160789372,676
32-4,160793278,693
32-5,160797184,253
32-6,160801090,-422
32-7,160804996,-807
32-8,160808902,-646
32-9,160812808,-83
32-10,160816714,484
32-11,160820620,636
32-12,160824526,265
32-13,160828432,-439
32-14,160832338,-993
32-15,160836244,-965
32-16,160840150,-393
32-17,160844056,361
32-18,160847962,810
32-19,160851868,678
32-20,160855774,89
32-21,160859680,-615
32-22,160863586,-970
32-23,160867492,-734
32-24,160871398,-95
32-25,160875304,530
32-26,160879210,729
32-27,160883116,433
32-28,160887022,-52
32-29,160890928,-387
32-30,160894834,-344
32-31,160898740,-17
32-32,160902646,365
32-1,160906442,658
32-2,160910348,697
32-3,160914254,407
32-4,160918160,-195
32-5,160922066,-785
32-6,160925972,-928
32-7,160929878,-531
32-8,160933784,133
32-9,160937690,602
32-10,160941596,581
32-11,160945502,90
32-12,160949408,-573
32-13,160953314,-929
32-14,160957220,-725
32-15,160961126,-141
32-16,160965032,472
32-17,160968938,738
32-18,160972844,524
32-19,160976750,-56
32-20,160980656,-704
32-21,160984562,-955
32-22,160988468,-641
32-23,160992374,21
32-24,160996280,601
32-25,161000186,627
32-26,161004092,113
32-27,161007998,-536
32-28,161011904,-866
32-29,161015810,-619
32-30,161019716,-17
32-31,161023622,583
32-32,161027528,910
32-1,161031470,798
32-2,161035376,304
32-3,161039282,-375
32-4,161043188,-870
32-5,161047094,-862
32-6,161051000,-376
32-7,161054906,270
32-8,161058812,642
32-9,161062718,508
32-10,161066624,-43
32-11,161070530,-649
32-12,161074436,-834
32-13,161078342,-478
32-14,161082248,136
32-15,161086154,618
32-16,161090060,668
32-17,161093966,278
32-18,161097872,-353
32-19,161101778,-877
32-20,161105684,-908
32-21,161109590,-431
32-22,161113496,281
32-23,161117402,842
32-24,161121308,910
32-25,161125214,435
32-26,161129120,-325
32-27,161133026,-889
32-28,161136932,-874
32-29,161140838,-328
32-30,161144744,390
32-31,161148650,805
32-32,161152556,682
32-1,161156437,130
32-2,161160343,-514
32-3,161164249,-830
32-4,161168155,-679
32-5,161172061,-164
32-6,161175967,409
32-7,161179873,634
32-8,161183779,361
32-9,161187685,-264
32-10,161191591,-815
32-11,161195497,-864
32-12,161199403,-417
32-13,161203309,229
32-14,161207215,697
32-15,161211121,703
32-16,161215027,254
32-17,161218933,-446
32-18,161222839,-935
32-19,161226745,-838
32-20,161230651,-263
32-21,161234557,406
32-22,161238463,715
32-23,161242369,494
32-24,161246275,-81
32-25,161250181,-709
32-26,161254087,-953
32-27,161257993,-656
32-28,161261899,-3
32-29,161265805,669
32-30,161269711,936
32-31,161273617,642
32-32,161277523,-67
32-1,161281434,-784
32-2,161285340,-1010
32-3,161289246,-637
32-4,161293152,56
32-5,161297058,612
32-6,161300964,621
32-7,161304870,99
32-8,161308776,-592
32-9,161312682,-979
32-10,161316588,-811
32-11,161320494,-256
32-12,161324400,416
32-13,161328306,934
32-14,161332212,1083
32-15,161336118,742
32-16,161340024,22
32-17,161343930,-595
32-18,161347836,-694
32-19,161351742,-271
32-20,161355648,289
32-21,161359554,506
32-22,161363460,193
32-23,161367366,-415
32-24,161371272,-837
32-25,161375178,-804
32-26,161379084,-481
32-27,161382990,-143
32-28,161386896,92
32-29,161390802,205
32-30,161394708,215
32-31,161398614,37
32-32,161402520,-230
32-1,161406432,-360
32-2,161410338,-204
32-3,161414244,300
32-4,161418150,838
32-5,161422056,1061
32-6,161425962,846
32-7,161429868,305
32-8,161433774,-180
32-9,161437680,-336
32-10,161441586,-183
32-11,161445492,63
32-12,161449398,132
32-13,161453304,-90
32-14,161457210,-507
32-15,161461116,-888
32-16,161465022,-913
32-17,161468928,-524
32-18,161472834,92
32-19,161476740,619
32-20,161480646,756
32-21,161484552,450
32-22,161488458,-158
32-23,161492364,-681
32-24,161496270,-730
32-25,161500176,-328
32-26,161504082,249
32-27,161507988,631
32-28,161511894,637
32-29,161515800,342
32-30,161519706,-97
32-31,161523612,-422
32-32,161527518,-434
32-1,161531430,-146
32-2,161535336,334
32-3,161539242,699
32-4,161543148,650
32-5,161547054,145
32-6,161550960,-512
32-7,161554866,-810
32-8,161558772,-591
32-9,161562678,-57
32-10,161566584,432
32-11,161570490,556
32-12,161574396,248
32-13,161578302,-338
32-14,161582208,-804
32-15,161586114,-786
32-16,161590020,-320
32-17,161593926,304
32-18,161597832,690
32-19,161601738,613
32-20,161605644,147
32-21,161609550,-460
32-22,161613456,-814
32-23,161617362,-661
32-24,161621268,-126
32-25,161625174,431
32-26,161629080,615
32-27,161632986,358
32-28,161636892,-56
32-29,161640798,-344
32-30,161644704,-313
32-31,161648610,-59
32-32,161652516,241
32-1,161656427,502
32-2,161660333,563
32-3,161664239,310
32-4,161668145,-268
32-5,161672051,-847
32-6,161675957,-979
32-7,161679863,-565
32-8,161683769,114
32-9,161687675,600
32-10,161691581,580
32-11,161695487,64
32-12,161699393,-651
32-13,161703299,-1057
32-14,161707205,-853
32-15,161711111,-221
32-16,161715017,450
32-17,161718923,752
32-18,161722829,547
32-19,161726735,-24
32-20,161730641,-652
32-21,161734547,-885
32-22,161738453,-569
32-23,161742359,82
32-24,161746265,655
32-25,161750171,708
32-26,161754077,240
32-27,161757983,-370
32-28,161761889,-685
32-29,161765795,-456
32-30,161769701,99
32-31,161773607,615
32-32,161777513,849
32-1,161781425,688
32-2,161785331,233
32-3,161789237,-337
32-4,161793143,-729
32-5,161797049,-697
32-6,161800955,-265
32-7,161804861,297
32-8,161808767,601
32-9,161812673,434
32-10,161816579,-126
32-11,161820485,-724
32-12,161824391,-890
32-13,161828297,-512
32-14,161832203,138
32-15,161836109,691
32-16,161840015,825
32-17,161843921,494
32-18,161847827,-157
32-19,161851733,-755
32-20,161855639,-855
32-21,161859545,-414
32-22,161863451,252
32-23,161867357,713
32-24,161871263,675
32-25,161875169,180
32-26,161879075,-468
32-27,161882981,-857
32-28,161886887,-710
32-29,161890793,-140
32-30,161894699,535
32-31,161898605,912
32-32,161902511,775
32-1,161906423,219
32-2,161910329,-447
32-3,161914235,-790
32-4,161918141,-655
32-5,161922047,-138
32-6,161925953,432
32-7,161929859,629
32-8,161933765,308
32-9,161937671,-365
32-10,161941577,-930
32-11,161945483,-953
32-12,161949389,-449
32-13,161953295,254
32-14,161957201,740
32-15,161961107,725
32-16,161965013,234
32-17,161968919,-499
32-18,161972825,-989
32-19,161976731,-866
32-20,161980637,-244
32-21,161984543,470
32-22,161988449,797
32-23,161992355,550
32-24,161996261,-89
32-25,162000167,-731
32-26,162004073,-962
32-27,162007979,-710
32-28,162011885,-189
32-29,162015791,307
32-30,162019697,484
32-31,162023603,281
32-32,162027509,-197
32-1,162031415,-672
32-2,162035321,-773
32-3,162039227,-437
32-4,162043133,207
32-5,162047039,845
32-6,162050945,1113
32-7,162054851,932
32-8,162058757,397
32-9,162062663,-163
32-10,162066569,-405
32-11,162070475,-316
32-12,162074381,-68
32-13,162078287,68
32-14,162082193,-73
32-15,162086099,-440
32-16,162090005,-843
32-17,162093911,-945
32-18,162097817,-598
32-19,162101723,40
32-20,162105629,660
32-21,162109535,912
32-22,162113441,675
32-23,162117347,74
32-24,162121253,-541
32-25,162125159,-717
32-26,162129065,-402
32-27,162132971,147
32-28,162136877,633
32-29,162140783,778
32-30,162144689,529
32-31,162148595,-12
32-32,162152501,-555
32-1,162156418,-721
32-2,162160324,-412
32-3,162164230,214
32-4,162168136,780
32-5,162172042,890
32-6,162175948,450
32-7,162179854,-263
32-8,162183760,-754
32-9,162187666,-725
32-10,162191572,-265
32-11,162195478,284
32-12,162199384,524
32-13,162203290,303
32-14,162207196,-252
32-15,162211102,-787
32-16,162215008,-890
32-17,162218914,-493
32-18,162222820,166
32-19,162226726,707
32-20,162230632,790
32-21,162234538,386
32-22,162238444,-316
32-23,162242350,-865
32-24,162246256,-851
32-25,162250162,-335
32-26,162254068,333
32-27,162257974,748
32-28,162261880,746
32-29,162265786,433
32-30,162269692,-30
32-31,162273598,-379
32-32,162277504,-417
32-1,162281416,-124
32-2,162285322,402
32-3,162289228,789
32-4,162293134,707
32-5,162297040,129
32-6,162300946,-599
32-7,162304852,-885
32-8,162308758,-563
32-9,162312664,36
32-10,162316570,449
32-11,162320476,352
32-12,162324382,-201
32-13,162328288,-923
32-14,162332194,-1371
32-15,162336100,-1152
32-16,162340006,-334
32-17,162343912,617
32-18,162347818,1129
32-19,162351724,903
32-20,162355630,68
32-21,162359536,-929
32-22,162363442,-1448
32-23,162367348,-1123
32-24,162371254,-206
32-25,162375160,652
32-26,162379066,856
32-27,162382972,368
32-28,162386878,-343
32-29,162390784,-788
32-30,162394690,-689
32-31,162398596,-210
32-32,162402502,381
32-1,162406413,894
32-2,162410319,1061
32-3,162414225,677
32-4,162418131,-255
32-5,162422037,-1178
32-6,162425943,-1377
32-7,162429849,-748
32-8,162433755,196
32-9,162437661,771
32-10,162441567,629
32-11,162445473,-87
32-12,162449379,-947
32-13,162453285,-1355
32-14,162457191,-993
32-15,162461097,-120
32-16,162465003,728
32-17,162468909,1034
32-18,162472815,648
32-19,162476721,-201
32-20,162480627,-1040
32-21,162484533,-1268
32-22,162488439,-724
32-23,162492345,230
32-24,162496251,999
32-25,162500157,1017
32-26,162504063,320
32-27,162507969,-591
32-28,162511875,-1110
32-29,162515781,-871
32-30,162519687,-100
32-31,162523593,749
32-32,162527499,1251
32-1,162531380,1123
32-2,162535286,389
32-3,162539192,-641
32-4,162543098,-1361
32-5,162547004,-1282
32-6,162550910,-510
32-7,162554816,389
32-8,162558722,790
32-9,162562628,473
32-10,162566534,-308
32-11,162570440,-1060
32-12,162574346,-1224
32-13,162578252,-679
32-14,162582158,198
32-15,162586064,900
32-16,162589970,1008
32-17,162593876,469
32-18,162597782,-461
32-19,162601688,-1225
32-20,162605594,-1254
32-21,162609500,-534
32-22,162613406,427
32-23,162617312,1020
32-24,162621218,889
32-25,162625124,134
32-26,162629030,-768
32-27,162632936,-1225
32-28,162636842,-904
32-29,162640748,-1
32-30,162644654,992
32-31,162648560,1498
32-32,162652466,1239
32-1,162656408,323
32-2,162660314,-775
32-3,162664220,-1342
32-4,162668126,-1092
32-5,162672032,-243
32-6,162675938,601
32-7,162679844,818
32-8,162683750,303
32-9,162687656,-611
32-10,162691562,-1321
32-11,162695468,-1294
32-12,162699374,-574
32-13,162703280,372
32-14,162707186,997
32-15,162711092,942
32-16,162714998,258
32-17,162718904,-695
32-18,162722810,-1279
32-19,162726716,-1051
32-20,162730622,-209
32-21,162734528,691
32-22,162738434,1069
32-23,162742340,733
32-24,162746246,-112
32-25,162750152,-1019
32-26,162754058,-1353
32-27,162757964,-891
32-28,162761870,94
32-29,162765776,1047
32-30,162769682,1371
32-31,162773588,901
32-32,162777494,-98
32-1,162781406,-1031
32-2,162785312,-1269
32-3,162789218,-708
32-4,162793124,317
32-5,162797030,1236
32-6,162800936,1442
32-7,162804842,804
32-8,162808748,-338
32-9,162812654,-1226
32-10,162816560,-1222
32-11,162820466,-440
32-12,162824372,527
32-13,162828278,1002
32-14,162832184,709
32-15,162836090,-120
32-16,162839996,-993
32-17,162843902,-1290
32-18,162847808,-781
32-19,162851714,185
32-20,162855620,1016
32-21,162859526,1189
32-22,162863432,629
32-23,162867338,-357
32-24,162871244,-1188
32-25,162875150,-1281
32-26,162879056,-658
32-27,162882962,275
32-28,162886868,1056
32-29,162890774,1270
32-30,162894680,844
32-31,162898586,-41
32-32,162902492,-879
32-1,162906404,-1091
32-2,162910310,-548
32-3,162914216,468
32-4,162918122,1320
32-5,162922028,1408
32-6,162925934,645
32-7,162929840,-487
32-8,162933746,-1176
32-9,162937652,-970
32-10,162941558,-127
32-11,162945464,703
32-12,162949370,926
32-13,162953276,451
32-14,162957182,-386
32-15,162961088,-1081
32-16,162964994,-1118
32-17,162968900,-463
32-18,162972806,457
32-19,162976712,1090
32-20,162980618,1028
32-21,162984524,323
32-22,162988430,-656
32-23,162992336,-1271
32-24,162996242,-1061
32-25,163000148,-227
32-26,163004054,693
32-27,163007960,1186
32-28,163011866,1097
32-29,163015772,570
32-30,163019678,-141
32-31,163023584,-616
32-32,163027490,-590
32-1,163031401,-128
32-2,163035307,484
32-3,163039213,792
32-4,163043119,500
32-5,163047025,-278
32-6,163050931,-1049
32-7,163054837,-1218
32-8,163058743,-688
32-9,163062649,270
32-10,163066555,1235
32-11,163070461,1687
32-12,163074367,1330
32-13,163078273,256
32-14,163082179,-851
32-15,163086085,-1190
32-16,163089991,-668
32-17,163093897,191
32-18,163097803,664
32-19,163101709,430
32-20,163105615,-262
32-21,163109521,-974
32-22,163113427,-1235
32-23,163117333,-807
32-24,163121239,84
32-25,163125145,922
32-26,163129051,1178
32-27,163132957,741
32-28,163136863,-11
32-29,163140769,-585
32-30,163144675,-608
32-31,163148581,-137
32-32,163152487,546
32-1,163156399,1118
32-2,163160305,1229
32-3,163164211,721
32-4,163168117,-283
32-5,163172023,-1173
32-6,163175929,-1281
32-7,163179835,-589
32-8,163183741,361
32-9,163187647,917
32-10,163191553,766
32-11,163195459,59
32-12,163199365,-794
32-13,163203271,-1200
32-14,163207177,-821
32-15,163211083,91
32-16,163214989,982
32-17,163218895,1294
32-18,163222801,849
32-19,163226707,-108
32-20,163230613,-1043
32-21,163234519,-1289
32-22,163238425,-688
32-23,163242331,337
32-24,163246237,1117
32-25,163250143,1075
32-26,163254049,312
32-27,163257955,-614
32-28,163261861,-1087
32-29,163265767,-783
32-30,163269673,16
32-31,163273579,849
32-32,163277485,1323
32-1,163281366,1182
32-2,163285272,450
32-3,163289178,-579
32-4,163293084,-1297
32-5,163296990,-1199
32-6,163300896,-414
32-7,163304802,448
32-8,163308708,755
32-9,163312614,332
32-10,163316520,-514
32-11,163320426,-1264
32-12,163324332,-1376
32-13,163328238,-754
32-14,163332144,211
32-15,163336050,970
32-16,163339956,1077
32-17,163343862,476
32-18,163347768,-539
32-19,163351674,-1346
32-20,163355580,-1342
32-21,163359486,-540
32-22,163363392,501
32-23,163367298,1119
32-24,163371204,942
32-25,163375110,110
32-26,163379016,-844
32-27,163382922,-1272
32-28,163386828,-867
32-29,163390734,86
32-30,163394640,1040
32-31,163398546,1449
32-32,163402452,1126
32-1,163406394,248
32-2,163410300,-728
32-3,163414206,-1191
32-4,163418112,-937
32-5,163422018,-162
32-6,163425924,631
32-7,163429830,889
32-8,163433736,477
32-9,163437642,-319
32-10,163441548,-952
32-11,163445454,-947
32-12,163449360,-366
32-13,163453266,391
32-14,163457172,894
32-15,163461078,857
32-16,163464984,323
32-17,163468890,-428
32-18,163472796,-893
32-19,163476702,-720
32-20,163480608,-69
32-21,163484514,653
32-22,163488420,1008
32-23,163492326,817
32-24,163496232,216
32-25,163500138,-477
32-26,163504044,-761
32-27,163507950,-451
32-28,163511856,213
32-29,163515762,832
32-30,163519668,1011
32-31,163523574,700
32-32,163527480,121
32-1,163531392,-409
32-2,163535298,-561
32-3,163539204,-301
32-4,163543110,190
32-5,163547016,701
32-6,163550922,925
32-7,163554828,668
32-8,163558734,-52
32-9,163562640,-813
32-10,163566546,-1023
32-11,163570452,-518
32-12,163574358,322
32-13,163578264,818
32-14,163582170,570
32-15,163586076,-277
32-16,163589982,-1167
32-17,163593888,-1425
32-18,163597794,-847
32-19,163601700,171
32-20,163605606,1005
32-21,163609512,1162
32-22,163613418,589
32-23,163617324,-375
32-24,163621230,-1139
32-25,163625136,-1186
32-26,163629042,-586
32-27,163632948,231
32-28,163636854,861
32-29,163640760,997
32-30,163644666,616
32-31,163648572,-106
32-32,163652478,-745
32-1,163656389,-869
32-2,163660295,-418
32-3,163664201,397
32-4,163668107,1141
32-5,163672013,1333
32-6,163675919,819
32-7,163679825,-103
32-8,163683731,-789
32-9,163687637,-795
32-10,163691543,-226
32-11,163695449,430
32-12,163699355,648
32-13,163703261,292
32-14,163707167,-387
32-15,163711073,-937
32-16,163714979,-928
32-17,163718885,-368
32-18,163722791,424
32-19,163726697,1014
32-20,163730603,1047
32-21,163734509,514
32-22,163738415,-294
32-23,163742321,-829
32-24,163746227,-745
32-25,163750133,-273
32-26,163754039,199
32-27,163757945,417
32-28,163761851,398
32-29,163765757,312
32-30,163769663,196
32-31,163773569,101
32-32,163777475,64
32-1,163781387,130
32-2,163785293,406
32-3,163789199,727
32-4,163793105,823
32-5,163797011,585
32-6,163800917,138
32-7,163804823,-164
32-8,163808729,-169
32-9,163812635,42
32-10,163816541,270
32-11,163820447,273
32-12,163824353,2
32-13,163828259,-446
32-14,163832165,-774
32-15,163836071,-664
32-16,163839977,-144
32-17,163843883,500
32-18,163847789,871
32-19,163851695,747
32-20,163855601,211
32-21,163859507,-469
32-22,163863413,-849
32-23,163867319,-645
32-24,163871225,-4
32-25,163875131,640
32-26,163879037,837
32-27,163882943,509
32-28,163886849,-6
32-29,163890755,-353
32-30,163894661,-313
32-31,163898567,11
32-32,163902473,402
32-1,163906385,736
32-2,163910291,844
32-3,163914197,614
32-4,163918103,36
32-5,163922009,-559
32-6,163925915,-728
32-7,163929821,-384
32-8,163933727,211
32-9,163937633,620
32-10,163941539,572
32-11,163945445,88
32-12,163949351,-551
32-13,163953257,-877
32-14,163957163,-641
32-15,163961069,-28
32-16,163964975,581
32-17,163968881,799
32-18,163972787,503
32-19,163976693,-148
32-20,163980599,-827
32-21,163984505,-1072
32-22,163988411,-742
32-23,163992317,-58
32-24,163996223,574
32-25,164000129,695
32-26,164004035,287
32-27,164007941,-312
32-28,164011847,-683
32-29,164015753,-538
32-30,164019659,-45
32-31,164023565,467
32-32,164027471,744
32-1,164031382,630
32-2,164035288,195
32-3,164039194,-371
32-4,164043100,-762
32-5,164047006,-707
32-6,164050912,-230
32-7,164054818,368
32-8,164058724,686
32-9,164062630,505
32-10,164066536,-89
32-11,164070442,-742
32-12,164074348,-966
32-13,164078254,-622
32-14,164082160,53
32-15,164086066,669
32-16,164089972,851
32-17,164093878,504
32-18,164097784,-211
32-19,164101690,-850
32-20,164105596,-939
32-21,164109502,-443
32-22,164113408,279
32-23,164117314,757
32-24,164121220,690
32-25,164125126,141
32-26,164129032,-537
32-27,164132938,-894
32-28,164136844,-655
32-29,164140750,11
32-30,164144656,723
32-31,164148562,1068
32-32,164152468,877
32-1,164156380,276
32-2,164160286,-427
32-3,164164192,-791
32-4,164168098,-641
32-5,164172004,-81
32-6,164175910,516
32-7,164179816,688
32-8,164183722,310
32-9,164187628,-391
32-10,164191534,-922
32-11,164195440,-887
32-12,164199346,-360
32-13,164203252,311
32-14,164207158,737
32-15,164211064,662
32-16,164214970,127
32-17,164218876,-601
32-18,164222782,-1050
32-19,164226688,-888
32-20,164230594,-265
32-21,164234500,428
32-22,164238406,760
32-23,164242312,579
32-24,164246218,17
32-25,164250124,-647
32-26,164254030,-937
32-27,164257936,-659
32-28,164261842,-10
32-29,164265748,645
32-30,164269654,882
32-31,164273560,596
32-32,164277466,-30
32-1,164281347,-653
32-2,164285253,-851
32-3,164289159,-531
32-4,164293065,101
32-5,164296971,706
32-6,164300877,871
32-7,164304783,478
32-8,164308689,-251
32-9,164312595,-833
32-10,164316501,-877
32-11,164320407,-424
32-12,164324313,203
32-13,164328219,581
32-14,164332125,459
32-15,164336031,-81
32-16,164339937,-718
32-17,164343843,-975
32-18,164347749,-657
32-19,164351655,19
32-20,164355561,656
32-21,164359467,848
32-22,164363373,491
32-23,164367279,-231
32-24,164371185,-920
32-25,164375091,-1079
32-26,164378997,-642
32-27,164382903,69
32-28,164386809,654
32-29,164390715,793
32-30,164394621,481
32-31,164398527,-108
32-32,164402433,-643
32-1,164406375,-770
32-2,164410281,-435
32-3,164414187,190
32-4,164418093,739
32-5,164421999,823
32-6,164425905,354
32-7,164429811,-362
32-8,164433717,-781
32-9,164437623,-613
32-10,164441529,-37
32-11,164445435,531
32-12,164449341,687
32-13,164453247,353
32-14,164457153,-264
32-15,164461059,-800
32-16,164464965,-874
32-17,164468871,-445
32-18,164472777,250
32-19,164476683,822
32-20,164480589,889
32-21,164484495,407
32-22,164488401,-377
32-23,164492307,-936
32-24,164496213,-847
32-25,164500119,-247
32-26,164504025,442
32-27,164507931,798
32-28,164511837,707
32-29,164515743,350
32-30,164519649,-80
32-31,164523555,-357
32-32,164527461,-346
32-1,164531373,-79
32-2,164535279,378
32-3,164539185,742
32-4,164543091,696
32-5,164546997,160
32-6,164550903,-592
32-7,164554809,-985
32-8,164558715,-761
32-9,164562621,-104
32-10,164566527,534
32-11,164570433,696
32-12,164574339,262
32-13,164578245,-451
32-14,164582151,-895
32-15,164586057,-791
32-16,164589963,-377
32-17,164593869,-54
32-18,164597775,-23
32-19,164601681,-196
32-20,164605587,-388
32-21,164609493,-551
32-22,164613399,-592
32-23,164617305,-405
32-24,164621211,48
32-25,164625117,656
32-26,164629023,1041
32-27,164632929,962
32-28,164636835,507
32-29,164640741,-60
32-30,164644647,-356
32-31,164648553,-269
32-32,164652459,67
32-1,164656371,426
32-2,164660277,518
32-3,164664183,238
32-4,164668089,-318
32-5,164671995,-808
32-6,164675901,-858
32-7,164679807,-430
32-8,164683713,203
32-9,164687619,643
32-10,164691525,610
32-11,164695431,110
32-12,164699337,-574
32-13,164703243,-965
32-14,164707149,-778
32-15,164711055,-175
32-16,164714961,480
32-17,164718867,795
32-18,164722773,608
32-19,164726679,23
32-20,164730585,-660
32-21,164734491,-951
32-22,164738397,-656
32-23,164742303,16
32-24,164746209,634
32-25,164750115,725
32-26,164754021,288
32-27,164757927,-320
32-28,164761833,-694
32-29,164765739,-557
32-30,164769645,-65
32-31,164773551,473
32-32,164777457,799
32-1,164781368,722
32-2,164785274,271
32-3,164789180,-370
32-4,164793086,-857
32-5,164796992,-875
32-6,164800898,-410
32-7,164804804,227
32-8,164808710,586
32-9,164812616,405
32-10,164816522,-229
32-11,164820428,-903
32-12,164824334,-1101
32-13,164828240,-710
32-14,164832146,-27
32-15,164836052,536
32-16,164839958,650
32-17,164843864,283
32-18,164847770,-396
32-19,164851676,-989
32-20,164855582,-1042
32-21,164859488,-508
32-22,164863394,274
32-23,164867300,824
32-24,164871206,802
32-25,164875112,245
32-26,164879018,-495
32-27,164882924,-930
32-28,164886830,-752
32-29,164890736,-106
32-30,164894642,633
32-31,164898548,1042
32-32,164902454,926
32-1,164906396,387
32-2,164910302,-286
32-3,164914208,-675
32-4,164918114,-617
32-5,164922020,-179
32-6,164925926,345
32-7,164929832,549
32-8,164933738,284
32-9,164937644,-321
32-10,164941550,-853
32-11,164945456,-910
32-12,164949362,-480
32-13,164953268,156
32-14,164957174,606
32-15,164961080,566
32-16,164964986,56
32-17,164968892,-669
32-18,164972798,-1129
32-19,164976704,-980
32-20,164980610,-353
32-21,164984516,378
32-22,164988422,765
32-23,164992328,614
32-24,164996234,34
32-25,165000140,-665
32-26,165004046,-977
32-27,165007952,-704
32-28,165011858,-45
32-29,165015764,612
32-30,165019670,826
32-31,165023576,489
32-32,165027482,-205
32-1,165031363,-875
32-2,165035269,-1058
32-3,165039175,-668
32-4,165043081,59
32-5,165046987,757
32-6,165050893,997
32-7,165054799,660
32-8,165058705,-60
32-9,165062611,-697
32-10,165066517,-818
32-11,165070423,-426
32-12,165074329,176
32-13,165078235,558
32-14,165082141,472
32-15,165086047,-13
32-16,165089953,-595
32-17,165093859,-837
32-18,165097765,-566
32-19,165101671,35
32-20,165105577,634
32-21,165109483,849
32-22,165113389,561
32-23,165117295,-85
32-24,165121201,-725
32-25,165125107,-885
32-26,165129013,-501
32-27,165132919,152
32-28,165136825,727
32-29,165140731,901
32-30,165144637,623
32-31,165148543,24
32-32,165152449,-562
32-1,165156361,-724
32-2,165160267,-388
32-3,165164173,264
32-4,165168079,826
32-5,165171985,893
32-6,165175891,404
32-7,165179797,-332
32-8,165183703,-785
32-9,165187609,-659
32-10,165191515,-89
32-11,165195421,539
32-12,165199327,793
32-13,165203233,498
32-14,165207139,-188
32-15,165211045,-850
32-16,165214951,-1009
32-17,165218857,-575
32-18,165222763,159
32-19,165226669,747
32-20,165230575,833
32-21,165234481,422
32-22,165238387,-264
32-23,165242293,-798
32-24,165246199,-810
32-25,165250105,-362
32-26,165254011,251
32-27,165257917,657
32-28,165261823,679
32-29,165265729,402
32-30,165269635,-31
32-31,165273541,-367
32-32,165277447,-431
32-1,165281359,-213
32-2,165285265,235
32-3,165289171,617
32-4,165293077,588
32-5,165296983,70
32-6,165300889,-631
32-7,165304795,-940
32-8,165308701,-668
32-9,165312607,-66
32-10,165316513,449
32-11,165320419,542
32-12,165324325,192
32-13,165328231,-394
32-14,165332137,-837
32-15,165336043,-797
32-16,165339949,-309
32-17,165343855,323
32-18,165347761,697
32-19,165351667,573
32-20,165355573,27
32-21,165359479,-665
32-22,165363385,-1061
32-23,165367291,-871
32-24,165371197,-224
32-25,165375103,469
32-26,165379009,748
32-27,165382915,503
32-28,165386821,35
32-29,165390727,-316
32-30,165394633,-321
32-31,165398539,-75
32-32,165402445,221
32-1,165406356,489
32-2,165410262,594
32-3,165414168,418
32-4,165418074,-89
32-5,165421980,-655
32-6,165425886,-847
32-7,165429792,-526
32-8,165433698,77
32-9,165437604,528
32-10,165441510,530
32-11,165445416,79
32-12,165449322,-556
32-13,165453228,-905
32-14,165457134,-696
32-15,165461040,-94
32-16,165464946,536
32-17,165468852,797
32-18,165472758,549
32-19,165476664,-57
32-20,165480570,-699
32-21,165484476,-918
32-22,165488382,-575
32-23,165492288,98
32-24,165496194,702
32-25,165500100,789
32-26,165504006,336
32-27,165507912,-314
32-28,165511818,-729
32-29,165515724,-606
32-30,165519630,-97
32-31,165523536,464
32-32,165527442,799
32-1,165531568,722
32-2,165535474,271
32-3,165539380,-380
32-4,165543286,-877
32-5,165547192,-881
32-6,165551098,-388
32-7,165555004,285
32-8,165558910,674
32-9,165562816,535
32-10,165566722,-30
32-11,165570628,-652
32-12,165574534,-856
32-13,165578440,-514
32-14,165582346,124
32-15,165586252,694
32-16,165590158,847
32-17,165594064,503
32-18,165597970,-176
32-19,165601876,-781
32-20,165605782,-859
32-21,165609688,-378
32-22,165613594,326
32-23,165617500,810
32-24,165621406,772
32-25,165625312,250
32-26,165629218,-425
32-27,165633124,-808
32-28,165637030,-620
32-29,165640936,-6
32-30,165644842,681
32-31,165648748,1058
32-32,165652654,946
32-1,165656352,425
32-2,165660258,-251
32-3,165664164,-661
32-4,165668070,-606
32-5,165671976,-128
32-6,165675882,450
32-7,165679788,675
32-8,165683694,393
32-9,165687600,-246
32-10,165691506,-800
32-11,165695412,-859
32-12,165699318,-426
32-13,165703224,221
32-14,165707130,708
32-15,165711036,734
32-16,165714942,288
32-17,165718848,-410
32-18,165722754,-885
32-19,165726660,-770
32-20,165730566,-187
32-21,165734472,486
32-22,165738378,812
32-23,165742284,621
32-24,165746190,51
32-25,165750096,-615
32-26,165754002,-906
32-27,165757908,-620
32-28,165761814,62
32-29,165765720,768
32-30,165769626,1032
32-31,165773532,706
32-32,165777438,-16
32-1,165781349,-718
32-2,165785255,-923
32-3,165789161,-545
32-4,165793067,155
32-5,165796973,798
32-6,165800879,977
32-7,165804785,596
32-8,165808691,-124
32-9,165812597,-717
32-10,165816503,-776
32-11,165820409,-329
32-12,165824315,303
