32-1,17743352,-24929
32-2,17747258,-32768
32-3,17751164,-29600
32-4,17755070,-358
32-5,17758976,29574
32-6,17762882,32767
32-7,17766788,26851
32-8,17770694,-4402
32-9,17774600,-32768
32-10,17778506,-32359
32-11,17782412,-17518
32-12,17786318,11932
32-13,17790224,26357
32-14,17794130,15116
32-15,17798036,-11428
32-16,17801942,-32263
32-17,17805848,-31860
32-18,17809754,-30469
32-19,17813660,-1845
32-20,17817566,23135
32-21,17821472,30835
32-22,17825378,16706
32-23,17829284,-13182
32-24,17833190,-31778
32-25,17837096,-31381
32-26,17841002,-24567
32-27,17844908,4537
32-28,17848814,29862
32-29,17852720,32767
32-30,17856626,26404
32-31,17860532,-3411
32-32,17864438,-30044
32-1,17868349,-32682
32-2,17872255,-22519
32-3,17876161,8402
32-4,17880067,32767
32-5,17883973,32358
32-6,17887879,21154
32-7,17891785,-12239
32-8,17895691,-32768
32-9,17899597,-32359
32-10,17903503,-9605
32-11,17907409,18199
32-12,17911315,26138
32-13,17915221,9176
32-14,17919127,-18959
32-15,17923033,-32268
32-16,17926939,-31865
32-17,17930845,-23362
32-18,17934751,6233
32-19,17938657,27273
32-20,17942563,28820
32-21,17946469,8807
32-22,17950375,-21940
32-23,17954281,-31792
32-24,17958187,-31394
32-25,17962093,-15624
32-26,17965999,14212
32-27,17969905,32049
32-28,17973811,30620
32-29,17977717,9684
32-30,17981623,-19187
32-31,17985529,-31651
32-32,17989435,-31256
32-1,17993347,-9769
32-2,17997253,19844
32-3,18001159,32767
32-4,18005065,32358
32-5,18008971,10644
32-6,18012877,-23126
32-7,18016783,-32768
32-8,18020689,-29308
32-9,18024595,-729
32-10,18028501,23155
32-11,18032407,23198
32-12,18036313,1451
32-13,18040219,-26611
32-14,18044125,-32250
32-15,18048031,-31847
32-16,18051937,-15611
32-17,18055843,13642
32-18,18059749,30877
32-19,18063655,27420
32-20,18067561,2846
32-21,18071467,-27846
32-22,18075373,-31844
32-23,18079279,-31446
32-24,18083185,-6271
32-25,18087091,22352
32-26,18090997,32404
32-27,18094903,19651
32-28,18098809,-9265
32-29,18102715,-31791
32-30,18106621,-31394
32-31,18110527,-22807
32-32,18114433,5601
32-1,18118345,30754
32-2,18122251,32767
32-3,18126157,25019
32-4,18130063,-2368
32-5,18133969,-26713
32-6,18137875,-32719
32-7,18141781,-32310
32-8,18145687,-29367
32-9,18149593,-27131
32-10,18153499,-27916
32-11,18157405,-30065
32-12,18161311,-30477
32-13,18165217,-30096
32-14,18169123,-25053
32-15,18173029,-6089
32-16,18176935,18721
32-17,18180841,32767
32-18,18184747,32358
32-19,18188653,30769
32-20,18192559,1683
32-21,18196465,-23360
32-22,18200371,-26233
32-23,18204277,-6867
32-24,18208183,16277
32-25,18212089,20687
32-26,18215995,594
32-27,18219901,-28228
32-28,18223807,-32768
32-29,18227713,-32359
32-30,18231619,-16774
32-31,18235525,10213
32-32,18239431,32652
32-1,18243525,32767
32-2,18247431,28364
32-3,18251337,-2814
32-4,18255243,-31253
32-5,18259149,-32699
32-6,18263055,-15474
32-7,18266961,12008
32-8,18270867,23260
32-9,18274773,9241
32-10,18278679,-17707
32-11,18282585,-32433
32-12,18286491,-32028
32-13,18290397,-27621
32-14,18294303,1071
32-15,18298209,25348
32-16,18302115,32767
32-17,18306021,17672
32-18,18309927,-13157
32-19,18313833,-32239
32-20,18317739,-31837
32-21,18321645,-20471
32-22,18325551,10361
32-23,18329457,28906
32-24,18333363,24568
32-25,18337269,358
32-26,18341175,-29226
32-27,18345081,-31622
32-28,18348987,-31227
32-29,18352893,-9014
32-30,18356799,20776
32-31,18360705,32767
32-32,18364611,32358
32-1,18368340,12433
32-2,18372246,-20058
32-3,18376152,-32768
32-4,18380058,-32359
32-5,18383964,-6994
32-6,18387870,24111
32-7,18391776,32767
32-8,18395682,23923
32-9,18399588,-6002
32-10,18403494,-32768
32-11,18407400,-32359
32-12,18411306,-23611
32-13,18415212,6932
32-14,18419118,26370
32-15,18423024,21840
32-16,18426930,-1451
32-17,18430836,-29550
32-18,18434742,-31964
32-19,18438648,-31564
32-20,18442554,-11153
32-21,18446460,17703
32-22,18450366,32466
32-23,18454272,26139
32-24,18458178,-559
32-25,18462084,-30296
32-26,18465990,-31601
32-27,18469896,-31206
32-28,18473802,-5568
32-29,18477708,24112
32-30,18481614,32767
32-31,18485520,32358
32-32,18489426,6733
32-1,18493337,-24773
32-2,18497243,-32768
32-3,18501149,-29529
32-4,18505055,254
32-5,18508961,29764
32-6,18512867,32760
32-7,18516773,23652
32-8,18520679,-8372
32-9,18524585,-32768
32-10,18528491,-32359
32-11,18532397,-16881
32-12,18536303,11890
32-13,18540209,24438
32-14,18544115,12411
32-15,18548021,-13545
32-16,18551927,-32185
32-17,18555833,-31783
32-18,18559739,-30331
32-19,18563645,-2304
32-20,18567551,23606
32-21,18571457,32767
32-22,18575363,20946
32-23,18579269,-9061
32-24,18583175,-32768
32-25,18587081,-32359
32-26,18590987,-26883
32-27,18594893,2262
32-28,18598799,28850
32-29,18602705,32767
32-30,18606611,28120
32-31,18610517,-1114
32-32,18614423,-28623
32-1,18618335,-32749
32-2,18622241,-23215
32-3,18626147,7723
32-4,18630053,32767
32-5,18633959,32358
32-6,18637865,20673
32-7,18641771,-13691
32-8,18645677,-32768
32-9,18649583,-31745
32-10,18653489,-9628
32-11,18657395,10904
32-12,18661301,10842
32-13,18665207,-7551
32-14,18669113,-29448
32-15,18673019,-31653
32-16,18676925,-31258
32-17,18680831,-21943
32-18,18684737,2110
32-19,18688643,27850
32-20,18692549,32767
32-21,18696455,32358
32-22,18700361,3441
32-23,18704267,-27992
32-24,18708173,-32768
32-25,18712079,-20804
32-26,18715985,8785
32-27,18719891,26703
32-28,18723797,18829
32-29,18727703,-6963
32-30,18731609,-32693
32-31,18735515,-32284
32-32,18739421,-31881
32-1,18743333,-9041
32-2,18747239,19278
32-3,18751145,32767
32-4,18755051,32358
32-5,18758957,8738
32-6,18762863,-24586
32-7,18766769,-32768
32-8,18770675,-29716
32-9,18774581,-680
32-10,18778487,23629
32-11,18782393,24335
32-12,18786299,3098
32-13,18790205,-25435
32-14,18794111,-32301
32-15,18798017,-31898
32-16,18801923,-15867
32-17,18805829,13413
32-18,18809735,29977
32-19,18813641,25583
32-20,18817547,886
32-21,18821453,-29092
32-22,18825359,-31813
32-23,18829265,-31416
32-24,18833171,-6303
32-25,18837077,21989
32-26,18840983,32106
32-27,18844889,19671
32-28,18848795,-8940
32-29,18852701,-31757
32-30,18856607,-31360
32-31,18860513,-22201
32-32,18864419,4941
32-1,18868330,29962
32-2,18872236,32767
32-3,18876142,30938
32-4,18880048,2687
32-5,18883954,-28489
32-6,18887860,-32768
32-7,18891766,-22847
32-8,18895672,6802
32-9,18899578,25626
32-10,18903484,18875
32-11,18907390,-6436
32-12,18911296,-32636
32-13,18915202,-32228
32-14,18919108,-31825
32-15,18923014,-7499
32-16,18926920,19766
32-17,18930826,31785
32-18,18934732,21982
32-19,18938638,-6372
32-20,18942544,-32175
32-21,18946450,-31773
32-22,18950356,-28259
32-23,18954262,2324
32-24,18958168,27428
32-25,18962074,31604
32-26,18965980,13475
32-27,18969886,-17450
32-28,18973792,-31742
32-29,18977698,-31346
32-30,18981604,-16438
32-31,18985510,13396
32-32,18989416,32767
32-1,18993322,32358
32-2,18997228,22157
32-3,19001134,-9900
32-4,19005040,-32768
32-5,19008946,-32359
32-6,19012852,-14405
32-7,19016758,15315
32-8,19020664,28026
32-9,19024570,15226
32-10,19028476,-12429
32-11,19032382,-32353
32-12,19036288,-31949
32-13,19040194,-28185
32-14,19044100,1487
32-15,19048006,25557
32-16,19051912,30999
32-17,19055818,14418
32-18,19059724,-16152
32-19,19063630,-31903
32-20,19067536,-31505
32-21,19071442,-20119
32-22,19075348,10958
32-23,19079254,30692
32-24,19083160,28768
32-25,19087066,5578
32-26,19090972,-25540
32-27,19094878,-31493
32-28,19098784,-31099
32-29,19102690,-10561
32-30,19106596,20170
32-31,19110502,32767
32-32,19114408,32358
32-1,19118326,12418
32-2,19122232,-20287
32-3,19126138,-32768
32-4,19130044,-32359
32-5,19133950,-6438
32-6,19137856,24056
32-7,19141762,32767
32-8,19145668,20750
32-9,19149574,-9447
32-10,19153480,-32768
32-11,19157386,-32359
32-12,19161292,-22816
32-13,19165198,7552
32-14,19169104,26019
32-15,19173010,21192
32-16,19176916,-1935
32-17,19180822,-29878
32-18,19184728,-31959
32-19,19188634,-31559
32-20,19192540,-12667
32-21,19196446,16800
32-22,19200352,32767
32-23,19204258,32064
32-24,19208164,7563
32-25,19212070,-24556
32-26,19215976,-32768
32-27,19219882,-32359
32-28,19223788,-8281
32-29,19227694,23053
32-30,19231600,32767
32-31,19235506,31511
32-32,19239412,3757
32-1,19243323,-27315
32-2,19247229,-32768
32-3,19251135,-29667
32-4,19255041,-92
32-5,19258947,29520
32-6,19262853,32767
32-7,19266759,26869
32-8,19270665,-4453
32-9,19274571,-32768
32-10,19278477,-32359
32-11,19282383,-17727
32-12,19286289,11069
32-13,19290195,24591
32-14,19294101,12975
32-15,19298007,-13132
32-16,19301913,-32179
32-17,19305819,-31777
32-18,19309725,-30576
32-19,19313631,-2539
32-20,19317537,23280
32-21,19321443,32767
32-22,19325349,20748
32-23,19329255,-9169
32-24,19333161,-32488
32-25,19337067,-32082
32-26,19340973,-26119
32-27,19344879,3727
32-28,19348785,29356
32-29,19352691,32767
32-30,19356597,20464
32-31,19360503,-7184
32-32,19364409,-28586
32-1,19368382,-32578
32-2,19372288,-30298
32-3,19376194,-25461
32-4,19380100,-24927
32-5,19384006,-26999
32-6,19387912,-30827
32-7,19391818,-30442
32-8,19395724,-30061
32-9,19399630,-22056
32-10,19403536,-596
32-11,19407442,21372
32-12,19411348,32767
32-13,19415254,32358
32-14,19419160,31953
32-15,19423066,21995
32-16,19426972,6231
32-17,19430878,-3229
32-18,19434784,-1604
32-19,19438690,3536
32-20,19442596,-463
32-21,19446502,-15201
32-22,19450408,-32768
32-23,19454314,-32359
32-24,19458220,-31955
32-25,19462126,-15296
32-26,19466032,10692
32-27,19469938,30485
32-28,19473844,31678
32-29,19477750,10937
32-30,19481656,-19267
32-31,19485562,-32172
32-32,19489468,-31770
32-1,19493319,-12628
32-2,19497225,18249
32-3,19501131,32767
32-4,19505037,32358
32-5,19508943,9736
32-6,19512849,-24123
32-7,19516755,-32768
32-8,19520661,-29166
32-9,19524567,-1150
32-10,19528473,21177
32-11,19532379,19775
32-12,19536285,-1912
32-13,19540191,-28487
32-14,19544097,-32114
32-15,19548003,-31712
32-16,19551909,-15840
32-17,19555815,12963
32-18,19559721,31353
32-19,19563627,29762
32-20,19567533,6104
32-21,19571439,-25309
32-22,19575345,-31806
32-23,19579251,-31409
32-24,19583157,-7534
32-25,19587063,21607
32-26,19590969,32120
32-27,19594875,19325
32-28,19598781,-9310
32-29,19602687,-31720
32-30,19606593,-31324
32-31,19610499,-22117
32-32,19614405,5466
32-1,19618316,30365
32-2,19622222,32767
32-3,19626128,29913
32-4,19630034,1341
32-5,19633940,-29455
32-6,19637846,-32768
32-7,19641752,-23078
32-8,19645658,6701
32-9,19649564,25559
32-10,19653470,18983
32-11,19657376,-6034
32-12,19661282,-32638
32-13,19665188,-32230
32-14,19669094,-31827
32-15,19673000,-7598
32-16,19676906,19358
32-17,19680812,30697
32-18,19684718,20322
32-19,19688624,-7879
32-20,19692530,-32118
32-21,19696436,-31716
32-22,19700342,-28136
32-23,19704248,2190
32-24,19708154,26947
32-25,19712060,31266
32-26,19715966,13322
32-27,19719872,-17535
32-28,19723778,-31673
32-29,19727684,-31278
32-30,19731590,-16582
32-31,19735496,13173
32-32,19739402,32767
32-1,19743314,32358
32-2,19747220,22735
32-3,19751126,-9227
32-4,19755032,-32768
32-5,19758938,-32359
32-6,19762844,-14726
32-7,19766750,14843
32-8,19770656,27540
32-9,19774562,14734
32-10,19778468,-12748
32-11,19782374,-32327
32-12,19786280,-31924
32-13,19790186,-28317
32-14,19794092,1140
32-15,19797998,25001
32-16,19801904,30384
32-17,19805810,13877
32-18,19809716,-16464
32-19,19813622,-31847
32-20,19817528,-31450
32-21,19821434,-20342
32-22,19825340,10607
32-23,19829246,30607
32-24,19833152,29256
32-25,19837058,6340
32-26,19840964,-24885
32-27,19844870,-31453
32-28,19848776,-31060
32-29,19852682,-10317
32-30,19856588,20592
32-31,19860494,32767
32-32,19864400,32358
32-1,19868311,10152
32-2,19872217,-22211
32-3,19876123,-32768
32-4,19880029,-32359
32-5,19883935,-6845
32-6,19887841,24015
32-7,19891747,32767
32-8,19895653,24034
32-9,19899559,-5734
32-10,19903465,-32768
32-11,19907371,-32359
32-12,19911277,-24126
32-13,19915183,6710
32-14,19919089,27098
32-15,19922995,23702
32-16,19926901,696
32-17,19930807,-28188
32-18,19934713,-32030
32-19,19938619,-31630
32-20,19942525,-11237
32-21,19946431,18006
32-22,19950337,32595
32-23,19954243,25818
32-24,19958149,-1070
32-25,19962055,-30712
32-26,19965961,-31654
32-27,19969867,-31258
32-28,19973773,-5149
32-29,19977679,24468
32-30,19981585,32767
32-31,19985491,32358
32-32,19989397,5962
32-1,19993431,-25434
32-2,19997337,-32768
32-3,20001243,-29645
32-4,20005149,204
32-5,20009055,29668
32-6,20012961,32763
32-7,20016867,23802
32-8,20020773,-7916
32-9,20024679,-32768
32-10,20028585,-32359
32-11,20032491,-17523
32-12,20036397,12404
32-13,20040303,27057
32-14,20044209,16522
32-15,20048115,-9781
32-16,20052021,-32315
32-17,20055927,-31911
32-18,20059833,-31021
32-19,20063739,-2271
32-20,20067645,23193
32-21,20071551,31191
32-22,20075457,17309
32-23,20079363,-12618
32-24,20083269,-31837
32-25,20087175,-31439
32-26,20091081,-24793
32-27,20094987,4098
32-28,20098893,29623
32-29,20102799,32767
32-30,20106705,27820
32-31,20110611,-1455
32-32,20114517,-28617
32-1,20118307,-32741
32-2,20122213,-22962
32-3,20126119,7896
32-4,20130025,32767
32-5,20133931,32358
32-6,20137837,20317
32-7,20141743,-13092
32-8,20145649,-32768
32-9,20149555,-32359
32-10,20153461,-9878
32-11,20157367,18194
32-12,20161273,26527
32-13,20165179,10064
32-14,20169085,-18075
32-15,20172991,-32292
32-16,20176897,-31889
32-17,20180803,-24488
32-18,20184709,5239
32-19,20188615,27729
32-20,20192521,31300
32-21,20196427,12707
32-22,20200333,-18714
32-23,20204239,-31915
32-24,20208145,-31516
32-25,20212051,-15404
32-26,20215957,14262
32-27,20219863,28976
32-28,20223769,22291
32-29,20227675,-1154
32-30,20231581,-27665
32-31,20235487,-31391
32-32,20239393,-30996
32-1,20243304,-8381
32-2,20247210,19721
32-3,20251116,32767
32-4,20255022,32358
32-5,20258928,12583
32-6,20262834,-21436
32-7,20266740,-32768
32-8,20270646,-29321
32-9,20274552,-1642
32-10,20278458,21568
32-11,20282364,21171
32-12,20286270,-610
32-13,20290176,-27763
32-14,20294082,-32154
32-15,20297988,-31752
32-16,20301894,-15974
32-17,20305800,13008
32-18,20309706,31306
32-19,20313612,29416
32-20,20317518,5744
32-21,20321424,-25741
32-22,20325330,-31829
32-23,20329236,-31432
32-24,20333142,-6777
32-25,20337048,21362
32-26,20340954,29915
32-27,20344860,15321
32-28,20348766,-13009
32-29,20352672,-31626
32-30,20356578,-31231
32-31,20360484,-19259
32-32,20364390,7419
32-1,20368302,30874
32-2,20372208,32767
32-3,20376114,30552
32-4,20380020,1741
32-5,20383926,-29038
32-6,20387832,-32768
32-7,20391738,-21645
32-8,20395644,4644
32-9,20399550,17889
32-10,20403456,7398
32-11,20407362,-16241
32-12,20411268,-32261
32-13,20415174,-31858
32-14,20419080,-31460
32-15,20422986,-9106
32-16,20426892,18127
32-17,20430798,32767
32-18,20434704,32358
32-19,20438610,7969
32-20,20442516,-24703
32-21,20446422,-32768
32-22,20450328,-31713
32-23,20454234,-2301
32-24,20458140,25039
32-25,20462046,29869
32-26,20465952,10985
32-27,20469858,-19386
32-28,20473764,-32517
32-29,20477670,-32111
32-30,20481576,-18693
32-31,20485482,11192
32-32,20489388,32767
32-1,20493300,32358
32-2,20497206,22658
32-3,20501112,-9841
32-4,20505018,-32768
32-5,20508924,-32359
32-6,20512830,-14271
32-7,20516736,13975
32-8,20520642,24527
32-9,20524548,10451
32-10,20528454,-16351
32-11,20532360,-32186
32-12,20536266,-31784
32-13,20540172,-27956
32-14,20544078,738
32-15,20547984,25354
32-16,20551890,32767
32-17,20555796,18274
32-18,20559702,-12398
32-19,20563608,-32469
32-20,20567514,-32063
32-21,20571420,-22106
32-22,20575326,9154
32-23,20579232,29773
32-24,20583138,27782
32-25,20587044,4505
32-26,20590950,-27298
32-27,20594856,-31938
32-28,20598762,-31539
32-29,20602668,-6899
32-30,20606574,11793
32-31,20610480,10725
32-32,20614386,-5247
32-1,20618450,-26293
32-2,20622356,-30947
32-3,20626262,-30560
32-4,20630168,-21538
32-5,20634074,709
32-6,20637980,21217
32-7,20641886,32767
32-8,20645792,32358
32-9,20649698,31953
32-10,20653604,17763
32-11,20657510,813
32-12,20661416,-6823
32-13,20665322,-1951
32-14,20669228,4630
32-15,20673134,100
32-16,20677040,-16439
32-17,20680946,-32768
32-18,20684852,-32359
32-19,20688758,-31955
32-20,20692664,-12189
32-21,20696570,14681
32-22,20700476,32503
32-23,20704382,29254
32-24,20708288,3655
32-25,20712194,-27333
32-26,20716100,-32065
32-27,20720006,-31664
32-28,20723912,-7413
32-29,20727818,23177
32-30,20731724,32767
32-31,20735630,32358
32-32,20739536,6263
32-1,20743295,-25300
32-2,20747201,-32768
32-3,20751107,-30308
32-4,20755013,-1410
32-5,20758919,28787
32-6,20762825,32767
32-7,20766731,28078
32-8,20770637,-2635
32-9,20774543,-32768
32-10,20778449,-32637
32-11,20782355,-19003
32-12,20786261,10452
32-13,20790167,25834
32-14,20794073,15497
32-15,20797979,-10754
32-16,20801885,-32506
32-17,20805791,-32100
32-18,20809697,-31307
32-19,20813603,-2810
32-20,20817509,22370
32-21,20821415,30377
32-22,20825321,16587
32-23,20829227,-13112
32-24,20833133,-31978
32-25,20837039,-31578
32-26,20840945,-25138
32-27,20844851,3064
32-28,20848757,28920
32-29,20852663,32767
32-30,20856569,30834
32-31,20860475,2420
32-32,20864381,-25852
32-1,20868292,-32768
32-2,20872198,-23523
32-3,20876104,7114
32-4,20880010,32767
32-5,20883916,32358
32-6,20887822,20068
32-7,20891728,-13361
32-8,20895634,-32768
32-9,20899540,-32359
32-10,20903446,-10039
32-11,20907352,18097
32-12,20911258,26564
32-13,20915164,10242
32-14,20919070,-17810
32-15,20922976,-32295
32-16,20926882,-31891
32-17,20930788,-24278
32-18,20934694,5415
32-19,20938600,27166
32-20,20942506,29605
32-21,20946412,10234
32-22,20950318,-20687
32-23,20954224,-31838
32-24,20958130,-31441
32-25,20962036,-15793
32-26,20965942,14278
32-27,20969848,31228
32-28,20973754,27702
32-29,20977660,5126
32-30,20981566,-23621
32-31,20985472,-31536
32-32,20989378,-31142
32-1,20993290,-9508
32-2,20997196,20061
32-3,21001102,32767
32-4,21005008,32358
32-5,21008914,8424
32-6,21012820,-24928
32-7,21016726,-32768
32-8,21020632,-29931
32-9,21024538,-851
32-10,21028444,23584
32-11,21032350,24478
32-12,21036256,3483
32-13,21040162,-25040
32-14,21044068,-32308
32-15,21047974,-31904
32-16,21051880,-16248
32-17,21055786,13099
32-18,21059692,29883
32-19,21063598,25703
32-20,21067504,1099
32-21,21071410,-28937
32-22,21075316,-31815
32-23,21079222,-31418
32-24,21083128,-6486
32-25,21087034,21927
32-26,21090940,32296
32-27,21094846,20086
32-28,21098752,-8583
32-29,21102658,-31768
32-30,21106564,-31371
32-31,21110470,-22441
32-32,21114376,5021
32-1,21118288,30137
32-2,21122194,32767
32-3,21126100,30300
32-4,21130006,1828
32-5,21133912,-29140
32-6,21137818,-32768
32-7,21141724,-23262
32-8,21145630,6608
32-9,21149536,25781
32-10,21153442,19563
32-11,21157348,-5425
32-12,21161254,-32373
32-13,21165160,-32247
32-14,21169066,-31844
32-15,21172972,-8669
32-16,21176878,19186
32-17,21180784,32456
32-18,21184690,23987
32-19,21188596,-3817
32-20,21192502,-32237
32-21,21196408,-31834
32-22,21200314,-28436
32-23,21204220,1838
32-24,21208126,25803
32-25,21212032,27610
32-26,21215938,7867
32-27,21219844,-21883
32-28,21223750,-31599
32-29,21227656,-31204
32-30,21231562,-14528
32-31,21235468,13728
32-32,21239374,32767
32-1,21243621,32358
32-2,21247527,25547
32-3,21251433,-5912
32-4,21255339,-32768
32-5,21259245,-32359
32-6,21263151,-15025
32-7,21267057,13112
32-8,21270963,24511
32-9,21274869,10711
32-10,21278775,-16269
32-11,21282681,-32170
32-12,21286587,-31768
32-13,21290493,-27977
32-14,21294399,717
32-15,21298305,25340
32-16,21302211,32767
32-17,21306117,18237
32-18,21310023,-12411
32-19,21313929,-32396
32-20,21317835,-31992
32-21,21321741,-22101
32-22,21325647,9182
32-23,21329553,29760
32-24,21333459,27999
32-25,21337365,4939
32-26,21341271,-25901
32-27,21345177,-31892
32-28,21349083,-31494
32-29,21352989,-10249
32-30,21356895,20555
32-31,21360801,32767
32-32,21364707,32358
32-1,21368283,7446
32-2,21372189,-24555
32-3,21376095,-32768
32-4,21380001,-32359
32-5,21383907,-6832
32-6,21387813,23915
32-7,21391719,32767
32-8,21395625,25346
32-9,21399531,-4040
32-10,21403437,-32768
32-11,21407343,-32359
32-12,21411249,-25273
32-13,21415155,5896
32-14,21419061,27880
32-15,21422967,26143
32-16,21426873,3842
32-17,21430779,-25895
32-18,21434685,-32114
32-19,21438591,-31713
32-20,21442497,-13055
32-21,21446403,16734
32-22,21450309,32107
32-23,21454215,26073
32-24,21458121,-123
32-25,21462027,-29992
32-26,21465933,-31716
32-27,21469839,-31320
32-28,21473745,-6187
32-29,21477651,23623
32-30,21481557,32767
32-31,21485463,32358
32-32,21489369,6202
32-1,21493281,-25270
32-2,21497187,-32768
32-3,21501093,-30065
32-4,21504999,-1018
32-5,21508905,29034
32-6,21512811,32767
32-7,21516717,27519
32-8,21520623,-3307
32-9,21524529,-32768
32-10,21528435,-32359
32-11,21532341,-18711
32-12,21536247,10953
32-13,21540153,26493
32-14,21544059,16352
32-15,21547965,-9893
32-16,21551871,-32271
32-17,21555777,-31868
32-18,21559683,-31470
32-19,21563589,-3130
32-20,21567495,22476
32-21,21571401,31133
32-22,21575307,17992
32-23,21579213,-11623
32-24,21583119,-31788
32-25,21587025,-31391
32-26,21590931,-25625
32-27,21594837,3209
32-28,21598743,29134
32-29,21602649,32767
32-30,21606555,27796
32-31,21610461,-1545
32-32,21614367,-29077
32-1,21618278,-32735
32-2,21622184,-23205
32-3,21626090,7973
32-4,21629996,32767
32-5,21633902,32358
32-6,21637808,18091
32-7,21641714,-15310
32-8,21645620,-32768
32-9,21649526,-32359
32-10,21653432,-9938
32-11,21657338,18292
32-12,21661244,26777
32-13,21665150,10762
32-14,21669056,-17246
32-15,21672962,-32314
32-16,21676868,-31910
32-17,21680774,-24411
32-18,21684680,5414
32-19,21688586,27085
32-20,21692492,29338
32-21,21696398,9685
32-22,21700304,-22845
32-23,21704210,-31817
32-24,21708116,-31419
32-25,21712022,-12338
32-26,21715928,3320
32-27,21719834,973
32-28,21723740,-9243
32-29,21727646,-16952
32-30,21731552,-19643
32-31,21735458,-15960
32-32,21739364,-8902
32-1,21743276,-435
32-2,21747182,14452
32-3,21751088,32767
32-4,21754994,32767
32-5,21758900,32358
32-6,21762806,13305
32-7,21766712,-9090
32-8,21770618,-16620
32-9,21774524,-7599
32-10,21778430,5042
32-11,21782336,4516
32-12,21786242,-11900
32-13,21790148,-32768
32-14,21794054,-32359
32-15,21797960,-31955
32-16,21801866,-15631
32-17,21805772,11345
32-18,21809678,30464
32-19,21813584,29598
32-20,21817490,5930
32-21,21821396,-25263
32-22,21825302,-32013
32-23,21829208,-31613
32-24,21833114,-8431
32-25,21837020,21210
32-26,21840926,32767
32-27,21844832,21360
32-28,21848738,-6998
32-29,21852644,-32106
32-30,21856550,-31705
32-31,21860456,-23943
32-32,21864362,4298
32-1,21868274,29796
32-2,21872180,32767
32-3,21876086,27368
32-4,21879992,-2029
32-5,21883898,-32051
32-6,21887804,-32686
32-7,21891710,-23137
32-8,21895616,7350
32-9,21899522,26641
32-10,21903428,20913
32-11,21907334,-3715
32-12,21911240,-31442
32-13,21915146,-32237
32-14,21919052,-31835
32-15,21922958,-8394
32-16,21926864,19596
32-17,21930770,32198
32-18,21934676,22992
32-19,21938582,-5092
32-20,21942488,-32205
32-21,21946394,-31802
32-22,21950300,-28910
32-23,21954206,1570
32-24,21958112,26939
32-25,21962018,31438
32-26,21965924,13633
32-27,21969830,-17229
32-28,21973736,-31750
32-29,21977642,-31353
32-30,21981548,-17470
32-31,21985454,12557
32-32,21989360,32767
32-1,21993271,32358
32-2,21997177,22295
32-3,22001083,-9725
32-4,22004989,-32768
32-5,22008895,-32359
32-6,22012801,-15316
32-7,22016707,14819
32-8,22020613,28581
32-9,22024519,16786
32-10,22028425,-10679
32-11,22032331,-32384
32-12,22036237,-31979
32-13,22040143,-29043
32-14,22044049,609
32-15,22047955,25018
32-16,22051861,30658
32-17,22055767,14389
32-18,22059673,-15934
32-19,22063579,-31903
32-20,22067485,-31504
32-21,22071391,-20739
32-22,22075297,10207
32-23,22079203,30179
32-24,22083109,28688
32-25,22087015,5835
32-26,22090921,-25261
32-27,22094827,-31474
32-28,22098733,-31081
32-29,22102639,-10928
32-30,22106545,19795
32-31,22110451,32767
32-32,22114357,32358
32-1,22118269,13053
32-2,22122175,-19706
32-3,22126081,-32768
32-4,22129987,-32359
32-5,22133893,-7021
32-6,22137799,23516
32-7,22141705,32767
32-8,22145611,20537
32-9,22149517,-9378
32-10,22153423,-32768
32-11,22157329,-32359
32-12,22161235,-23874
32-13,22165141,6579
32-14,22169047,26138
32-15,22172953,22750
32-16,22176859,168
32-17,22180765,-28432
32-18,22184671,-31999
32-19,22188577,-31599
32-20,22192483,-11960
32-21,22196389,17346
32-22,22200295,32767
32-23,22204201,27279
32-24,22208107,1054
32-25,22212013,-29177
32-26,22215919,-31750
32-27,22219825,-31353
32-28,22223731,-6359
32-29,22227637,23706
32-30,22231543,32767
32-31,22235449,32158
32-32,22239355,4807
32-1,22243266,-26478
32-2,22247172,-32768
32-3,22251078,-30083
32-4,22254984,-829
32-5,22258890,29065
32-6,22262796,32767
32-7,22266702,27474
32-8,22270608,-3571
32-9,22274514,-32768
32-10,22278420,-32359
32-11,22282326,-18471
32-12,22286232,10063
32-13,22290138,23748
32-14,22294044,12458
32-15,22297950,-13258
32-16,22301856,-32138
32-17,22305762,-31737
32-18,22309668,-30970
32-19,22313574,-3214
32-20,22317480,22720
32-21,22321386,32767
32-22,22325292,20621
32-23,22329198,-10092
32-24,22333104,-32682
32-25,22337010,-32274
32-26,22340916,-24651
32-27,22344822,-11744
32-28,22348728,-6663
32-29,22352634,-7099
32-30,22356540,-8832
32-31,22360446,-15994
32-32,22364352,-24014
32-1,22368264,-24691
32-2,22372170,-13688
32-3,22376076,8281
32-4,22379982,29642
32-5,22383888,32767
32-6,22387794,32358
32-7,22391700,26438
32-8,22395606,6813
32-9,22399512,-6221
32-10,22403418,-6439
32-11,22407324,1947
32-12,22411230,3679
32-13,22415136,-7629
32-14,22419042,-27729
32-15,22422948,-32768
32-16,22426854,-32359
32-17,22430760,-23656
32-18,22434666,2786
32-19,22438572,25538
32-20,22442478,31381
32-21,22446384,13653
32-22,22450290,-17467
32-23,22454196,-32360
32-24,22458102,-31956
32-25,22462008,-17954
32-26,22465914,12391
32-27,22469820,30119
32-28,22473726,26919
32-29,22477632,5163
32-30,22481538,-23260
32-31,22485444,-31976
32-32,22489350,-31576
32-1,22493262,-11237
32-2,22497168,18032
32-3,22501074,32767
32-4,22504980,32358
32-5,22508886,13017
32-6,22512792,-20900
32-7,22516698,-32768
32-8,22520604,-30395
32-9,22524510,-2392
32-10,22528416,22348
32-11,22532322,23848
32-12,22536228,2831
32-13,22540134,-25364
32-14,22544040,-32247
32-15,22547946,-31845
32-16,22551852,-17330
32-17,22555758,12145
32-18,22559664,30639
32-19,22563570,28876
32-20,22567476,5491
32-21,22571382,-25732
32-22,22575288,-31875
32-23,22579194,-31477
32-24,22583100,-7897
32-25,22587006,21136
32-26,22590912,31832
32-27,22594818,19583
32-28,22598724,-8920
32-29,22602630,-31782
32-30,22606536,-31385
32-31,22610442,-24597
32-32,22614348,3482
32-1,22618259,29259
32-2,22622165,32767
32-3,22626071,28443
32-4,22629977,-681
32-5,22633883,-31201
32-6,22637789,-32727
32-7,22641695,-23551
32-8,22645601,6662
32-9,22649507,26064
32-10,22653413,20347
32-11,22657319,-4171
32-12,22661225,-31702
32-13,22665131,-32241
32-14,22669037,-31838
32-15,22672943,-8313
32-16,22676849,19088
32-17,22680755,30770
32-18,22684661,20758
32-19,22688567,-7222
32-20,22692473,-32131
32-21,22696379,-31730
32-22,22700285,-28783
32-23,22704191,1400
32-24,22708097,26612
32-25,22712003,31585
32-26,22715909,14128
32-27,22719815,-16706
32-28,22723721,-31688
32-29,22727627,-31292
32-30,22731533,-16651
32-31,22735439,13015
32-32,22739345,32767
32-1,22743287,32358
32-2,22747193,23376
32-3,22751099,-8312
32-4,22755005,-32768
32-5,22758911,-32359
32-6,22762817,-15510
32-7,22766723,14463
32-8,22770629,28207
32-9,22774535,16300
32-10,22778441,-11237
32-11,22782347,-32359
32-12,22786253,-31955
32-13,22790159,-29428
32-14,22794065,-16
32-15,22797971,25355
32-16,22801877,32767
32-17,22805783,18109
32-18,22809689,-12531
32-19,22813595,-32222
32-20,22817501,-31819
32-21,22821407,-22058
32-22,22825313,9425
32-23,22829219,30469
32-24,22833125,29461
32-25,22837031,6905
32-26,22840937,-24402
32-27,22844843,-31796
32-28,22848749,-31399
32-29,22852655,-11458
32-30,22856561,19635
32-31,22860467,32767
32-32,22864373,32358
32-1,22868255,9544
32-2,22872161,-22854
32-3,22876067,-32768
32-4,22879973,-32359
32-5,22883879,-6584
32-6,22887785,23700
32-7,22891691,32767
32-8,22895597,21334
32-9,22899503,-8523
32-10,22903409,-32768
32-11,22907315,-32359
32-12,22911221,-23963
32-13,22915127,6756
32-14,22919033,26762
32-15,22922939,23632
32-16,22926845,1040
32-17,22930751,-27895
32-18,22934657,-32036
32-19,22938563,-31636
32-20,22942469,-11663
32-21,22946375,17456
32-22,22950281,31875
32-23,22954187,24907
32-24,22958093,-1823
32-25,22961999,-31162
32-26,22965905,-31613
32-27,22969811,-31218
32-28,22973717,-5857
32-29,22977623,23639
32-30,22981529,32767
32-31,22985435,32358
32-32,22989341,8316
32-1,22993252,-23441
32-2,22997158,-32768
32-3,23001064,-30343
32-4,23004970,-1766
32-5,23008876,28715
32-6,23012782,32767
32-7,23016688,28152
32-8,23020594,-2489
32-9,23024500,-32630
32-10,23028406,-32683
32-11,23032312,-19417
32-12,23036218,10510
32-13,23040124,26782
32-14,23044030,17263
32-15,23047936,-9003
32-16,23051842,-32603
32-17,23055748,-32196
32-18,23059654,-31793
32-19,23063560,-4266
32-20,23067466,22120
32-21,23071372,31995
32-22,23075278,19879
32-23,23079184,-9662
32-24,23083090,-32149
32-25,23086996,-31747
32-26,23090902,-26279
32-27,23094808,3378
32-28,23098714,28734
32-29,23102620,32767
32-30,23106526,22272
32-31,23110432,-7595
32-32,23114338,-32764
32-1,23118250,-32544
32-2,23122156,-22335
32-3,23126062,8315
32-4,23129968,32767
32-5,23133874,32358
32-6,23137780,21706
32-7,23141686,-11727
32-8,23145592,-32768
32-9,23149498,-32359
32-10,23153404,-10618
32-11,23157310,16543
32-12,23161216,24124
32-13,23165122,7402
32-14,23169028,-19967
32-15,23172934,-32175
32-16,23176840,-31773
32-17,23180746,-24389
32-18,23184652,4799
32-19,23188558,27711
32-20,23192464,32645
32-21,23196370,15030
32-22,23200276,-16489
32-23,23204182,-31869
32-24,23208088,-31471
32-25,23211994,-16567
32-26,23215900,13300
32-27,23219806,28910
32-28,23223712,22880
32-29,23227618,87
32-30,23231524,-26572
32-31,23235430,-31356
32-32,23239336,-30964
32-1,23243247,-9667
32-2,23247153,18196
32-3,23251059,32767
32-4,23254965,32358
32-5,23258871,17233
32-6,23262777,-16939
32-7,23266683,-32768
32-8,23270589,-29481
32-9,23274495,-3324
32-10,23278401,19867
32-11,23282307,20120
32-12,23286213,-1444
32-13,23290119,-28103
32-14,23294025,-32082
32-15,23297931,-31681
32-16,23301837,-16584
32-17,23305743,12064
32-18,23309649,30733
32-19,23313555,29559
32-20,23317461,6336
32-21,23321367,-24957
32-22,23325273,-31752
32-23,23329179,-31355
32-24,23333085,-8167
32-25,23336991,21023
32-26,23340897,31782
32-27,23344803,19397
32-28,23348709,-9400
32-29,23352615,-31648
32-30,23356521,-31252
32-31,23360427,-18004
32-32,23364333,7932
32-1,23368245,19347
32-2,23372151,9896
32-3,23376057,-11219
32-4,23379963,-30964
32-5,23383869,-30577
32-6,23387775,-30195
32-7,23391681,-14966
32-8,23395587,6742
32-9,23399493,29313
32-10,23403399,32767
32-11,23407305,32358
32-12,23411211,18504
32-13,23415117,-9986
32-14,23419023,-23216
32-15,23422929,-14705
32-16,23426835,4978
32-17,23430741,14583
32-18,23434647,2969
32-19,23438553,-22274
32-20,23442459,-32768
32-21,23446365,-32359
32-22,23450271,-27201
32-23,23454177,238
32-24,23458083,24164
32-25,23461989,32314
32-26,23465895,16911
32-27,23469801,-14149
32-28,23473707,-32360
32-29,23477613,-31956
32-30,23481519,-20224
32-31,23485425,10247
32-32,23489331,32767
32-1,23493304,32358
32-2,23497210,22985
32-3,23501116,-9068
32-4,23505022,-32768
32-5,23508928,-32359
32-6,23512834,-15625
32-7,23516740,14134
32-8,23520646,27500
32-9,23524552,15448
32-10,23528458,-11753
32-11,23532364,-32328
32-12,23536270,-31924
32-13,23540176,-29156
32-14,23544082,163
32-15,23547988,24546
32-16,23551894,30762
32-17,23555800,15047
32-18,23559706,-15180
32-19,23563612,-31855
32-20,23567518,-31457
32-21,23571424,-21199
32-22,23575330,9762
32-23,23579236,30181
32-24,23583142,29255
32-25,23587048,6723
32-26,23590954,-24425
32-27,23594860,-31444
32-28,23598766,-31052
32-29,23602672,-10632
32-30,23606578,20359
32-31,23610484,32767
32-32,23614390,32358
32-1,23618240,8296
32-2,23622146,-23800
32-3,23626052,-32768
32-4,23629958,-32359
32-5,23633864,-7577
32-6,23637770,23355
32-7,23641676,32767
32-8,23645582,25610
32-9,23649488,-3566
32-10,23653394,-32768
32-11,23657300,-32359
32-12,23661206,-25269
32-13,23665112,5410
32-14,23669018,26579
32-15,23672924,23907
32-16,23676830,1386
32-17,23680736,-27494
32-18,23684642,-32013
32-19,23688548,-31613
32-20,23692454,-11832
32-21,23696360,17089
32-22,23700266,31098
32-23,23704172,23708
32-24,23708078,-2973
32-25,23711984,-31779
32-26,23715890,-31537
32-27,23719796,-31143
32-28,23723702,-5634
32-29,23727608,23669
32-30,23731514,32767
32-31,23735420,32358
32-32,23739326,6271
32-1,23743238,-25235
32-2,23747144,-32768
32-3,23751050,-30234
32-4,23754956,-1409
32-5,23758862,28831
32-6,23762768,32767
32-7,23766674,28572
32-8,23770580,-1952
32-9,23774486,-32252
32-10,23778392,-32699
32-11,23782298,-19340
32-12,23786204,10565
32-13,23790110,26859
32-14,23794016,17232
32-15,23797922,-9161
32-16,23801828,-32619
32-17,23805734,-32211
32-18,23809640,-31809
32-19,23813546,-3749
32-20,23817452,22267
32-21,23821358,31290
32-22,23825264,18454
32-23,23829170,-11207
32-24,23833076,-32126
32-25,23836982,-31725
32-26,23840888,-26113
32-27,23844794,2794
32-28,23848700,28814
32-29,23852606,32767
32-30,23856512,27815
32-31,23860418,-1205
32-32,23864324,-29921
32-1,23868236,-32729
32-2,23872142,-20814
32-3,23876048,9963
32-4,23879954,30281
32-5,23883860,25634
32-6,23887766,-57
32-7,23891672,-29985
32-8,23895578,-32510
32-9,23899484,-32103
32-10,23903390,-10953
32-11,23907296,16637
32-12,23911202,32767
32-13,23915108,32358
32-14,23919014,27583
32-15,23922920,-4171
32-16,23926826,-28038
32-17,23930732,-27169
32-18,23934638,-5689
32-19,23938544,16318
32-20,23942450,18031
32-21,23946356,-3169
32-22,23950262,-30082
32-23,23954168,-32722
32-24,23958074,-32313
32-25,23961980,-15884
32-26,23965886,11637
32-27,23969792,28851
32-28,23973698,27149
32-29,23977604,5118
32-30,23981510,-23782
32-31,23985416,-32325
32-32,23989322,-31922
32-1,23993233,-11933
32-2,23997139,17703
32-3,24001045,32767
32-4,24004951,32358
32-5,24008857,13121
32-6,24012763,-20779
32-7,24016669,-32768
32-8,24020575,-30658
32-9,24024481,-2819
32-10,24028387,21996
32-11,24032293,23724
32-12,24036199,2981
32-13,24040105,-25093
32-14,24044011,-32238
32-15,24047917,-31835
32-16,24051823,-17602
32-17,24055729,11904
32-18,24059635,30542
32-19,24063541,28856
32-20,24067447,4123
32-21,24071353,-26497
32-22,24075259,-31830
32-23,24079165,-29780
32-24,24083071,-12914
32-25,24086977,-5571
32-26,24090883,-14196
32-27,24094789,-26655
32-28,24098695,-30321
32-29,24102601,-21597
32-30,24106507,-1987
32-31,24110413,15776
32-32,24114319,25798
32-1,24118231,30945
32-2,24122137,32767
32-3,24126043,32358
32-4,24129949,31953
32-5,24133855,13351
32-6,24137761,-5818
32-7,24141667,-12087
32-8,24145573,-3356
32-9,24149479,5083
32-10,24153385,512
32-11,24157291,-17632
32-12,24161197,-32768
32-13,24165103,-32359
32-14,24169009,-31955
32-15,24172915,-9240
32-16,24176821,16932
32-17,24180727,32174
32-18,24184633,25250
32-19,24188539,-2086
32-20,24192445,-31780
32-21,24196351,-31948
32-22,24200257,-30229
32-23,24204163,-203
32-24,24208069,25744
32-25,24211975,30682
32-26,24215881,13182
32-27,24219787,-17307
32-28,24223693,-31824
32-29,24227599,-31427
32-30,24231505,-17890
32-31,24235411,11779
32-32,24239317,32767
32-1,24243320,32358
32-2,24247226,23887
32-3,24251132,-8054
32-4,24255038,-32768
32-5,24258944,-32359
32-6,24262850,-15480
32-7,24266756,13148
32-8,24270662,24999
32-9,24274568,11876
32-10,24278474,-14893
32-11,24282380,-32202
32-12,24286286,-31800
32-13,24290192,-28808
32-14,24294098,-142
32-15,24298004,24879
32-16,24301910,32767
32-17,24305816,18859
32-18,24309722,-11597
32-19,24313628,-32458
32-20,24317534,-32052
32-21,24321440,-23027
32-22,24325346,8254
32-23,24329252,29469
32-24,24333158,28535
32-25,24337064,6061
32-26,24340970,-24933
32-27,24344876,-31959
32-28,24348782,-31559
32-29,24352688,-11096
32-30,24356594,19890
32-31,24360500,32767
32-32,24364406,32324
32-1,24368226,7357
32-2,24372132,-24683
32-3,24376038,-32768
32-4,24379944,-32359
32-5,24383850,-6993
32-6,24387756,23329
32-7,24391662,32767
32-8,24395568,22783
32-9,24399474,-6736
32-10,24403380,-32768
32-11,24407286,-32359
32-12,24411192,-25640
32-13,24415098,5592
32-14,24419004,28110
32-15,24422910,27897
32-16,24426816,6648
32-17,24430722,-23787
32-18,24434628,-32192
32-19,24438534,-31790
32-20,24442440,-13534
32-21,24446346,16385
32-22,24450252,31164
32-23,24454158,24048
32-24,24458064,-2228
32-25,24461970,-31333
32-26,24465876,-31701
32-27,24469782,-31305
32-28,24473688,-6563
32-29,24477594,22899
32-30,24481500,32767
32-31,24485406,32358
32-32,24489312,8132
32-1,24493224,-23675
32-2,24497130,-32768
32-3,24501036,-30598
32-4,24504942,-2556
32-5,24508848,28142
32-6,24512754,32767
32-7,24516660,30329
32-8,24520566,454
32-9,24524472,-30621
32-10,24528378,-32768
32-11,24532284,-20125
32-12,24536190,9104
32-13,24540096,25357
32-14,24544002,15710
32-15,24547908,-10365
32-16,24551814,-32606
32-17,24555720,-32199
32-18,24559626,-31797
32-19,24563532,-3918
32-20,24567438,21512
32-21,24571344,30282
32-22,24575250,17132
32-23,24579156,-13550
32-24,24583062,-32044
32-25,24586968,-31644
32-26,24590874,-21224
32-27,24594780,-1488
32-28,24598686,7180
32-29,24602592,3864
32-30,24606498,-5883
32-31,24610404,-19740
32-32,24614310,-29419
32-1,24618221,-27061
32-2,24622127,-13919
32-3,24626033,7462
32-4,24629939,30455
32-5,24633845,32767
32-6,24637751,32358
32-7,24641657,20989
32-8,24645563,-3492
32-9,24649469,-16225
32-10,24653375,-11454
32-11,24657281,2382
32-12,24661187,6970
32-13,24665093,-5198
32-14,24668999,-27542
32-15,24672905,-32757
32-16,24676811,-32348
32-17,24680717,-23623
32-18,24684623,3302
32-19,24688529,26138
32-20,24692435,32247
32-21,24696341,14638
32-22,24700247,-16708
32-23,24704153,-32395
32-24,24708059,-31991
32-25,24711965,-18922
32-26,24715871,11730
32-27,24719777,31385
32-28,24723683,30819
32-29,24727589,10853
32-30,24731495,-18574
32-31,24735401,-32184
32-32,24739307,-31782
32-1,24743219,-13323
32-2,24747125,16501
32-3,24751031,32767
32-4,24754937,32358
32-5,24758843,16364
32-6,24762749,-17672
32-7,24766655,-32768
32-8,24770561,-30644
32-9,24774467,-3550
32-10,24778373,21557
32-11,24782279,23885
32-12,24786185,3053
32-13,24790091,-25102
32-14,24793997,-32226
32-15,24797903,-31824
32-16,24801809,-17216
32-17,24805715,12034
32-18,24809621,29836
32-19,24813527,27103
32-20,24817433,3296
32-21,24821339,-27246
32-22,24825245,-31776
32-23,24829151,-31379
32-24,24833057,-7683
32-25,24836963,21155
32-26,24840869,32109
32-27,24844775,20479
32-28,24848681,-7825
32-29,24852587,-31717
32-30,24856493,-31320
32-31,24860399,-24235
32-32,24864305,3006
32-1,24868217,28900
32-2,24872123,32767
32-3,24876029,31043
32-4,24879935,2965
32-5,24883841,-28506
32-6,24887747,-32768
32-7,24891653,-24026
32-8,24895559,5685
32-9,24899465,25435
32-10,24903371,19839
32-11,24907277,-4767
32-12,24911183,-31920
32-13,24915089,-32239
32-14,24918995,-31836
32-15,24922901,-8681
32-16,24926807,18599
32-17,24930713,30521
32-18,24934619,20736
32-19,24938525,-7137
32-20,24942431,-32116
32-21,24946337,-31714
32-22,24950243,-28873
32-23,24954149,1330
32-24,24958055,26466
32-25,24961961,31378
32-26,24965867,13908
32-27,24969773,-16894
32-28,24973679,-31662
32-29,24977585,-31266
32-30,24981491,-16751
32-31,24985397,13046
32-32,24989303,32767
32-1,24993275,32358
32-2,24997181,22748
32-3,25001087,-9043
32-4,25004993,-32768
32-5,25008899,-32359
32-6,25012805,-15836
32-7,25016711,14119
32-8,25020617,27843
32-9,25024523,16135
32-10,25028429,-11122
32-11,25032335,-32346
32-12,25036241,-31942
32-13,25040147,-29875
32-14,25044053,-718
32-15,25047959,24849
32-16,25051865,32767
32-17,25055771,18715
32-18,25059677,-11670
32-19,25063583,-32196
32-20,25067489,-31793
32-21,25071395,-21918
32-22,25075301,8909
32-23,25079207,28380
32-24,25083113,25229
32-25,25087019,1716
32-26,25090925,-28059
32-27,25094831,-31577
32-28,25098737,-31182
32-29,25102643,-9718
32-30,25106549,20418
32-31,25110455,32767
32-32,25114361,32358
32-1,25118212,10680
32-2,25122118,-21705
32-3,25126024,-32768
32-4,25129930,-32359
32-5,25133836,-8338
32-6,25137742,23030
32-7,25141648,32767
32-8,25145554,26146
32-9,25149460,-2860
32-10,25153366,-32768
32-11,25157272,-32359
32-12,25161178,-26081
32-13,25165084,4917
32-14,25168990,27437
32-15,25172896,26296
32-16,25176802,4394
32-17,25180708,-25333
32-18,25184614,-32102
32-19,25188520,-31701
32-20,25192426,-13477
32-21,25196332,16175
32-22,25200238,31272
32-23,25204144,24905
32-24,25208050,-1170
32-25,25211956,-30614
32-26,25215862,-31646
32-27,25219768,-31251
32-28,25223674,-6692
32-29,25227580,22941
32-30,25231486,32767
32-31,25235392,32358
32-32,25239298,7250
32-1,25243210,-24462
32-2,25247116,-32768
32-3,25251022,-30659
32-4,25254928,-1938
32-5,25258834,28441
32-6,25262740,32767
32-7,25266646,27848
32-8,25270552,-2952
32-9,25274458,-32768
32-10,25278364,-32359
32-11,25282270,-19037
32-12,25286176,9650
32-13,25290082,23971
32-14,25293988,13200
32-15,25297894,-12439
32-16,25301800,-32149
32-17,25305706,-31747
32-18,25309612,-31350
32-19,25313518,-4002
32-20,25317424,22350
32-21,25321330,32767
32-22,25325236,22174
32-23,25329142,-7225
32-24,25333048,-32753
32-25,25336954,-32344
32-26,25340860,-28257
32-27,25344766,598
32-28,25348672,27803
32-29,25352578,32767
32-30,25356484,28525
32-31,25360390,-445
32-32,25364296,-28502
32-1,25368207,-32765
32-2,25372113,-24521
32-3,25376019,6087
32-4,25379925,32767
32-5,25383831,32358
32-6,25387737,22021
32-7,25391643,-11018
32-8,25395549,-32768
32-9,25399455,-32359
32-10,25403361,-11804
32-11,25407267,16559
32-12,25411173,26231
32-13,25415079,10796
32-14,25418985,-17007
32-15,25422891,-32266
32-16,25426797,-31863
32-17,25430703,-25097
32-18,25434609,4468
32-19,25438515,26508
32-20,25442421,29479
32-21,25446327,10745
32-22,25450233,-19962
32-23,25454139,-31794
32-24,25458045,-31397
32-25,25461951,-17052
32-26,25465857,12905
32-27,25469763,30874
32-28,25473669,28975
32-29,25477575,7841
32-30,25481481,-20963
32-31,25485387,-31539
32-32,25489293,-31145
32-1,25493266,-11070
32-2,25497172,18607
32-3,25501078,32767
32-4,25504984,32358
32-5,25508890,10739
32-6,25512796,-22904
32-7,25516702,-32768
32-8,25520608,-30858
32-9,25524514,-2344
32-10,25528420,22781
32-11,25532326,24780
32-12,25536232,4341
32-13,25540138,-24162
32-14,25544044,-32293
32-15,25547950,-31889
32-16,25551856,-17402
32-17,25555762,12060
32-18,25559668,29606
32-19,25563574,26452
32-20,25567480,2606
32-21,25571386,-27675
32-22,25575292,-31813
32-23,25579198,-31416
32-24,25583104,-7973
32-25,25587010,20899
32-26,25590916,32189
32-27,25594822,20949
32-28,25598728,-7080
32-29,25602634,-31762
32-30,25606540,-31366
32-31,25610446,-23541
32-32,25614352,3191
32-1,25618202,28787
32-2,25622108,32767
32-3,25626014,31555
32-4,25629920,3953
32-5,25633826,-27672
32-6,25637732,-32768
32-7,25641638,-24162
32-8,25645544,5488
32-9,25649450,25451
32-10,25653356,20074
32-11,25657262,-4623
32-12,25661168,-31780
32-13,25665074,-32242
32-14,25668980,-31839
32-15,25672886,-9205
32-16,25676792,18641
32-17,25680698,31805
32-18,25684604,23334
32-19,25688510,-4384
32-20,25692416,-32195
32-21,25696322,-31793
32-22,25700228,-29798
32-23,25704134,416
32-24,25708040,26593
32-25,25711946,32543
32-26,25715852,15906
32-27,25719758,-14998
32-28,25723664,-31781
32-29,25727570,-31384
32-30,25731476,-18356
32-31,25735382,11850
32-32,25739288,32767
32-1,25743231,32358
32-2,25747137,22515
32-3,25751043,-9438
32-4,25754949,-32768
32-5,25758855,-32359
32-6,25762761,-15786
32-7,25766667,13956
32-8,25770573,27340
32-9,25774479,15426
32-10,25778385,-11637
32-11,25782291,-32322
32-12,25786197,-31918
32-13,25790103,-29388
32-14,25794009,-107
32-15,25797915,24597
32-16,25801821,31341
32-17,25805727,15992
32-18,25809633,-14326
32-19,25813539,-31873
32-20,25817445,-31475
32-21,25821351,-21597
32-22,25825257,9511
32-23,25829163,30198
32-24,25833069,29398
32-25,25836975,6994
32-26,25840881,-24262
32-27,25844787,-31462
32-28,25848693,-31069
32-29,25852599,-11250
32-30,25856505,19778
32-31,25860411,32767
32-32,25864317,32358
32-1,25868198,10904
32-2,25872104,-21632
32-3,25876010,-32768
32-4,25879916,-32359
32-5,25883822,-7704
32-6,25887728,23063
32-7,25891634,32767
32-8,25895540,22723
32-9,25899446,-6757
32-10,25903352,-32768
32-11,25907258,-32359
32-12,25911164,-25050
32-13,25915070,5730
32-14,25918976,27024
32-15,25922882,24377
32-16,25926788,1168
32-17,25930694,-26356
32-18,25934600,-32043
32-19,25938506,-31643
32-20,25942412,-22847
32-21,25946318,-18436
32-22,25950224,-21749
32-23,25954130,-26162
32-24,25958036,-30135
32-25,25961942,-29758
32-26,25965848,-29386
32-27,25969754,-17292
32-28,25973660,4056
32-29,25977566,24500
32-30,25981472,32767
32-31,25985378,32358
32-32,25989284,31953
32-1,25993195,23521
32-2,25997101,9744
32-3,26001007,925
32-4,26004913,1627
32-5,26008819,4892
32-6,26012725,-490
32-7,26016631,-15726
32-8,26020537,-32768
32-9,26024443,-32359
32-10,26028349,-31955
32-11,26032255,-14166
32-12,26036161,12390
32-13,26040067,30624
32-14,26043973,27927
32-15,26047879,3351
32-16,26051785,-27672
32-17,26055691,-31963
32-18,26059597,-31564
32-19,26063503,-5260
32-20,26067409,21842
32-21,26071315,29144
32-22,26075221,14381
32-23,26079127,-14483
32-24,26083033,-31742
32-25,26086939,-31345
32-26,26090845,-25508
32-27,26094751,1317
32-28,26098657,27635
32-29,26102563,32767
32-30,26106469,32358
32-31,26110375,8773
32-32,26114281,-21640
32-1,26118315,-32768
32-2,26122221,-25563
32-3,26126127,4770
32-4,26130033,32643
32-5,26133939,32618
32-6,26137845,18732
32-7,26141751,-13929
32-8,26145657,-32768
32-9,26149563,-32359
32-10,26153469,-13695
32-11,26157375,17632
32-12,26161281,32721
32-13,26165187,22535
32-14,26169093,-5411
32-15,26172999,-32628
32-16,26176905,-32221
32-17,26180811,-28411
32-18,26184717,1999
32-19,26188623,25747
32-20,26192529,28071
32-21,26196435,9124
32-22,26200341,-20965
32-23,26204247,-32015
32-24,26208153,-31615
32-25,26212059,-17465
32-26,26215965,12165
32-27,26219871,30069
32-28,26223777,28532
32-29,26227683,7786
32-30,26231589,-20842
32-31,26235495,-31725
32-32,26239401,-31328
32-1,26243191,-11881
32-2,26247097,17647
32-3,26251003,32767
32-4,26254909,32358
32-5,26258815,12894
32-6,26262721,-21273
32-7,26266627,-32768
32-8,26270533,-30150
32-9,26274439,-2743
32-10,26278345,20637
32-11,26282251,20737
32-12,26286157,-378
32-13,26290063,-27225
32-14,26293969,-32122
32-15,26297875,-31721
32-16,26301781,-18051
32-17,26305687,10997
32-18,26309593,31547
32-19,26313499,32767
32-20,26317405,11429
32-21,26321311,-21892
32-22,26325217,-32187
32-23,26329123,-31785
32-24,26333029,-8015
32-25,26336935,17059
32-26,26340841,20791
32-27,26344747,2848
32-28,26348653,-21860
32-29,26352559,-31525
32-30,26356465,-31131
32-31,26360371,-12622
32-32,26364277,7643
32-1,26368188,26135
32-2,26372094,32767
32-3,26376000,32358
32-4,26379906,24155
32-5,26383812,-5476
32-6,26387718,-25477
32-7,26391624,-22355
32-8,26395530,-2266
32-9,26399436,13817
32-10,26403342,9439
32-11,26407248,-13470
32-12,26411154,-32768
32-13,26415060,-32359
32-14,26418966,-31955
32-15,26422872,-9390
32-16,26426778,17308
32-17,26430684,32488
32-18,26434590,25937
32-19,26438496,-1292
32-20,26442402,-31264
32-21,26446308,-31980
32-22,26450214,-30655
32-23,26454120,-702
32-24,26458026,25622
32-25,26461932,31072
32-26,26465838,13999
32-27,26469744,-16523
32-28,26473650,-31868
32-29,26477556,-31470
32-30,26481462,-18752
32-31,26485368,11146
32-32,26489274,32767
32-1,26493247,32358
32-2,26497153,23722
32-3,26501059,-7987
32-4,26504965,-32768
32-5,26508871,-32359
32-6,26512777,-16552
32-7,26516683,13548
32-8,26520589,28069
32-9,26524495,16992
32-10,26528401,-10095
32-11,26532307,-32356
32-12,26536213,-31952
32-13,26540119,-29937
32-14,26544025,-626
32-15,26547931,24257
32-16,26551837,30930
32-17,26555743,15646
32-18,26559649,-14453
32-19,26563555,-31877
32-20,26567461,-31479
32-21,26571367,-21898
32-22,26575273,9077
32-23,26579179,29897
32-24,26583085,29430
32-25,26586991,7290
32-26,26590897,-23988
32-27,26594803,-31461
32-28,26598709,-31068
32-29,26602615,-11642
32-30,26606521,19322
32-31,26610427,32767
32-32,26614333,32358
32-1,26618184,12601
32-2,26622090,-20182
32-3,26625996,-32768
32-4,26629902,-32359
32-5,26633808,-7235
32-6,26637714,22944
32-7,26641620,32767
32-8,26645526,19126
32-9,26649432,-10734
32-10,26653338,-32768
32-11,26657244,-32359
32-12,26661150,-25450
32-13,26665056,5815
32-14,26668962,28963
32-15,26672868,30796
32-16,26676774,10812
32-17,26680680,-20602
32-18,26684586,-32336
32-19,26688492,-31932
32-20,26692398,-14724
32-21,26696304,16110
32-22,26700210,31859
32-23,26704116,25108
32-24,26708022,-992
32-25,26711928,-30625
32-26,26715834,-31869
32-27,26719740,-31471
32-28,26723646,-7147
32-29,26727552,22623
32-30,26731458,32767
32-31,26735364,32358
32-32,26739270,7919
32-1,26743334,-23948
32-2,26747240,-32768
32-3,26751146,-30920
32-4,26755052,-1852
32-5,26758958,28333
32-6,26762864,32767
32-7,26766770,25280
32-8,26770676,-5813
32-9,26774582,-32768
32-10,26778488,-32359
32-11,26782394,-19354
32-12,26786300,10903
32-13,26790206,27302
32-14,26794112,18410
32-15,26798018,-7389
32-16,26801924,-32329
32-17,26805830,-31925
32-18,26809736,-31527
32-19,26813642,-4060
32-20,26817548,22161
32-21,26821454,31201
32-22,26825360,18441
32-23,26829266,-11002
32-24,26833172,-31844
32-25,26837078,-31446
32-26,26840984,-26249
32-27,26844890,2141
32-28,26848796,28447
32-29,26852702,32767
32-30,26856608,29721
32-31,26860514,1111
32-32,26864420,-27156
32-1,26868179,-32768
32-2,26872085,-24527
32-3,26875991,5924
32-4,26879897,32767
32-5,26883803,32358
32-6,26887709,21887
32-7,26891615,-11173
32-8,26895521,-32768
32-9,26899427,-32359
32-10,26903333,-11625
32-11,26907239,16918
32-12,26911145,26724
32-13,26915051,11424
32-14,26918957,-16530
32-15,26922863,-32293
32-16,26926769,-31890
32-17,26930675,-26035
32-18,26934581,3542
32-19,26938487,27117
32-20,26942393,32418
32-21,26946299,15400
32-22,26950205,-15923
32-23,26954111,-31950
32-24,26958017,-31551
32-25,26961923,-17422
32-26,26965829,12531
32-27,26969735,28631
32-28,26973641,23162
32-29,26977547,717
32-30,26981453,-26068
32-31,26985359,-31428
32-32,26989265,-31036
32-1,26993176,-10439
32-2,26997082,17337
32-3,27000988,32767
32-4,27004894,32358
32-5,27008800,18517
32-6,27012706,-15589
32-7,27016612,-32768
32-8,27020518,-30007
32-9,27024424,-4142
32-10,27028330,19689
32-11,27032236,20976
32-12,27036142,-132
32-13,27040048,-27120
32-14,27043954,-32102
32-15,27047860,-31701
32-16,27051766,-17634
32-17,27055672,11234
32-18,27059578,30583
32-19,27063484,30365
32-20,27067390,7824
32-21,27071296,-23665
32-22,27075202,-31790
32-23,27079108,-31393
32-24,27083014,-9529
32-25,27086920,20286
32-26,27090826,32461
32-27,27094732,21447
32-28,27098638,-6462
32-29,27102544,-31730
32-30,27106450,-31333
32-31,27110356,-24979
32-32,27114262,1895
32-1,27118174,28202
32-2,27122080,32767
32-3,27125986,31913
32-4,27129892,4353
32-5,27133798,-27670
32-6,27137704,-32768
32-7,27141610,-24029
32-8,27145516,4117
32-9,27149422,21855
32-10,27153328,14848
32-11,27157234,-9344
32-12,27161140,-32454
32-13,27165046,-32048
32-14,27168952,-31648
32-15,27172858,-9665
32-16,27176764,17972
32-17,27180670,32767
32-18,27184576,26969
32-19,27188482,145
32-20,27192388,-30543
32-21,27196294,-32388
32-22,27200200,-31218
32-23,27204106,-1294
32-24,27208012,24919
32-25,27211918,29751
32-26,27215824,12075
32-27,27219730,-18191
32-28,27223636,-32186
32-29,27227542,-31784
32-30,27231448,-18816
32-31,27235354,10855
32-32,27239260,32767
32-1,27243172,32455
32-2,27247078,23825
32-3,27250984,-7900
32-4,27254890,-32768
32-5,27258796,-32359
32-6,27262702,-16453
32-7,27266608,13513
32-8,27270514,27764
32-9,27274420,16444
32-10,27278326,-10608
32-11,27282232,-32340
32-12,27286138,-31936
32-13,27290044,-29968
32-14,27293950,-793
32-15,27297856,24018
32-16,27301762,30830
32-17,27305668,15734
32-18,27309574,-14288
32-19,27313480,-31858
32-20,27317386,-31460
32-21,27321292,-22058
32-22,27325198,8864
32-23,27329104,29829
32-24,27333010,29568
32-25,27336916,7525
32-26,27340822,-23751
32-27,27344728,-31444
32-28,27348634,-31051
32-29,27352540,-11624
32-30,27356446,19379
32-31,27360352,32767
32-32,27364258,32358
32-1,27368322,13138
32-2,27372228,-19545
32-3,27376134,-32768
32-4,27380040,-32359
32-5,27383946,-12267
32-6,27387852,19830
32-7,27391758,32767
32-8,27395664,32358
32-9,27399570,13376
32-10,27403476,-20379
32-11,27407382,-32768
32-12,27411288,-27783
32-13,27415194,250
32-14,27419100,23501
32-15,27423006,22494
32-16,27426912,-452
32-17,27430818,-28400
32-18,27434724,-32232
32-19,27438630,-31829
32-20,27442536,-13309
32-21,27446442,15252
32-22,27450348,30299
32-23,27454254,24318
32-24,27458160,-1556
32-25,27462066,-30817
32-26,27465972,-31736
32-27,27469878,-31339
32-28,27473784,-7442
32-29,27477690,22151
32-30,27481596,32767
32-31,27485502,32358
32-32,27489408,9077
32-1,27493167,-22966
32-2,27497073,-32768
32-3,27500979,-31250
32-4,27504885,-3139
32-5,27508791,27703
32-6,27512697,32767
32-7,27516603,28866
32-8,27520509,-1373
32-9,27524415,-32079
32-10,27528321,-32713
32-11,27532227,-20308
32-12,27536133,9367
32-13,27540039,25942
32-14,27543945,16800
32-15,27547851,-9113
32-16,27551757,-32589
32-17,27555663,-32182
32-18,27559569,-31780
32-19,27563475,-4691
32-20,27567381,21566
32-21,27571287,31414
32-22,27575193,19416
32-23,27579099,-9970
32-24,27583005,-32106
32-25,27586911,-31705
32-26,27590817,-26856
32-27,27594723,971
32-28,27598629,27814
32-29,27602535,32767
32-30,27606441,32358
32-31,27610347,5577
32-32,27614253,-23969
32-1,27618165,-32768
32-2,27622071,-24699
32-3,27625977,5921
32-4,27629883,32767
32-5,27633789,32417
32-6,27637695,17510
32-7,27641601,-15766
32-8,27645507,-32768
32-9,27649413,-32359
32-10,27653319,-11009
32-11,27657225,17612
32-12,27661131,27104
32-13,27665037,12190
32-14,27668943,-15626
32-15,27672849,-32335
32-16,27676755,-31931
32-17,27680661,-25680
32-18,27684567,4163
32-19,27688473,26794
32-20,27692379,30242
32-21,27696285,11834
32-22,27700191,-19083
32-23,27704097,-31888
32-24,27708003,-31489
32-25,27711909,-17677
32-26,27715815,12582
32-27,27719721,31109
32-28,27723627,29585
32-29,27727533,8611
32-30,27731439,-20645
32-31,27735345,-31643
32-32,27739251,-31247
32-1,27743162,-12108
32-2,27747068,17706
32-3,27750974,32767
32-4,27754880,32358
32-5,27758786,14011
32-6,27762692,-19899
32-7,27766598,-32768
32-8,27770504,-31040
32-9,27774410,-3246
32-10,27778316,22218
32-11,27782222,24790
32-12,27786128,4363
32-13,27790034,-24045
32-14,27793940,-32274
32-15,27797846,-31870
32-16,27801752,-17812
32-17,27805658,11568
32-18,27809564,29345
32-19,27813470,26467
32-20,27817376,2802
32-21,27821282,-27512
32-22,27825188,-31785
32-23,27829094,-31388
32-24,27833000,-8104
32-25,27836906,20694
32-26,27840812,31890
32-27,27844718,20587
32-28,27848624,-7427
32-29,27852530,-31718
32-30,27856436,-31322
32-31,27860342,-23890
32-32,27864248,2921
32-1,27868160,28554
32-2,27872066,32767
32-3,27875972,31564
32-4,27879878,4306
32-5,27883784,-26905
32-6,27887690,-32768
32-7,27891596,-26611
32-8,27895502,3944
32-9,27899408,27708
32-10,27903314,26794
32-11,27907220,3782
32-12,27911126,-26445
32-13,27915032,-32476
32-14,27918938,-32070
32-15,27922844,-10568
32-16,27926750,17354
32-17,27930656,28013
32-18,27934562,16769
32-19,27938468,-10527
32-20,27942374,-32184
32-21,27946280,-31782
32-22,27950186,-29326
32-23,27954092,155
32-24,27957998,25885
32-25,27961904,32767
32-26,27965810,17915
32-27,27969716,-13089
32-28,27973622,-32742
32-29,27977528,-32333
32-30,27981434,-20196
32-31,27985340,10706
32-32,27989246,32767
32-1,27993158,32358
32-2,27997064,20116
32-3,28000970,-12018
32-4,28004876,-32768
32-5,28008782,-32359
32-6,28012688,-15882
32-7,28016594,14248
32-8,28020500,27924
32-9,28024406,16774
32-10,28028312,-10120
32-11,28032218,-32368
32-12,28036124,-31964
32-13,28040030,-30665
32-14,28043936,-1717
32-15,28047842,24316
32-16,28051748,32767
32-17,28055654,19611
32-18,28059560,-10535
32-19,28063466,-32521
32-20,28067372,-32114
32-21,28071278,-23870
32-22,28075184,7391
32-23,28079090,29096
32-24,28082996,28718
32-25,28086902,6599
32-26,28090808,-24481
32-27,28094714,-32008
32-28,28098620,-31608
32-29,28102526,-11797
32-30,28106432,19295
32-31,28110338,32767
32-32,28114244,32358
32-1,28118155,9894
32-2,28122061,-22460
32-3,28125967,-32768
32-4,28129873,-32359
32-5,28133779,-8737
32-6,28137685,22535
32-7,28141591,32767
32-8,28145497,25982
32-9,28149403,-2833
32-10,28153309,-32768
32-11,28157215,-32359
32-12,28161121,-26635
32-13,28165027,4319
32-14,28168933,27255
32-15,28172839,26818
32-16,28176745,5446
32-17,28180651,-24420
32-18,28184557,-32117
32-19,28188463,-31716
32-20,28192369,-14058
32-21,28196275,15576
32-22,28200181,30597
32-23,28204087,24054
32-24,28207993,-1814
32-25,28211899,-30968
32-26,28215805,-31614
32-27,28219711,-31219
32-28,28223617,-7303
32-29,28227523,22188
32-30,28231429,32767
32-31,28235335,32358
32-32,28239241,9093
32-1,28243153,-22908
32-2,28247059,-32768
32-3,28250965,-31014
32-4,28254871,-2243
32-5,28258777,28119
32-6,28262683,32767
32-7,28266589,25642
32-8,28270495,-5301
32-9,28274401,-32768
32-10,28278307,-32359
32-11,28282213,-19785
32-12,28286119,10499
32-13,28290025,27263
32-14,28293931,18705
32-15,28297837,-6936
32-16,28301743,-32328
32-17,28305649,-31924
32-18,28309555,-31525
32-19,28313461,-4636
32-20,28317367,21607
32-21,28321273,30781
32-22,28325179,18296
32-23,28329085,-10873
32-24,28332991,-31823
32-25,28336897,-31426
32-26,28340803,-26667
32-27,28344709,1703
32-28,28348615,28163
32-29,28352521,32767
32-30,28356427,29318
32-31,28360333,484
32-32,28364239,-27843
32-1,28368150,-32768
32-2,28372056,-24852
32-3,28375962,5578
32-4,28379868,32767
32-5,28383774,32425
32-6,28387680,22819
32-7,28391586,-10090
32-8,28395492,-32768
32-9,28399398,-32359
32-10,28403304,-12108
32-11,28407210,16411
32-12,28411116,26472
32-13,28415022,11275
32-14,28418928,-16516
32-15,28422834,-32275
32-16,28426740,-31872
32-17,28430646,-25741
32-18,28434552,3749
32-19,28438458,26227
32-20,28442364,29858
32-21,28446270,11659
32-22,28450176,-19050
32-23,28454082,-31809
32-24,28457988,-31412
32-25,28461894,-17747
32-26,28465800,12353
32-27,28469706,30685
32-28,28473612,28912
32-29,28477518,7857
32-30,28481424,-21200
32-31,28485330,-31532
32-32,28489236,-31138
32-1,28493148,-12167
32-2,28497054,17393
32-3,28500960,32767
32-4,28504866,32358
32-5,28508772,15448
32-6,28512678,-18475
32-7,28516584,-32768
32-8,28520490,-31091
32-9,28524396,-3555
32-10,28528302,22228
32-11,28532208,25303
32-12,28536114,4923
32-13,28540020,-23687
32-14,28543926,-32288
32-15,28547832,-31884
32-16,28551738,-18106
32-17,28555644,11432
32-18,28559550,29552
32-19,28563456,27081
32-20,28567362,3643
32-21,28571268,-26871
32-22,28575174,-31822
32-23,28579080,-31425
32-24,28582986,-8666
32-25,28586892,20497
32-26,28590798,32336
32-27,28594704,21618
32-28,28598610,-6379
32-29,28602516,-31777
32-30,28606422,-31380
32-31,28610328,-25001
32-32,28614234,2665
32-1,28618146,28727
32-2,28622052,32767
32-3,28625958,28821
32-4,28629864,162
32-5,28633770,-30687
32-6,28637676,-32748
32-7,28641582,-24421
32-8,28645488,5725
32-9,28649394,25726
32-10,28653300,20788
32-11,28657206,-3293
32-12,28661112,-30878
32-13,28665018,-32263
32-14,28668924,-31860
32-15,28672830,-9595
32-16,28676736,18354
32-17,28680642,31084
32-18,28684548,22292
32-19,28688454,-5557
32-20,28692360,-32170
32-21,28696266,-31768
32-22,28700172,-25815
32-23,28704078,1510
32-24,28707984,18654
32-25,28711890,12804
32-26,28715796,-9348
32-27,28719702,-31346
32-28,28723608,-30954
32-29,28727514,-24889
32-30,28731420,-1411
32-31,28735326,17602
32-32,28739232,31381
32-1,28743174,32767
32-2,28747080,32358
32-3,28750986,25593
32-4,28754892,936
32-5,28758798,-16044
32-6,28762704,-14027
32-7,28766610,1528
32-8,28770516,11180
32-9,28774422,2644
32-10,28778328,-20428
32-11,28782234,-32768
32-12,28786140,-32359
32-13,28790046,-28617
32-14,28793952,-1556
32-15,28797858,21953
32-16,28801764,29953
32-17,28805670,15125
32-18,28809576,-14800
32-19,28813482,-32233
32-20,28817388,-31830
32-21,28821294,-23121
32-22,28825200,7831
32-23,28829106,29956
32-24,28833012,31565
32-25,28836918,10760
32-26,28840824,-21147
32-27,28844730,-31882
32-28,28848636,-31484
32-29,28852542,-12851
32-30,28856448,18862
32-31,28860354,32767
32-32,28864260,32358
32-1,28868141,8834
32-2,28872047,-23360
32-3,28875953,-32768
32-4,28879859,-32359
32-5,28883765,-8926
32-6,28887671,22309
32-7,28891577,32767
32-8,28895483,26728
32-9,28899389,-1810
32-10,28903295,-32670
32-11,28907201,-32673
32-12,28911107,-26688
32-13,28915013,3879
32-14,28918919,25810
32-15,28922825,24024
32-16,28926731,2007
32-17,28930637,-26855
32-18,28934543,-32294
32-19,28938449,-31891
32-20,28942355,-14423
32-21,28946261,15321
32-22,28950167,32207
32-23,28954073,28351
32-24,28957979,3301
32-25,28961885,-27579
32-26,28965791,-31959
32-27,28969697,-31560
32-28,28973603,-8810
32-29,28977509,21690
32-30,28981415,32767
32-31,28985321,32358
32-32,28989227,9505
32-1,28993139,-22609
32-2,28997045,-32768
32-3,29000951,-31393
32-4,29004857,-3425
32-5,29008763,27490
32-6,29012669,32767
32-7,29016575,28875
32-8,29020481,-1446
32-9,29024387,-32257
32-10,29028293,-32709
32-11,29032199,-20391
32-12,29036105,8119
32-13,29040011,23066
32-14,29043917,12967
32-15,29047823,-12317
32-16,29051729,-32445
32-17,29055635,-32040
32-18,29059541,-31640
32-19,29063447,-4985
32-20,29067353,21463
32-21,29071259,32767
32-22,29075165,22572
32-23,29079071,-6563
32-24,29082977,-32469
32-25,29086883,-32063
32-26,29090789,-28521
32-27,29094695,-233
32-28,29098601,27399
32-29,29102507,32767
32-30,29106413,30816
32-31,29110319,2566
32-32,29114225,-26512
32-1,29118136,-32768
32-2,29122042,-25492
32-3,29125948,4779
32-4,29129854,32589
32-5,29133760,32618
32-6,29137666,23059
32-7,29141572,-10117
32-8,29145478,-32768
32-9,29149384,-32359
32-10,29153290,-11837
32-11,29157196,15106
32-12,29161102,23035
32-13,29165008,6818
32-14,29168914,-19952
32-15,29172820,-32121
32-16,29176726,-31720
32-17,29180632,-25236
32-18,29184538,3557
32-19,29188444,26835
32-20,29192350,32735
32-21,29196256,15996
32-22,29200162,-15247
32-23,29204068,-31809
32-24,29207974,-31411
32-25,29211880,-19165
32-26,29215786,11297
32-27,29219692,30740
32-28,29223598,29868
32-29,29227504,9941
32-30,29231410,-18839
32-31,29235316,-31569
32-32,29239222,-31175
32-1,29243134,-12673
32-2,29247040,16763
32-3,29250946,32767
32-4,29254852,32358
32-5,29258758,16024
32-6,29262664,-18002
32-7,29266570,-32768
32-8,29270476,-31273
32-9,29274382,-4165
32-10,29278288,21307
32-11,29282194,24174
32-12,29286100,3852
32-13,29290006,-24315
32-14,29293912,-32231
32-15,29297818,-31828
32-16,29301724,-18090
32-17,29305630,11098
32-18,29309536,29006
32-19,29313442,26532
32-20,29317348,3182
32-21,29321254,-27069
32-22,29325160,-31740
32-23,29329066,-31344
32-24,29332972,-8774
32-25,29336878,20230
32-26,29340784,32158
32-27,29344690,21636
32-28,29348596,-6080
32-29,29352502,-31694
32-30,29356408,-31298
32-31,29360314,-24524
32-32,29364220,1956
32-1,29368131,28038
32-2,29372037,32767
32-3,29375943,32358
32-4,29379849,5428
32-5,29383755,-26582
32-6,29387661,-32768
32-7,29391567,-25090
32-8,29395473,4308
32-9,29399379,24960
32-10,29403285,20430
32-11,29407191,-3828
32-12,29411097,-31156
32-13,29415003,-32231
32-14,29418909,-31829
32-15,29422815,-9778
32-16,29426721,17819
32-17,29430627,30531
32-18,29434533,21695
32-19,29438439,-5690
32-20,29442345,-32115
32-21,29446251,-31713
32-22,29450157,-29992
32-23,29454063,-141
32-24,29457969,25721
32-25,29461875,31845
32-26,29465781,15458
32-27,29469687,-15228
32-28,29473593,-31665
32-29,29477499,-31270
32-30,29481405,-18147
32-31,29485311,11577
32-32,29489217,32767
32-1,29493190,32358
32-2,29497096,24404
32-3,29501002,-7021
32-4,29504908,-32768
32-5,29508814,-32359
32-6,29512720,-16888
32-7,29516626,13233
32-8,29520532,28000
32-9,29524438,17105
32-10,29528344,-9982
32-11,29532250,-32350
32-12,29536156,-31945
32-13,29540062,-30542
32-14,29543968,-1467
32-15,29547874,24322
32-16,29551780,32739
32-17,29555686,18918
32-18,29559592,-11323
32-19,29563498,-31957
32-20,29567404,-31558
32-21,29571310,-22829
32-22,29575216,8472
32-23,29579122,29907
32-24,29583028,29434
32-25,29586934,7361
32-26,29590840,-23856
32-27,29594746,-31522
32-28,29598652,-31128
32-29,29602558,-12044
32-30,29606464,19029
32-31,29610370,32767
32-32,29614276,32358
32-1,29618127,11893
32-2,29622033,-20667
32-3,29625939,-32768
32-4,29629845,-32359
32-5,29633751,-9171
32-6,29637657,22344
32-7,29641563,32767
32-8,29645469,26290
32-9,29649375,-2465
32-10,29653281,-32768
32-11,29657187,-32359
32-12,29661093,-25972
32-13,29664999,4484
32-14,29668905,25978
32-15,29672811,23697
32-16,29676717,1568
32-17,29680623,-27080
32-18,29684529,-31991
32-19,29688435,-31591
32-20,29692341,-13102
32-21,29696247,15907
32-22,29700153,30795
32-23,29704059,24482
32-24,29707965,-1612
32-25,29711871,-30838
32-26,29715777,-31519
32-27,29719683,-31125
32-28,29723589,-6831
32-29,29727495,22731
32-30,29731401,32767
32-31,29735307,32358
32-32,29739213,8186
32-1,29743124,-23820
32-2,29747030,-32768
32-3,29750936,-31079
32-4,29754842,-4258
32-5,29758748,26704
32-6,29762654,32767
32-7,29766560,32358
32-8,29770466,6274
32-9,29774372,-26013
32-10,29778278,-32768
32-11,29782184,-20782
32-12,29786090,6368
32-13,29789996,21732
32-14,29793902,11938
32-15,29797808,-13596
32-16,29801714,-32431
32-17,29805620,-32026
32-18,29809526,-31626
32-19,29813432,-5219
32-20,29817338,20997
32-21,29821244,32767
32-22,29825150,22730
32-23,29829056,-6298
32-24,29832962,-32333
32-25,29836868,-31929
32-26,29840774,-28078
32-27,29844680,1123
32-28,29848586,27790
32-29,29852492,32767
32-30,29856398,24715
32-31,29860304,-4599
32-32,29864210,-31175
32-1,29868122,-32631
32-2,29872028,-24016
32-3,29875934,6333
32-4,29879840,32767
32-5,29883746,32631
32-6,29887652,23513
32-7,29891558,-9535
32-8,29895464,-32768
32-9,29899370,-32359
32-10,29903276,-12123
32-11,29907182,15419
32-12,29911088,24209
32-13,29914994,8470
32-14,29918900,-18753
32-15,29922806,-32172
32-16,29926712,-31770
32-17,29930618,-26192
32-18,29934524,2554
32-19,29938430,26983
32-20,29942336,32767
32-21,29946242,18961
32-22,29950148,-12365
32-23,29954054,-32768
32-24,29957960,-32359
32-25,29961866,-20554
32-26,29965772,10328
32-27,29969678,29523
32-28,29973584,26598
32-29,29977490,4853
32-30,29981396,-23920
32-31,29985302,-32292
32-32,29989208,-31889
32-1,29993120,-13337
32-2,29997026,16472
32-3,30000932,32767
32-4,30004838,32358
32-5,30008744,12057
32-6,30012650,-16721
32-7,30016556,-32768
32-8,30020462,-32359
32-9,30024368,-31035
32-10,30028274,-27025
32-11,30032180,-26874
32-12,30036086,-28842
32-13,30039992,-30534
32-14,30043898,-30153
32-15,30047804,-29665
32-16,30051710,-14414
32-17,30055616,9009
32-18,30059522,32609
32-19,30063428,32767
32-20,30067334,32358
32-21,30071240,13134
32-22,30075146,-16103
32-23,30079052,-27545
32-24,30082958,-15458
32-25,30086864,7778
32-26,30090770,18717
32-27,30094676,5753
32-28,30098582,-21133
32-29,30102488,-32741
32-30,30106394,-32332
32-31,30110300,-24750
32-32,30114206,358
32-1,30118117,25168
32-2,30122023,32767
32-3,30125929,32358
32-4,30129835,5453
32-5,30133741,-26528
32-6,30137647,-32768
32-7,30141553,-25638
32-8,30145459,3799
32-9,30149365,25158
32-10,30153271,21437
32-11,30157177,-2499
32-12,30161083,-30291
32-13,30164989,-32261
32-14,30168895,-31858
32-15,30172801,-10370
32-16,30176707,17591
32-17,30180613,30698
32-18,30184519,22289
32-19,30188425,-4878
32-20,30192331,-32153
32-21,30196237,-31751
32-22,30200143,-30362
32-23,30204049,-606
32-24,30207955,25391
32-25,30211861,31663
32-26,30215767,15511
32-27,30219673,-15019
32-28,30223579,-31689
32-29,30227485,-31293
32-30,30231391,-18750
32-31,30235297,10888
32-32,30239203,32767
32-1,30243176,32481
32-2,30247082,24911
32-3,30250988,-6390
32-4,30254894,-32768
32-5,30258800,-32359
32-6,30262706,-17218
32-7,30266612,12937
32-8,30270518,28048
32-9,30274424,17428
32-10,30278330,-9516
32-11,30282236,-32352
32-12,30286142,-31948
32-13,30290048,-30617
32-14,30293954,-1554
32-15,30297860,23661
32-16,30301766,30980
32-17,30305672,16383
32-18,30309578,-13485
32-19,30313484,-31868
32-20,30317390,-31470
32-21,30321296,-22719
32-22,30325202,8154
32-23,30329108,29341
32-24,30333014,29346
32-25,30336920,7607
32-26,30340826,-23576
32-27,30344732,-31431
32-28,30348638,-31038
32-29,30352544,-11961
32-30,30356450,19055
32-31,30360356,32767
32-32,30364262,32358
32-1,30368113,12014
32-2,30372019,-20671
32-3,30375925,-32768
32-4,30379831,-32359
32-5,30383737,-8011
32-6,30387643,22327
32-7,30391549,32767
32-8,30395455,19881
32-9,30399361,-9636
32-10,30403267,-32768
32-11,30407173,-32359
32-12,30411079,-26133
32-13,30414985,4962
32-14,30418891,28141
32-15,30422797,29899
32-16,30426703,10016
32-17,30430609,-21025
32-18,30434515,-32280
32-19,30438421,-31877
32-20,30442327,-15384
32-21,30446233,15396
32-22,30450139,31814
32-23,30454045,26100
32-24,30457951,497
32-25,30461857,-29567
32-26,30465763,-31841
32-27,30469669,-31443
32-28,30473575,-7912
32-29,30477481,22118
32-30,30481387,32767
32-31,30485293,32358
32-32,30489199,8708
32-1,30493110,-23303
32-2,30497016,-32768
32-3,30500922,-31384
32-4,30504828,-3287
32-5,30508734,27663
32-6,30512640,32767
32-7,30516546,26809
32-8,30520452,-665
32-9,30524358,-25994
32-10,30528264,-32768
32-11,30532170,-32359
32-12,30536076,-29232
32-13,30539982,-26807
32-14,30543888,-27782
32-15,30547794,-30226
32-16,30551700,-30531
32-17,30555606,-30149
32-18,30559512,-24823
32-19,30563418,-5598
32-20,30567324,19631
32-21,30571230,32767
32-22,30575136,32358
32-23,30579042,28750
32-24,30582948,-418
32-25,30586854,-25407
32-26,30590760,-28571
32-27,30594666,-6888
32-28,30598572,21042
32-29,30602478,31475
32-30,30606384,14888
32-31,30610290,-16620
32-32,30614196,-32768
32-1,30618108,-32359
32-2,30622014,-22378
32-3,30625920,8357
32-4,30629826,32313
32-5,30633732,32767
32-6,30637638,19364
32-7,30641544,-13727
32-8,30645450,-32768
32-9,30649356,-32359
32-10,30653262,-12157
32-11,30657168,17090
32-12,30661074,27965
32-13,30664980,14007
32-14,30668886,-13860
32-15,30672792,-32369
32-16,30676698,-31965
32-17,30680604,-26598
32-18,30684510,3324
32-19,30688416,26358
32-20,30692322,30037
32-21,30696228,12007
32-22,30700134,-18780
32-23,30704040,-31897
32-24,30707946,-31498
32-25,30711852,-19270
32-26,30715758,10877
32-27,30719664,31865
32-28,30723570,32767
32-29,30727476,15579
32-30,30731382,-14517
32-31,30735288,-32768
32-32,30739194,-32359
32-1,30743105,-15366
32-2,30747011,15602
32-3,30750917,32767
32-4,30754823,32358
32-5,30758729,10480
32-6,30762635,-23171
32-7,30766541,-32768
32-8,30770447,-31548
32-9,30774353,-3131
32-10,30778259,22128
32-11,30782165,24564
32-12,30786071,4733
32-13,30789977,-23528
32-14,30793883,-32276
32-15,30797789,-31873
32-16,30801695,-19193
32-17,30805601,10555
32-18,30809507,30290
32-19,30813413,30098
32-20,30817319,8006
32-21,30821225,-23661
32-22,30825131,-31928
32-23,30829037,-31529
32-24,30832943,-9471
32-25,30836849,19480
32-26,30840755,29894
32-27,30844661,17137
32-28,30848567,-10482
32-29,30852473,-31719
32-30,30856379,-31322
32-31,30860285,-22393
32-32,30864191,3765
32-1,30868103,28445
32-2,30872009,32767
32-3,30875915,31843
32-4,30879821,4692
32-5,30883727,-27153
32-6,30887633,-32768
32-7,30891539,-24877
32-8,30895445,3688
32-9,30899351,22724
32-10,30903257,16956
32-11,30907163,-7095
32-12,30911069,-32503
32-13,30914975,-32097
32-14,30918881,-31696
32-15,30922787,-10171
32-16,30926693,17700
32-17,30930599,32767
32-18,30934505,26628
32-19,30938411,-130
32-20,30942317,-30375
32-21,30946223,-31776
32-22,30950129,-31186
32-23,30954035,-1482
32-24,30957941,25277
32-25,30961847,31421
32-26,30965753,14764
32-27,30969659,-15629
32-28,30973565,-31671
32-29,30977471,-31275
32-30,30981377,-18186
32-31,30985283,11366
32-32,30989189,32767
32-1,30993345,32358
32-2,30997251,24735
32-3,31001157,-6727
32-4,31005063,-32768
32-5,31008969,-32359
32-6,31012875,-16806
32-7,31016781,12087
32-8,31020687,24985
32-9,31024593,12797
32-10,31028499,-13706
32-11,31032405,-32199
32-12,31036311,-31796
32-13,31040217,-25935
32-14,31044123,383
32-15,31048029,16793
32-16,31051935,13922
32-17,31055841,-4759
32-18,31059747,-28769
32-19,31063653,-31047
32-20,31067559,-30659
32-21,31071465,-19228
32-22,31075371,5009
32-23,31079277,29819
32-24,31083183,32767
32-25,31087089,32358
32-26,31090995,6438
32-27,31094901,-23346
32-28,31098807,-32768
32-29,31102713,-18809
32-30,31106619,12515
32-31,31110525,32767
32-32,31114431,30629
32-1,31118098,3904
32-2,31122004,-27287
32-3,31125910,-32768
32-4,31129816,-32359
32-5,31133722,-7602
32-6,31137628,22138
32-7,31141534,32767
32-8,31145440,22685
32-9,31149346,-6269
32-10,31153252,-32768
32-11,31157158,-32359
32-12,31161064,-26762
32-13,31164970,4188
32-14,31168876,27158
32-15,31172782,27886
32-16,31176688,7441
32-17,31180594,-22844
32-18,31184500,-32170
32-19,31188406,-31768
32-20,31192312,-14972
32-21,31196218,15166
32-22,31200124,31035
32-23,31204030,25184
32-24,31207936,-344
32-25,31211842,-30017
32-26,31215748,-31699
32-27,31219654,-31303
32-28,31223560,-8061
32-29,31227466,21724
32-30,31231372,32767
32-31,31235278,32358
32-32,31239184,10229
32-1,31243096,-21965
32-2,31247002,-32768
32-3,31250908,-31691
32-4,31254814,-3377
32-5,31258720,27332
32-6,31262626,32767
32-7,31266532,26073
32-8,31270438,-4627
32-9,31274344,-32768
32-10,31278250,-32359
32-11,31282156,-20428
32-12,31286062,9873
32-13,31289968,27135
32-14,31293874,19150
32-15,31297780,-6252
32-16,31301686,-32325
32-17,31305592,-31921
32-18,31309498,-31522
32-19,31313404,-5402
32-20,31317310,21334
32-21,31321216,31403
32-22,31325122,19762
32-23,31329028,-9256
32-24,31332934,-31853
32-25,31336840,-31455
32-26,31340746,-27437
32-27,31344652,933
32-28,31348558,27792
32-29,31352464,32767
32-30,31356370,29358
32-31,31360276,629
32-32,31364182,-27872
32-1,31368094,-32768
32-2,31372000,-25317
32-3,31375906,4926
32-4,31379812,32577
32-5,31383718,32614
32-6,31387624,23970
32-7,31391530,-8708
32-8,31395436,-32768
32-9,31399342,-32359
32-10,31403248,-12698
32-11,31407154,16145
32-12,31411060,27031
32-13,31414966,12397
32-14,31418872,-15505
32-15,31422778,-32299
32-16,31426684,-31895
32-17,31430590,-26657
32-18,31434496,2891
32-19,31438402,26406
32-20,31442308,31510
32-21,31446214,14414
32-22,31450120,-16644
32-23,31454026,-31898
32-24,31457932,-31499
32-25,31461838,-19162
32-26,31465744,11354
32-27,31469650,31309
32-28,31473556,31511
32-29,31477462,11910
32-30,31481368,-17571
32-31,31485274,-31725
32-32,31489180,-31329
32-1,31493091,-13009
32-2,31496997,17279
32-3,31500903,32767
32-4,31504809,32358
32-5,31508715,10891
32-6,31512621,-22736
32-7,31516527,-32768
32-8,31520433,-31730
32-9,31524339,-3344
32-10,31528245,22345
32-11,31532151,25352
32-12,31536057,5714
32-13,31539963,-22817
32-14,31543869,-32305
32-15,31547775,-31901
32-16,31551681,-18884
32-17,31555587,10889
32-18,31559493,29629
32-19,31563399,27924
32-20,31567305,4947
32-21,31571211,-25861
32-22,31575117,-31864
32-23,31579023,-31466
32-24,31582929,-9455
32-25,31586835,19989
32-26,31590741,32215
32-27,31594647,21875
32-28,31598553,-5699
32-29,31602459,-31811
32-30,31606365,-31414
32-31,31610271,-25132
32-32,31614177,1314
32-1,31618211,27595
32-2,31622117,32767
32-3,31626023,32318
32-4,31629929,5365
32-5,31633835,-26690
32-6,31637741,-32768
32-7,31641647,-25549
32-8,31645553,3927
32-9,31649459,24969
32-10,31653365,21028
32-11,31657271,-2979
32-12,31661177,-30464
32-13,31665083,-32248
32-14,31668989,-31845
32-15,31672895,-10856
32-16,31676801,17539
32-17,31680707,32010
32-18,31684613,25004
32-19,31688519,-1823
32-20,31692425,-31795
32-21,31696331,-31825
32-22,31700237,-30501
32-23,31704143,-759
32-24,31708049,24637
32-25,31711955,28745
32-26,31715861,10624
32-27,31719767,-19159
32-28,31723673,-31600
32-29,31727579,-31205
32-30,31731485,-15567
32-31,31735391,11844
32-32,31739297,32767
32-1,31743209,32698
32-2,31747115,30713
32-3,31751021,1414
32-4,31754927,-28293
32-5,31758833,-32768
32-6,31762739,-18430
32-7,31766645,9680
32-8,31770551,24011
32-9,31774457,12699
32-10,31778363,-14044
32-11,31782269,-32535
32-12,31786175,-32129
32-13,31790081,-30574
32-14,31793987,-2438
32-15,31797893,23288
32-16,31801799,32767
32-17,31805705,20497
32-18,31809611,-9420
32-19,31813517,-32768
32-20,31817423,-32359
32-21,31821329,-24133
32-22,31825235,6755
32-23,31829141,27485
32-24,31833047,25517
32-25,31836953,2824
32-26,31840859,-27203
32-27,31844765,-32098
32-28,31848671,-31697
32-29,31852577,-11930
32-30,31856483,18415
32-31,31860389,32767
32-32,31864295,32358
32-1,31868084,12993
32-2,31871990,-19649
32-3,31875896,-32768
32-4,31879802,-32359
32-5,31883708,-9528
32-6,31887614,21770
32-7,31891520,32767
32-8,31895426,23875
32-9,31899332,-5075
32-10,31903238,-32768
32-11,31907144,-32359
32-12,31911050,-27084
32-13,31914956,3840
32-14,31918862,27198
32-15,31922768,28082
32-16,31926674,7663
32-17,31930580,-22640
32-18,31934486,-32169
32-19,31938392,-31767
32-20,31942298,-15070
32-21,31946204,15087
32-22,31950110,30944
32-23,31954016,25061
32-24,31957922,-409
32-25,31961828,-30050
32-26,31965734,-31692
32-27,31969640,-31296
32-28,31973546,-8356
32-29,31977452,21371
32-30,31981358,32767
32-31,31985264,32358
32-32,31989170,10984
32-1,31993082,-21251
32-2,31996988,-32768
32-3,32000894,-31574
32-4,32004800,-3513
32-5,32008706,27337
32-6,32012612,32767
32-7,32016518,26908
32-8,32020424,-3606
32-9,32024330,-32768
32-10,32028236,-32359
32-11,32032142,-20812
32-12,32036048,9443
32-13,32039954,27012
32-14,32043860,19223
32-15,32047766,-6127
32-16,32051672,-32316
32-17,32055578,-31912
32-18,32059484,-31513
32-19,32063390,-5756
32-20,32067296,21049
32-21,32071202,31350
32-22,32075108,20002
32-23,32079014,-8864
32-24,32082920,-31844
32-25,32086826,-31446
32-26,32090732,-27714
32-27,32094638,4
32-28,32098544,27240
32-29,32102450,32767
32-30,32106356,32297
32-31,32110262,4585
32-32,32114168,-25035
32-1,32118079,-32768
32-2,32121985,-26026
32-3,32125891,4081
32-4,32129797,32226
32-5,32133703,32638
32-6,32137609,22597
32-7,32141515,-10172
32-8,32145421,-32768
32-9,32149327,-32359
32-10,32153233,-12893
32-11,32157139,16112
32-12,32161045,27182
32-13,32164951,12926
32-14,32168857,-14805
32-15,32172763,-32313
32-16,32176669,-31909
32-17,32180575,-26763
32-18,32184481,2780
32-19,32188387,25856
32-20,32192293,30134
32-21,32196199,12613
32-22,32200105,-18038
32-23,32204011,-31845
32-24,32207917,-31447
32-25,32211823,-18964
32-26,32215729,11094
32-27,32219635,30633
32-28,32223541,30840
32-29,32227447,11607
32-30,32231353,-17423
32-31,32235259,-31654
32-32,32239165,-31258
32-1,32243199,-13656
32-2,32247105,15874
32-3,32251011,32767
32-4,32254917,32358
32-5,32258823,17258
32-6,32262729,-16739
32-7,32266635,-32768
32-8,32270541,-31565
32-9,32274447,-4736
32-10,32278353,21168
32-11,32282259,24761
32-12,32286165,4772
32-13,32290071,-23527
32-14,32293977,-32247
32-15,32297883,-31844
32-16,32301789,-18841
32-17,32305695,10439
32-18,32309601,28690
32-19,32313507,26647
32-20,32317413,3603
32-21,32321319,-26615
32-22,32325225,-31747
32-23,32329131,-31351
32-24,32333037,-9851
32-25,32336943,19815
32-26,32340849,32767
32-27,32344755,24017
32-28,32348661,-2974
32-29,32352567,-29846
32-30,32356473,-31943
32-31,32360379,-24696
32-32,32364285,1407
32-1,32368075,27552
32-2,32371981,32767
32-3,32375887,31959
32-4,32379793,5151
32-5,32383699,-26800
32-6,32387605,-32768
32-7,32391511,-25657
32-8,32395417,3924
32-9,32399323,25102
32-10,32403229,21318
32-11,32407135,-2600
32-12,32411041,-30216
32-13,32414947,-32260
32-14,32418853,-31857
32-15,32422759,-11072
32-16,32426665,17414
32-17,32430571,31998
32-18,32434477,25146
32-19,32438383,-1711
32-20,32442289,-31494
32-21,32446195,-31839
32-22,32450101,-31043
32-23,32454007,-1215
32-24,32457913,25322
32-25,32461819,31505
32-26,32465725,15110
32-27,32469631,-15379
32-28,32473537,-31747
32-29,32477443,-31351
32-30,32481349,-19224
32-31,32485255,10061
32-32,32489161,32767
32-1,32493225,32767
32-2,32497131,27365
32-3,32501037,-3430
32-4,32504943,-32261
32-5,32508849,-32666
32-6,32512755,-18399
32-7,32516661,11474
32-8,32520567,27076
32-9,32524473,16775
32-10,32528379,-10057
32-11,32532285,-32596
32-12,32536191,-32188
32-13,32540097,-31175
32-14,32544003,-2260
32-15,32547909,23266
32-16,32551815,31435
32-17,32555721,17467
32-18,32559627,-12479
32-19,32563533,-32117
32-20,32567439,-31715
32-21,32571345,-23430
32-22,32575251,7641
32-23,32579157,29513
32-24,32583063,29987
32-25,32586969,8625
32-26,32590875,-22944
32-27,32594781,-31689
32-28,32598687,-31293
32-29,32602593,-13513
32-30,32606499,15917
32-31,32610405,32767
32-32,32614311,32358
32-1,32618070,26226
32-2,32621976,-5557
32-3,32625882,-31803
32-4,32629788,-32768
32-5,32633694,-11245
32-6,32637600,17017
32-7,32641506,27152
32-8,32645412,11203
32-9,32649318,-17848
32-10,32653224,-32690
32-11,32657130,-32281
32-12,32661036,-25159
32-13,32664942,4731
32-14,32668848,27761
32-15,32672754,32073
32-16,32676660,14002
32-17,32680566,-17606
32-18,32684472,-32328
32-19,32688378,-31924
32-20,32692284,-15822
32-21,32696190,14372
32-22,32700096,29059
32-23,32704002,20682
32-24,32707908,-5169
32-25,32711814,-32066
32-26,32715720,-31665
32-27,32719626,-31270
32-28,32723532,-7762
32-29,32727438,20939
32-30,32731344,32767
32-31,32735250,32358
32-32,32739156,13491
32-1,32743068,-18799
32-2,32746974,-32768
32-3,32750880,-31705
32-4,32754786,-4166
32-5,32758692,26936
32-6,32762598,32767
32-7,32766504,26417
32-8,32770410,-4344
32-9,32774316,-32768
32-10,32778222,-32359
32-11,32782128,-20596
32-12,32786034,9406
32-13,32789940,26272
32-14,32793846,18005
32-15,32797752,-7249
32-16,32801658,-32279
32-17,32805564,-31876
32-18,32809470,-31477
32-19,32813376,-6459
32-20,32817282,20966
32-21,32821188,32767
32-22,32825094,23410
32-23,32829000,-5217
32-24,32832906,-32357
32-25,32836812,-31953
32-26,32840718,-29167
32-27,32844624,-1220
32-28,32848530,26743
32-29,32852436,32767
32-30,32856342,31665
32-31,32860248,3945
32-32,32864154,-25591
32-1,32868218,-32768
32-2,32872124,-25860
32-3,32876030,4500
32-4,32879936,32231
32-5,32883842,32630
32-6,32887748,21062
32-7,32891654,-12100
32-8,32895560,-32768
32-9,32899466,-32359
32-10,32903372,-12379
32-11,32907278,15474
32-12,32911184,24566
32-13,32915090,9417
32-14,32918996,-17599
32-15,32922902,-32200
32-16,32926808,-31798
32-17,32930714,-26571
32-18,32934620,2400
32-19,32938526,26517
32-20,32942432,32767
32-21,32946338,17181
32-22,32950244,-13985
32-23,32954150,-32593
32-24,32958056,-32185
32-25,32961962,-20977
32-26,32965868,9630
32-27,32969774,29923
32-28,32973680,29727
32-29,32977586,10316
32-30,32981492,-18655
32-31,32985398,-32285
32-32,32989304,-31882
32-1,32993063,-14620
32-2,32996969,15020
32-3,33000875,32767
32-4,33004781,32358
32-5,33008687,16715
32-6,33012593,-17204
32-7,33016499,-32768
32-8,33020405,-31975
32-9,33024311,-5036
32-10,33028217,21128
32-11,33032123,25158
32-12,33036029,5527
32-13,33039935,-22879
32-14,33043841,-32260
32-15,33047747,-31857
32-16,33051653,-19365
32-17,33055559,10085
32-18,33059465,28815
32-19,33063371,27322
32-20,33067277,4687
32-21,33071183,-25820
32-22,33075089,-31783
32-23,33078995,-31386
32-24,33082901,-10012
32-25,33086807,19450
32-26,33090713,32247
32-27,33094619,22502
32-28,33098525,-4764
32-29,33102431,-31214
32-30,33106337,-31349
32-31,33110243,-24742
32-32,33114149,1185
32-1,33118060,27354
32-2,33121966,32767
32-3,33125872,32358
32-4,33129778,7375
32-5,33133684,-24946
32-6,33137590,-32768
32-7,33141496,-25932
32-8,33145402,3192
32-9,33149308,24637
32-10,33153214,21119
32-11,33157120,-2784
32-12,33161026,-30324
32-13,33164932,-32235
32-14,33168838,-31832
32-15,33172744,-10924
32-16,33176650,17048
32-17,33180556,30660
32-18,33184462,22866
32-19,33188368,-4057
32-20,33192274,-32131
32-21,33196180,-31730
32-22,33200086,-31013
32-23,33203992,-1448
32-24,33207898,25232
32-25,33211804,32600
32-26,33215710,17284
32-27,33219616,-13280
32-28,33223522,-31702
32-29,33227428,-31306
32-30,33231334,-19073
32-31,33235240,10640
32-32,33239146,32767
32-1,33243241,32472
32-2,33247147,25271
32-3,33251053,-5767
32-4,33254959,-32768
32-5,33258865,-32359
32-6,33262771,-18140
32-7,33266677,12268
32-8,33270583,28303
32-9,33274489,18649
32-10,33278395,-8115
32-11,33282301,-32368
32-12,33286207,-31964
32-13,33290113,-31564
32-14,33294019,-2750
32-15,33297925,23679
32-16,33301831,32767
32-17,33305737,19915
32-18,33309643,-10062
32-19,33313549,-32202
32-20,33317455,-31800
32-21,33321361,-24528
32-22,33325267,6864
32-23,33329173,30029
32-24,33333079,31921
32-25,33336985,11339
32-26,33340891,-20591
32-27,33344797,-31843
32-28,33348703,-31445
32-29,33352609,-13577
32-30,33356515,18141
32-31,33360421,32767
32-32,33364327,32358
32-1,33368056,12170
32-2,33371962,-20356
32-3,33375868,-32768
32-4,33379774,-32359
32-5,33383680,-10298
32-6,33387586,21360
32-7,33391492,32767
32-8,33395398,26695
32-9,33399304,-1615
32-10,33403210,-32404
32-11,33407116,-32678
32-12,33411022,-27458
32-13,33414928,3076
32-14,33418834,25759
32-15,33422740,25110
32-16,33426646,3773
32-17,33430552,-25427
32-18,33434458,-32333
32-19,33438364,-31929
32-20,33442270,-15281
32-21,33446176,14706
32-22,33450082,31867
32-23,33453988,28111
32-24,33457894,3227
32-25,33461800,-27655
32-26,33465706,-31969
32-27,33469612,-31569
32-28,33473518,-9048
32-29,33477424,21453
32-30,33481330,32767
32-31,33485236,32358
32-32,33489142,10207
32-1,33493206,-22050
32-2,33497112,-32768
32-3,33501018,-31990
32-4,33504924,-3907
32-5,33508830,26997
32-6,33512736,32767
32-7,33516642,27156
32-8,33520548,-3125
32-9,33524454,-32768
32-10,33528360,-32359
32-11,33532266,-21663
32-12,33536172,9393
32-13,33540078,28950
32-14,33543984,23159
32-15,33547890,-1947
32-16,33551796,-30734
32-17,33555702,-32046
32-18,33559608,-31646
32-19,33563514,-6341
32-20,33567420,21160
32-21,33571326,31132
32-22,33575232,19278
32-23,33579138,-9502
32-24,33583044,-31950
32-25,33586950,-31550
32-26,33590856,-27827
32-27,33594762,-1214
32-28,33598668,26179
32-29,33602574,32767
32-30,33606480,32358
32-31,33610386,10960
32-32,33614292,-20032
32-1,33618051,-32768
32-2,33621957,-26686
32-3,33625863,2935
32-4,33629769,31797
32-5,33633675,32666
32-6,33637581,20911
32-7,33641487,-12084
32-8,33645393,-32768
32-9,33649299,-32359
32-10,33653205,-12876
32-11,33657111,16083
32-12,33661017,26915
32-13,33664923,12910
32-14,33668829,-14610
32-15,33672735,-32311
32-16,33676641,-31908
32-17,33680547,-27641
32-18,33684453,1694
32-19,33688359,26260
32-20,33692265,32767
32-21,33696171,17337
32-22,33700077,-13686
32-23,33703983,-32348
32-24,33707889,-31944
32-25,33711795,-19838
32-26,33715701,10392
32-27,33719607,28266
32-28,33723513,24622
32-29,33727419,3260
32-30,33731325,-24138
32-31,33735231,-31829
32-32,33739137,-31432
32-1,33743043,-12657
32-2,33746949,15869
32-3,33750855,32767
32-4,33754761,32358
32-5,33758667,16697
32-6,33762573,-17391
32-7,33766479,-32768
32-8,33770385,-31648
32-9,33774291,-5046
32-10,33778197,20172
32-11,33782103,23134
32-12,33786009,3173
32-13,33789915,-24509
32-14,33793821,-32177
32-15,33797727,-31775
32-16,33801633,-19752
32-17,33805539,9656
32-18,33809445,30398
32-19,33813351,32102
32-20,33817257,11157
32-21,33821163,-20770
32-22,33825069,-31915
32-23,33828975,-31516
32-24,33832881,-11870
32-25,33836787,18681
32-26,33840693,32466
32-27,33844599,22867
32-28,33848505,-4372
32-29,33852411,-31612
32-30,33856317,-31451
32-31,33860223,-27157
32-32,33864129,-156
32-1,33868077,26981
32-2,33871983,32767
32-3,33875889,30807
32-4,33879795,3188
32-5,33883701,-28747
32-6,33887607,-32768
32-7,33891513,-25373
32-8,33895419,3805
32-9,33899325,23539
32-10,33903231,18566
32-11,33907137,-5130
32-12,33911043,-31557
32-13,33914949,-32159
32-14,33918855,-31758
32-15,33922761,-11482
32-16,33926667,16991
32-17,33930573,32767
32-18,33934479,28058
32-19,33938385,2017
32-20,33942291,-28913
32-21,33946197,-32220
32-22,33950103,-31817
32-23,33954009,-3363
32-24,33957915,24372
32-25,33961821,31901
32-26,33965727,16341
32-27,33969633,-13990
32-28,33973539,-32112
32-29,33977445,-31711
32-30,33981351,-20239
32-31,33985257,9322
32-32,33989163,32767
32-1,33993227,32767
32-2,33997133,26797
32-3,34001039,-4012
32-4,34004945,-32719
32-5,34008851,-32646
32-6,34012757,-18822
32-7,34016663,11323
32-8,34020569,27441
32-9,34024475,17761
32-10,34028381,-8879
32-11,34032287,-32600
32-12,34036193,-32192
32-13,34040099,-31790
32-14,34044005,-3058
32-15,34047911,22810
32-16,34051817,31430
32-17,34055723,18055
32-18,34059629,-11655
32-19,34063535,-32115
32-20,34067441,-31713
32-21,34071347,-24187
32-22,34075253,6869
32-23,34079159,29331
32-24,34083065,30803
32-25,34086971,10021
32-26,34090877,-21550
32-27,34094783,-31710
32-28,34098689,-31314
32-29,34102595,-13094
32-30,34106501,18423
32-31,34110407,32767
32-32,34114313,32358
32-1,34118041,10332
32-2,34121947,-22034
32-3,34125853,-32768
32-4,34129759,-32359
32-5,34133665,-9631
32-6,34137571,21490
32-7,34141477,32767
32-8,34145383,24563
32-9,34149289,-4139
32-10,34153195,-32768
32-11,34157101,-32359
32-12,34161007,-27754
32-13,34164913,3250
32-14,34168819,27476
32-15,34172725,29517
32-16,34176631,9817
32-17,34180537,-20799
32-18,34184443,-32225
32-19,34188349,-31823
32-20,34192255,-16344
32-21,34196161,14301
32-22,34200067,31216
32-23,34203973,26234
32-24,34207879,1242
32-25,34211785,-28937
32-26,34215691,-31774
32-27,34219597,-31377
32-28,34223503,-9179
32-29,34227409,20871
32-30,34231315,32767
32-31,34235221,32358
32-32,34239127,11865
32-1,34243039,-20540
32-2,34246945,-32768
32-3,34250851,-32050
32-4,34254757,-4528
32-5,34258663,26697
32-6,34262569,32767
32-7,34266475,28317
32-8,34270381,-1731
32-9,34274287,-32314
32-10,34278193,-32698
32-11,34282099,-21859
32-12,34286005,8593
32-13,34289911,27235
32-14,34293817,20434
32-15,34297723,-4907
32-16,34301629,-32409
32-17,34305535,-32255
32-18,34309441,-31852
32-19,34313347,-7052
32-20,34317253,20898
32-21,34321159,32767
32-22,34325065,23216
32-23,34328971,-5453
32-24,34332877,-32593
32-25,34336783,-32186
32-26,34340689,-29162
32-27,34344595,-2137
32-28,34348501,25986
32-29,34352407,32767
32-30,34356313,32358
32-31,34360219,10386
32-32,34364125,-20397
32-1,34368037,-32768
32-2,34371943,-26474
32-3,34375849,3239
32-4,34379755,31704
32-5,34383661,32660
32-6,34387567,19828
32-7,34391473,-13196
32-8,34395379,-32768
32-9,34399285,-32359
32-10,34403191,-12939
32-11,34407097,16126
32-12,34411003,27146
32-13,34414909,13436
32-14,34418815,-13997
32-15,34422721,-32329
32-16,34426627,-31925
32-17,34430533,-27338
32-18,34434439,2251
32-19,34438345,25901
32-20,34442251,30945
32-21,34446157,13986
32-22,34450063,-16810
32-23,34453969,-31890
32-24,34457875,-31491
32-25,34461781,-19636
32-26,34465687,10641
32-27,34469593,30677
32-28,34473499,31129
32-29,34477405,11946
32-30,34481311,-17420
32-31,34485217,-31692
32-32,34489123,-31296
32-1,34493034,-14248
32-2,34496940,15646
32-3,34500846,32767
32-4,34504752,32358
32-5,34508658,16463
32-6,34512564,-17311
32-7,34516470,-32768
32-8,34520376,-32359
32-9,34524282,-5254
32-10,34528188,21638
32-11,34532094,26696
32-12,34536000,7656
32-13,34539906,-21274
32-14,34543812,-32325
32-15,34547718,-31921
32-16,34551624,-20866
32-17,34555530,9244
32-18,34559436,30239
32-19,34563342,31542
32-20,34567248,10691
32-21,34571154,-21321
32-22,34575060,-32018
32-23,34578966,-31618
32-24,34582872,-11032
32-25,34586778,18356
32-26,34590684,29636
32-27,34594590,17668
32-28,34598496,-9577
32-29,34602402,-31788
32-30,34606308,-31391
32-31,34610214,-25154
32-32,34614120,765
32-1,34618093,26604
32-2,34621999,32767
32-3,34625905,32358
32-4,34629811,6556
32-5,34633717,-25860
32-6,34637623,-32768
32-7,34641529,-25754
32-8,34645435,2899
32-9,34649341,23193
32-10,34653247,18746
32-11,34657153,-5060
32-12,34661059,-31457
32-13,34664965,-32144
32-14,34668871,-31742
32-15,34672777,-11418
32-16,34676683,16952
32-17,34680589,32767
32-18,34684495,27735
32-19,34688401,1686
32-20,34692307,-29298
32-21,34696213,-31991
32-22,34700119,-31591
32-23,34704025,-2367
32-24,34707931,24113
32-25,34711837,29339
32-26,34715743,11840
32-27,34719649,-17970
32-28,34723555,-31760
32-29,34727461,-31363
32-30,34731367,-16988
32-31,34735273,11032
32-32,34739179,32767
32-1,34743426,32767
32-2,34747332,29516
32-3,34751238,-304
32-4,34755144,-29856
32-5,34759050,-32762
32-6,34762956,-18943
32-7,34766862,9785
32-8,34770768,24672
32-9,34774674,13912
32-10,34778580,-12636
32-11,34782486,-32564
32-12,34786392,-32157
32-13,34790298,-31408
32-14,34794204,-3427
32-15,34798110,22824
32-16,34802016,32767
32-17,34805922,21729
32-18,34809828,-7917
32-19,34813734,-32768
32-20,34817640,-32359
32-21,34821546,-25835
32-22,34825452,5381
32-23,34829358,28474
32-24,34833264,29580
32-25,34837170,8488
32-26,34841076,-22794
32-27,34844982,-32248
32-28,34848888,-31845
32-29,34852794,-13366
32-30,34856700,18029
32-31,34860606,32767
32-32,34864512,32358
32-1,34868027,10679
32-2,34871933,-21753
32-3,34875839,-32768
32-4,34879745,-32359
32-5,34883651,-9840
32-6,34887557,21286
32-7,34891463,32767
32-8,34895369,24138
32-9,34899275,-4479
32-10,34903181,-32768
32-11,34907087,-32359
32-12,34910993,-27691
32-13,34914899,3134
32-14,34918805,26818
32-15,34922711,28214
32-16,34926617,8258
32-17,34930523,-21964
32-18,34934429,-32166
32-19,34938335,-31765
32-20,34942241,-16010
32-21,34946147,14222
32-22,34950053,30681
32-23,34953959,25509
32-24,34957865,492
32-25,34961771,-29342
32-26,34965677,-31690
32-27,34969583,-31294
32-28,34973489,-8990
32-29,34977395,20935
32-30,34981301,32767
32-31,34985207,32358
32-32,34989113,10661
32-1,34993025,-21638
32-2,34996931,-32768
32-3,35000837,-31953
32-4,35004743,-4371
32-5,35008649,26764
32-6,35012555,32767
32-7,35016461,29131
32-8,35020367,-642
32-9,35024273,-31620
32-10,35028179,-32731
32-11,35032085,-21852
32-12,35035991,8142
32-13,35039897,26258
32-14,35043803,18790
32-15,35047709,-6550
32-16,35051615,-32633
32-17,35055521,-32225
32-18,35059427,-31823
32-19,35063333,-6396
32-20,35067239,20435
32-21,35071145,30978
32-22,35075051,19896
32-23,35078957,-8807
32-24,35082863,-32128
32-25,35086769,-31727
32-26,35090675,-28398
32-27,35094581,-718
32-28,35098487,26630
32-29,35102393,32767
32-30,35106299,31901
32-31,35110205,4150
32-32,35114111,-25410
32-1,35118023,-32768
32-2,35121929,-26385
32-3,35125835,3295
32-4,35129741,31861
32-5,35133647,32657
32-6,35137553,25300
32-7,35141459,-7017
32-8,35145365,-32768
32-9,35149271,-32359
32-10,35153177,-13907
32-11,35157083,15000
32-12,35160989,26744
32-13,35164895,12795
32-14,35168801,-14806
32-15,35172707,-32280
32-16,35176613,-31876
32-17,35180519,-27081
32-18,35184425,2279
32-19,35188331,25400
32-20,35192237,29919
32-21,35196143,12641
32-22,35200049,-17889
32-23,35203955,-31796
32-24,35207861,-31399
32-25,35211767,-19737
32-26,35215673,10244
32-27,35219579,30966
32-28,35223485,32767
32-29,35227391,15086
32-30,35231297,-14251
32-31,35235203,-32183
32-32,35239109,-31781
32-1,35243020,-14934
32-2,35246926,15093
32-3,35250832,32767
32-4,35254738,32358
32-5,35258644,15897
32-6,35262550,-18079
32-7,35266456,-32768
32-8,35270362,-32163
32-9,35274268,-5014
32-10,35278174,21236
32-11,35282080,25315
32-12,35285986,5856
32-13,35289892,-22557
32-14,35293798,-32270
32-15,35297704,-31867
32-16,35301610,-19861
32-17,35305516,9890
32-18,35309422,29601
32-19,35313328,29329
32-20,35317234,7242
32-21,35321140,-23988
32-22,35325046,-31873
32-23,35328952,-31475
32-24,35332858,-10607
32-25,35336764,19257
32-26,35340670,32152
32-27,35344576,22251
32-28,35348482,-5031
32-29,35352388,-31809
32-30,35356294,-31411
32-31,35360200,-26216
32-32,35364106,-544
32-1,35368079,26178
32-2,35371985,32767
32-3,35375891,32358
32-4,35379797,9767
32-5,35383703,-22987
32-6,35387609,-32768
32-7,35391515,-26273
32-8,35395421,2191
32-9,35399327,23782
32-10,35403233,20657
32-11,35407139,-3111
32-12,35411045,-30376
32-13,35414951,-32198
32-14,35418857,-31795
32-15,35422763,-11200
32-16,35426669,16783
32-17,35430575,30801
32-18,35434481,23401
32-19,35438387,-3368
32-20,35442293,-32105
32-21,35446199,-31704
32-22,35450105,-31179
32-23,35454011,-1603
32-24,35457917,24897
32-25,35461823,31727
32-26,35465729,15995
32-27,35469635,-14380
32-28,35473541,-31629
32-29,35477447,-31233
32-30,35481353,-18862
32-31,35485259,10645
32-32,35489165,32767
32-1,35493229,32733
32-2,35497135,25559
32-3,35501041,-5449
32-4,35504947,-32768
32-5,35508853,-32359
32-6,35512759,-18356
32-7,35516665,12089
32-8,35520571,28216
32-9,35524477,18718
32-10,35528383,-7960
32-11,35532289,-32365
32-12,35536195,-31961
32-13,35540101,-31562
32-14,35544007,-3853
32-15,35547913,23296
32-16,35551819,32767
32-17,35555725,22295
32-18,35559631,-7207
32-19,35563537,-32768
32-20,35567443,-32359
32-21,35571349,-25087
32-22,35575255,5757
32-23,35579161,27039
32-24,35583067,25449
32-25,35586973,3047
32-26,35590879,-26864
32-27,35594785,-32073
32-28,35598691,-31673
32-29,35602597,-12584
32-30,35606503,17739
32-31,35610409,32767
32-32,35614315,32358
32-1,35618013,13976
32-2,35621919,-18716
32-3,35625825,-32768
32-4,35629731,-32359
32-5,35633637,-10441
32-6,35637543,21101
32-7,35641449,32767
32-8,35645355,24555
32-9,35649261,-4058
32-10,35653167,-32768
32-11,35657073,-32359
32-12,35660979,-27104
32-13,35664885,3460
32-14,35668791,25937
32-15,35672697,25553
32-16,35676603,4628
32-17,35680509,-24691
32-18,35684415,-32054
32-19,35688321,-31653
32-20,35692227,-15957
32-21,35696133,14211
32-22,35700039,32269
32-23,35703945,29781
32-24,35707851,5772
32-25,35711757,-25602
32-26,35715663,-31766
32-27,35719569,-31369
32-28,35723475,-10324
32-29,35727381,20530
32-30,35731287,32767
32-31,35735193,32358
32-32,35739099,11049
32-1,35743011,-21338
32-2,35746917,-32768
32-3,35750823,-32263
32-4,35754729,-4436
32-5,35758635,26620
32-6,35762541,32767
32-7,35766447,27126
32-8,35770353,-3322
32-9,35774259,-32768
32-10,35778165,-32359
32-11,35782071,-20813
32-12,35785977,8470
32-13,35789883,24511
32-14,35793789,15642
32-15,35797695,-9319
32-16,35801601,-32188
32-17,35805507,-31786
32-18,35809413,-31389
32-19,35813319,-6490
32-20,35817225,20721
32-21,35821131,32767
32-22,35825037,24010
32-23,35828943,-4439
32-24,35832849,-32601
32-25,35836755,-32194
32-26,35840661,-29970
32-27,35844567,-1925
32-28,35848473,26322
32-29,35852379,32767
32-30,35856285,30788
32-31,35860191,2779
32-32,35864097,-26671
32-1,35868008,-32768
32-2,35871914,-26498
32-3,35875820,3696
32-4,35879726,31742
32-5,35883632,32655
32-6,35887538,22877
32-7,35891444,-9708
32-8,35895350,-32768
32-9,35899256,-32359
32-10,35903162,-13817
32-11,35907068,15360
32-12,35910974,27085
32-13,35914880,13496
32-14,35918786,-13992
32-15,35922692,-32309
32-16,35926598,-31905
32-17,35930504,-27533
32-18,35934410,1885
32-19,35938316,25341
32-20,35942222,30235
32-21,35946128,13325
32-22,35950034,-17198
32-23,35953940,-31834
32-24,35957846,-31436
32-25,35961752,-19764
32-26,35965658,10258
32-27,35969564,30299
32-28,35973470,31189
32-29,35977376,12531
32-30,35981282,-16484
32-31,35985188,-31646
32-32,35989094,-31251
32-1,35993006,-14192
32-2,35996912,15591
32-3,36000818,32767
32-4,36004724,32358
32-5,36008630,15435
32-6,36012536,-18442
32-7,36016442,-32768
32-8,36020348,-32359
32-9,36024254,-5113
32-10,36028160,21416
32-11,36032066,25882
32-12,36035972,6690
32-13,36039878,-21892
32-14,36043784,-32293
32-15,36047690,-31890
32-16,36051596,-19882
32-17,36055502,9810
32-18,36059408,28867
32-19,36063314,27626
32-20,36067220,5268
32-21,36071126,-25329
32-22,36075032,-31823
32-23,36078938,-31425
32-24,36082844,-10773
32-25,36086750,18779
32-26,36090656,31923
32-27,36094562,22683
32-28,36098468,-4261
32-29,36102374,-30976
32-30,36106280,-31377
32-31,36110186,-25931
32-32,36114092,95
32-1,36118065,26700
32-2,36121971,32767
32-3,36125877,32358
32-4,36129783,6366
32-5,36133689,-25902
32-6,36137595,-32768
32-7,36141501,-26629
32-8,36145407,2870
32-9,36149313,25025
32-10,36153219,22478
32-11,36157125,-958
32-12,36161031,-29034
32-13,36164937,-32283
32-14,36168843,-31880
32-15,36172749,-11928
32-16,36176655,16904
32-17,36180561,31922
32-18,36184467,25581
32-19,36188373,-917
32-20,36192279,-30821
32-21,36196185,-31868
32-22,36200091,-31470
32-23,36203997,-2450
32-24,36207903,24915
32-25,36211809,32606
32-26,36215715,17455
32-27,36219621,-13025
32-28,36223527,-31821
32-29,36227433,-31424
32-30,36231339,-20007
32-31,36235245,9454
32-32,36239151,32767
32-1,36243215,32767
32-2,36247121,27508
32-3,36251027,-3071
32-4,36254933,-32073
32-5,36258839,-32674
32-6,36262745,-19209
32-7,36266651,11058
32-8,36270557,27696
32-9,36274463,18426
32-10,36278369,-8191
32-11,36282275,-32640
32-12,36286181,-32232
32-13,36290087,-31830
32-14,36293993,-3481
32-15,36297899,22726
32-16,36301805,31755
32-17,36305711,18670
32-18,36309617,-11027
32-19,36313523,-32167
32-20,36317429,-31765
32-21,36321335,-24389
32-22,36325241,6709
32-23,36329147,29024
32-24,36333053,30048
32-25,36336959,9087
32-26,36340865,-22342
32-27,36344771,-31722
32-28,36348677,-31326
32-29,36352583,-13633
32-30,36356489,17634
32-31,36360395,32767
32-32,36364301,32358
32-1,36367999,13871
32-2,36371905,-18837
32-3,36375811,-32768
32-4,36379717,-32359
32-5,36383623,-10459
32-6,36387529,21017
32-7,36391435,32767
32-8,36395341,24326
32-9,36399247,-4314
32-10,36403153,-32768
32-11,36407059,-32359
32-12,36410965,-27201
32-13,36414871,3450
32-14,36418777,26250
32-15,36422683,26361
32-16,36426589,5665
32-17,36430495,-23942
32-18,36434401,-32089
32-19,36438307,-31688
32-20,36442213,-15399
32-21,36446119,14566
32-22,36450025,31108
32-23,36453931,26363
32-24,36457837,1356
32-25,36461743,-28863
32-26,36465649,-31658
32-27,36469555,-31263
32-28,36473461,-9378
32-29,36477367,20498
32-30,36481273,32767
32-31,36485179,32358
32-32,36489085,13929
32-1,36492996,-18573
32-2,36496902,-32768
32-3,36500808,-32106
32-4,36504714,-4342
32-5,36508620,26479
32-6,36512526,32767
32-7,36516432,23877
32-8,36520338,-7072
32-9,36524244,-32768
32-10,36528150,-32359
32-11,36532056,-20983
32-12,36535962,9494
32-13,36539868,27068
32-14,36543774,20058
32-15,36547680,-4794
32-16,36551586,-32205
32-17,36555492,-31940
32-18,36559398,-31541
32-19,36563304,-7278
32-20,36567210,20795
32-21,36571116,32767
32-22,36575022,24066
32-23,36578928,-4192
32-24,36582834,-32768
32-25,36586740,-32359
32-26,36590646,-30155
32-27,36594552,-1709
32-28,36598458,26089
32-29,36602364,32767
32-30,36606270,27605
32-31,36610176,-813
32-32,36614082,-28915
32-1,36617994,-32743
32-2,36621900,-25871
32-3,36625806,4033
32-4,36629712,31678
32-5,36633618,32668
32-6,36637524,24751
32-7,36641430,-7807
32-8,36645336,-32768
32-9,36649242,-32359
32-10,36653148,-13854
32-11,36657054,14271
32-12,36660960,24786
32-13,36664866,10352
32-14,36668772,-16713
32-15,36672678,-32192
32-16,36676584,-31790
32-17,36680490,-27380
32-18,36684396,1426
32-19,36688302,25891
32-20,36692208,32767
32-21,36696114,17822
32-22,36700020,-13135
32-23,36703926,-32555
32-24,36707832,-32149
32-25,36711738,-21744
32-26,36715644,8811
32-27,36719550,29843
32-28,36723456,30575
32-29,36727362,11790
32-30,36731268,-17444
32-31,36735174,-32272
32-32,36739080,-31869
32-1,36742992,-15597
32-2,36746898,14396
32-3,36750804,32767
32-4,36754710,32358
32-5,36758616,16504
32-6,36762522,-17692
32-7,36766428,-32768
32-8,36770334,-31724
32-9,36774240,-5443
32-10,36778146,19097
32-11,36782052,21382
32-12,36785958,1460
32-13,36789864,-25420
32-14,36793770,-32104
32-15,36797676,-31703
32-16,36801582,-19715
32-17,36805488,9278
32-18,36809394,29863
32-19,36813300,31525
32-20,36817206,10542
32-21,36821112,-21181
32-22,36825018,-31812
32-23,36828924,-31415
32-24,36832830,-12028
32-25,36836736,18338
32-26,36840642,32009
32-27,36844548,22482
32-28,36848454,-4411
32-29,36852360,-31277
32-30,36856266,-31338
32-31,36860172,-26547
32-32,36864078,-419
32-1,36868050,26388
32-2,36871956,32767
32-3,36875862,32358
32-4,36879768,6137
32-5,36883674,-26138
32-6,36887580,-32768
32-7,36891486,-26739
32-8,36895392,2688
32-9,36899298,24756
32-10,36903204,22141
32-11,36907110,-1135
32-12,36911016,-29118
32-13,36914922,-32268
32-14,36918828,-31865
32-15,36922734,-11877
32-16,36926640,16446
32-17,36930546,30517
32-18,36934452,23220
32-19,36938358,-3341
32-20,36942264,-32156
32-21,36946170,-31754
32-22,36950076,-31358
32-23,36953982,-2079
32-24,36957888,24636
32-25,36961794,32104
32-26,36965700,17021
32-27,36969606,-13336
32-28,36973512,-31697
32-29,36977418,-31301
32-30,36981324,-19975
32-31,36985230,9077
32-32,36989136,32767
32-1,36993170,32767
32-2,36997076,28819
32-3,37000982,-1296
32-4,37004888,-30856
32-5,37008794,-32728
32-6,37012700,-19786
32-7,37016606,10263
32-8,37020512,27253
32-9,37024418,18234
32-10,37028324,-8299
32-11,37032230,-32667
32-12,37036136,-32259
32-13,37040042,-31856
32-14,37043948,-3775
32-15,37047854,22280
32-16,37051760,31230
32-17,37055666,18174
32-18,37059572,-11342
32-19,37063478,-32167
32-20,37067384,-31765
32-21,37071290,-24700
32-22,37075196,6264
32-23,37079102,28852
32-24,37083008,30509
32-25,37086914,10012
32-26,37090820,-21518
32-27,37094726,-31739
32-28,37098632,-31342
32-29,37102538,-14064
32-30,37106444,17276
32-31,37110350,32767
32-32,37114256,32358
32-1,37117985,14208
32-2,37121891,-18573
32-3,37125797,-32768
32-4,37129703,-32359
32-5,37133609,-9882
32-6,37137515,21037
32-7,37141421,32767
32-8,37145327,21322
32-9,37149233,-7796
32-10,37153139,-32768
32-11,37157045,-32359
32-12,37160951,-27682
32-13,37164857,3278
32-14,37168763,27958
32-15,37172669,31814
32-16,37176575,13566
32-17,37180481,-17678
32-18,37184387,-32347
32-19,37188293,-31943
32-20,37192199,-17693
32-21,37196105,13593
32-22,37200011,31485
32-23,37203917,26986
32-24,37207823,2318
32-25,37211729,-28142
32-26,37215635,-31903
32-27,37219541,-31505
32-28,37223447,-9674
32-29,37227353,20716
32-30,37231259,32767
32-31,37235165,32358
32-32,37239071,9441
32-1,37242982,-22819
32-2,37246888,-32768
32-3,37250794,-32359
32-4,37254700,-4291
32-5,37258606,26573
32-6,37262512,32767
32-7,37266418,26917
32-8,37270324,-3318
32-9,37274230,-32768
32-10,37278136,-32359
32-11,37282042,-21516
32-12,37285948,8762
32-13,37289854,26788
32-14,37293760,19649
32-15,37297666,-5350
32-16,37301572,-32311
32-17,37305478,-31907
32-18,37309384,-31508
32-19,37313290,-6476
32-20,37317196,20723
32-21,37321102,31724
32-22,37325008,21009
32-23,37328914,-7698
32-24,37332820,-31857
32-25,37336726,-31459
32-26,37340632,-28271
32-27,37344538,-681
32-28,37348444,26785
32-29,37352350,32767
32-30,37356256,32358
32-31,37360162,5289
32-32,37364068,-24450
32-1,37367974,-32768
32-2,37371880,-26618
32-3,37375786,2958
32-4,37379692,31624
32-5,37383598,32667
32-6,37387504,24726
32-7,37391410,-7626
32-8,37395316,-32768
32-9,37399222,-32359
32-10,37403128,-14320
32-11,37407034,14904
32-12,37410940,27154
32-13,37414846,13838
32-14,37418752,-13736
32-15,37422658,-32304
32-16,37426564,-31901
32-17,37430470,-28321
32-18,37434376,925
32-19,37438282,25694
32-20,37442188,32767
32-21,37446094,17610
32-22,37450000,-13227
32-23,37453906,-32030
32-24,37457812,-31629
32-25,37461718,-20150
32-26,37465624,10087
32-27,37469530,28526
32-28,37473436,25572
32-29,37477342,4580
32-30,37481248,-23240
32-31,37485154,-31553
32-32,37489060,-31159
32-1,37492978,-13481
32-2,37496884,14911
32-3,37500790,32767
32-4,37504696,32358
32-5,37508602,20491
32-6,37512508,-13492
32-7,37516414,-32768
32-8,37520320,-31415
32-9,37524226,-6405
32-10,37528132,18242
32-11,37532038,21327
32-12,37535944,1450
32-13,37539850,-25498
32-14,37543756,-32082
32-15,37547662,-31682
32-16,37551568,-19787
32-17,37555474,9094
32-18,37559380,29762
32-19,37563286,31493
32-20,37567192,10619
32-21,37571098,-21207
32-22,37575004,-31787
32-23,37578910,-31390
32-24,37582816,-11177
32-25,37586722,18232
32-26,37590628,29811
32-27,37594534,18312
32-28,37598440,-8532
32-29,37602346,-31583
32-30,37606252,-31188
32-31,37610158,-25262
32-32,37614064,138
32-1,37618036,26037
32-2,37621942,32767
32-3,37625848,32358
32-4,37629754,7353
32-5,37633660,-25359
32-6,37637566,-32768
32-7,37641472,-26279
32-8,37645378,1930
32-9,37649284,22113
32-10,37653190,17819
32-11,37657096,-5630
32-12,37661002,-31537
32-13,37664908,-32092
32-14,37668814,-31691
32-15,37672720,-11687
32-16,37676626,16456
32-17,37680532,32439
32-18,37684438,26307
32-19,37688344,-124
32-20,37692250,-27302
32-21,37696156,-31748
32-22,37700062,-31196
32-23,37703968,-21849
32-24,37707874,-17918
32-25,37711780,-23423
32-26,37715686,-30174
32-27,37719592,-29797
32-28,37723498,-28050
32-29,37727404,-9989
32-30,37731310,11562
32-31,37735216,27795
32-32,37739122,32767
32-1,37743247,32767
32-2,37747153,32358
32-3,37751059,30066
32-4,37754965,10581
32-5,37758871,-7110
32-6,37762777,-10364
32-7,37766683,-437
32-8,37770589,6360
32-9,37774495,-939
32-10,37778401,-20906
32-11,37782307,-32768
32-12,37786213,-32359
32-13,37790119,-30256
32-14,37794025,-4773
32-15,37797931,20691
32-16,37801837,32767
32-17,37805743,22204
32-18,37809649,-7086
32-19,37813555,-32768
32-20,37817461,-32359
32-21,37821367,-26531
32-22,37825273,4467
32-23,37829179,27868
32-24,37833085,29458
32-25,37836991,8851
32-26,37840897,-22319
32-27,37844803,-32230
32-28,37848709,-31827
32-29,37852615,-14040
32-30,37856521,17405
32-31,37860427,32767
32-32,37864333,32358
32-1,37867970,10807
32-2,37871876,-21594
32-3,37875782,-32768
32-4,37879688,-32359
32-5,37883594,-11975
32-6,37887500,20009
32-7,37891406,32767
32-8,37895312,31255
32-9,37899218,4844
32-10,37903124,-27680
32-11,37907030,-32768
32-12,37910936,-29255
32-13,37914842,617
32-14,37918748,24880
32-15,37922654,25583
32-16,37926560,4622
32-17,37930466,-24476
32-18,37934372,-32386
32-19,37938278,-31982
32-20,37942184,-16273
32-21,37946090,13518
32-22,37949996,30485
32-23,37953902,26495
32-24,37957808,1909
32-25,37961714,-28340
32-26,37965620,-31932
32-27,37969526,-31533
32-28,37973432,-9526
32-29,37977338,20771
32-30,37981244,32767
32-31,37985150,32358
32-32,37989056,7254
32-1,37992968,-24720
32-2,37996874,-32768
32-3,38000780,-32359
32-4,38004686,-5179
32-5,38008592,25843
32-6,38012498,32767
32-7,38016404,31934
32-8,38020310,3440
32-9,38024216,-28634
32-10,38028122,-32768
32-11,38032028,-22702
32-12,38035934,6926
32-13,38039840,25891
32-14,38043746,19108
32-15,38047652,-6215
32-16,38051558,-32648
32-17,38055464,-32240
32-18,38059370,-31838
32-19,38063276,-7092
32-20,38067182,19814
32-21,38071088,30697
32-22,38074994,19937
32-23,38078900,-8555
32-24,38082806,-32126
32-25,38086712,-31725
32-26,38090618,-28578
32-27,38094524,-1907
32-28,38098430,25742
32-29,38102336,32767
32-30,38106242,32358
32-31,38110148,10154
32-32,38114054,-20695
32-1,38117966,-32768
32-2,38121872,-27210
32-3,38125778,1457
32-4,38129684,31210
32-5,38133590,32698
32-6,38137496,27083
32-7,38141402,-4798
32-8,38145308,-32768
32-9,38149214,-32359
32-10,38153120,-14898
32-11,38157026,14067
32-12,38160932,26715
32-13,38164838,13460
32-14,38168744,-14066
32-15,38172650,-32272
32-16,38176556,-31869
32-17,38180462,-28087
32-18,38184368,1136
32-19,38188274,25307
32-20,38192180,31592
32-21,38196086,15655
32-22,38199992,-15088
32-23,38203898,-31855
32-24,38207804,-31457
32-25,38211710,-20536
32-26,38215616,9942
32-27,38219522,30696
32-28,38223428,31761
32-29,38227334,12922
32-30,38231240,-16652
32-31,38235146,-31667
32-32,38239052,-31272
32-1,38242963,-14661
32-2,38246869,15732
32-3,38250775,32767
32-4,38254681,32358
32-5,38258587,12873
32-6,38262493,-20802
32-7,38266399,-32768
32-8,38270305,-32359
32-9,38274211,-5114
32-10,38278117,21611
32-11,38282023,26397
32-12,38285929,7834
32-13,38289835,-20809
32-14,38293741,-32330
32-15,38297647,-31926
32-16,38301553,-20480
32-17,38305459,9431
32-18,38309365,28832
32-19,38313271,27854
32-20,38317177,5651
32-21,38321083,-25047
32-22,38324989,-31858
32-23,38328895,-31460
32-24,38332801,-11038
32-25,38336707,18696
32-26,38340613,32068
32-27,38344519,23059
32-28,38348425,-3758
32-29,38352331,-30653
32-30,38356237,-31424
32-31,38360143,-26093
32-32,38364049,-344
32-1,38368144,26310
32-2,38372050,32767
32-3,38375956,32358
32-4,38379862,7385
32-5,38383768,-25070
32-6,38387674,-32768
32-7,38391580,-26839
32-8,38395486,2370
32-9,38399392,24539
32-10,38403298,22106
32-11,38407204,-1187
32-12,38411110,-29022
32-13,38415016,-32261
32-14,38418922,-31858
32-15,38422828,-12834
32-16,38426734,16069
32-17,38430640,32034
32-18,38434546,26867
32-19,38438452,1086
32-20,38442358,-29655
32-21,38446264,-31882
32-22,38450170,-31483
32-23,38454076,-2731
32-24,38457982,23715
32-25,38461888,29271
32-26,38465794,12113
32-27,38469700,-17585
32-28,38473606,-31652
32-29,38477512,-31256
32-30,38481418,-16541
32-31,38485324,11469
32-32,38489230,32767
32-1,38492959,32756
32-2,38496865,29109
32-3,38500771,-668
32-4,38504677,-30192
32-5,38508583,-32759
32-6,38512489,-19464
32-7,38516395,9231
32-8,38520301,24233
32-9,38524207,13755
32-10,38528113,-12433
32-11,38532019,-32543
32-12,38535925,-32137
32-13,38539831,-31735
32-14,38543737,-4050
32-15,38547643,22275
32-16,38551549,32767
32-17,38555455,21851
32-18,38559361,-7543
32-19,38563267,-32768
32-20,38567173,-32359
32-21,38571079,-26359
32-22,38574985,4698
32-23,38578891,27893
32-24,38582797,29228
32-25,38586703,8400
32-26,38590609,-22739
32-27,38594515,-32221
32-28,38598421,-31819
32-29,38602327,-13872
32-30,38606233,17506
32-31,38610139,32767
32-32,38614045,32358
32-1,38617956,11074
32-2,38621862,-21371
32-3,38625768,-32768
32-4,38629674,-32359
32-5,38633580,-11251
32-6,38637486,20565
32-7,38641392,32767
32-8,38645298,28595
32-9,38649204,1108
32-10,38653110,-30303
32-11,38657016,-32763
32-12,38660922,-29248
32-13,38664828,1269
32-14,38668734,25982
32-15,38672640,27727
32-16,38676546,7692
32-17,38680452,-22221
32-18,38684358,-32496
32-19,38688264,-32090
32-20,38692170,-17140
32-21,38696076,12997
32-22,38699982,30034
32-23,38703888,25607
32-24,38707794,1103
32-25,38711700,-29086
32-26,38715606,-31985
32-27,38719512,-31585
32-28,38723418,-6518
32-29,38727324,21148
32-30,38731230,30972
32-31,38735136,18861
32-32,38739042,-9585
32-1,38742954,-31879
32-2,38746860,-31481
32-3,38750766,-25926
32-4,38754672,-1313
32-5,38758578,23236
32-6,38762484,32767
32-7,38766390,32358
32-8,38770296,26919
32-9,38774202,-2185
32-10,38778108,-21566
32-11,38782014,-19352
32-12,38785920,-616
32-13,38789826,14366
32-14,38793732,9556
32-15,38797638,-13740
32-16,38801544,-32768
32-17,38805450,-32359
32-18,38809356,-31955
32-19,38813262,-8542
32-20,38817168,18476
32-21,38821074,32767
32-22,38824980,27167
32-23,38828886,-355
32-24,38832792,-30552
32-25,38836698,-32723
32-26,38840604,-31599
32-27,38844510,-3643
32-28,38848416,25481
32-29,38852322,32767
32-30,38856228,29922
32-31,38860134,1881
32-32,38864040,-27504
32-1,38867951,-32768
32-2,38871857,-27275
32-3,38875763,2060
32-4,38879669,30837
32-5,38883575,32696
32-6,38887481,27644
32-7,38891387,-3971
32-8,38895293,-32768
32-9,38899199,-32507
32-10,38903105,-15356
32-11,38907011,13479
32-12,38910917,26166
32-13,38914823,12938
32-14,38918729,-14453
32-15,38922635,-32387
32-16,38926541,-31982
32-17,38930447,-27975
32-18,38934353,1136
32-19,38938259,24504
32-20,38942165,29625
32-21,38946071,12957
32-22,38949977,-17305
32-23,38953883,-31871
32-24,38957789,-31473
32-25,38961695,-20312
32-26,38965601,9608
32-27,38969507,29978
32-28,38973413,31387
32-29,38977319,13096
32-30,38981225,-16064
32-31,38985131,-31678
32-32,38989037,-31282
32-1,38993102,-15051
32-2,38997008,14732
32-3,39000914,32767
32-4,39004820,32358
32-5,39008726,17162
32-6,39012632,-16656
32-7,39016538,-32768
32-8,39020444,-32359
32-9,39024350,-6320
32-10,39028256,20855
32-11,39032162,26604
32-12,39036068,8101
32-13,39039974,-20644
32-14,39043880,-32314
32-15,39047786,-31910
32-16,39051692,-21042
32-17,39055598,9012
32-18,39059504,29405
32-19,39063410,29840
32-20,39067316,8447
32-21,39071222,-22851
32-22,39075128,-31924
32-23,39079034,-31525
32-24,39082940,-12134
32-25,39086846,18238
32-26,39090752,32463
32-27,39094658,23994
32-28,39098564,-2665
32-29,39102470,-30075
32-30,39106376,-31506
32-31,39110282,-26933
32-32,39114188,-252
32-1,39117947,26700
32-2,39121853,32767
32-3,39125759,30071
32-4,39129665,2653
32-5,39133571,-28954
32-6,39137477,-32768
32-7,39141383,-26806
32-8,39145289,3140
32-9,39149195,25087
32-10,39153101,22627
32-11,39157007,-193
32-12,39160913,-28443
32-13,39164819,-32304
32-14,39168725,-31901
32-15,39172631,-12103
32-16,39176537,16479
32-17,39180443,30676
32-18,39184349,23413
32-19,39188255,-3152
32-20,39192161,-32184
32-21,39196067,-31793
32-22,39199973,-31396
32-23,39203879,-2363
32-24,39207785,24642
32-25,39211691,32414
32-26,39215597,17421
32-27,39219503,-12971
32-28,39223409,-31745
32-29,39227315,-31349
32-30,39231221,-19159
32-31,39235127,10264
32-32,39239033,32767
32-1,39242944,32751
32-2,39246850,26513
32-3,39250756,-4073
32-4,39254662,-32768
32-5,39258568,-32628
32-6,39262474,-19540
32-7,39266380,10775
32-8,39270286,27502
32-9,39274192,18518
32-10,39278098,-7775
32-11,39282004,-32591
32-12,39285910,-32183
32-13,39289816,-31781
32-14,39293722,-3762
32-15,39297628,22331
32-16,39301534,31145
32-17,39305440,17961
32-18,39309346,-11538
32-19,39313252,-32088
32-20,39317158,-31687
32-21,39321064,-24698
32-22,39324970,6227
32-23,39328876,28774
32-24,39332782,30457
32-25,39336688,9939
32-26,39340594,-21591
32-27,39344500,-31657
32-28,39348406,-31261
32-29,39352312,-13841
32-30,39356218,17533
32-31,39360124,32767
32-32,39364030,32358
32-1,39367942,14425
32-2,39371848,-18243
32-3,39375754,-32768
32-4,39379660,-32359
32-5,39383566,-12148
32-6,39387472,19997
32-7,39391378,32767
32-8,39395284,28130
32-9,39399190,557
32-10,39403096,-30979
32-11,39407002,-32742
32-12,39410908,-28416
32-13,39414814,1734
32-14,39418720,24715
32-15,39422626,24296
32-16,39426532,3279
32-17,39430438,-25448
32-18,39434344,-32337
32-19,39438250,-31933
32-20,39442156,-16763
32-21,39446062,13152
32-22,39449968,31533
32-23,39453874,29657
32-24,39457780,6015
32-25,39461686,-25359
32-26,39465592,-32014
32-27,39469498,-31614
32-28,39473404,-10857
32-29,39477310,20175
32-30,39481216,32767
32-31,39485122,32358
32-32,39489028,8524
32-1,39492940,-23698
32-2,39496846,-32768
32-3,39500752,-32359
32-4,39504658,-5400
32-5,39508564,25794
32-6,39512470,32767
32-7,39516376,30931
32-8,39520282,2036
32-9,39524188,-29896
32-10,39528094,-32768
32-11,39532000,-22693
32-12,39535906,6247
32-13,39539812,23774
32-14,39543718,16078
32-15,39547624,-8808
32-16,39551530,-32543
32-17,39555436,-32137
32-18,39559342,-31735
32-19,39563248,-7793
32-20,39567154,19669
32-21,39571060,32767
32-22,39574966,24780
32-23,39578872,-3221
32-24,39582778,-32309
32-25,39586684,-32146
32-26,39590590,-30555
32-27,39594496,-3255
32-28,39598402,25455
32-29,39602308,32767
32-30,39606214,32358
32-31,39610120,6309
32-32,39614026,-24046
32-1,39618090,-32768
32-2,39621996,-27514
32-3,39625902,1743
32-4,39629808,30950
32-5,39633714,32701
32-6,39637620,25939
32-7,39641526,-6337
32-8,39645432,-32768
32-9,39649338,-32359
32-10,39653244,-14406
32-11,39657150,13394
32-12,39661056,23943
32-13,39664962,9604
32-14,39668868,-17106
32-15,39672774,-32150
32-16,39676680,-31748
32-17,39680586,-27678
32-18,39684492,822
32-19,39688398,25299
32-20,39692304,32767
32-21,39696210,18123
32-22,39700116,-12635
32-23,39704022,-32225
32-24,39707928,-31822
32-25,39711834,-22057
32-26,39715740,8352
32-27,39719646,29638
32-28,39723552,30787
32-29,39727458,12440
32-30,39731364,-16761
32-31,39735270,-31957
32-32,39739176,-31558
32-1,39742935,-16115
32-2,39746841,13488
32-3,39750747,32767
32-4,39754653,32358
32-5,39758559,20047
32-6,39762465,-13714
32-7,39766371,-32768
32-8,39770277,-32359
32-9,39774183,-7165
32-10,39778089,19405
32-11,39781995,24844
32-12,39785901,6017
32-13,39789807,-22145
32-14,39793713,-32219
32-15,39797619,-31816
32-16,39801525,-20504
32-17,39805431,8883
32-18,39809337,28293
32-19,39813243,27828
32-20,39817149,6002
32-21,39821055,-24578
32-22,39824961,-31745
32-23,39828867,-31348
32-24,39832773,-11555
32-25,39836679,18199
32-26,39840585,31987
32-27,39844491,23494
32-28,39848397,-3018
32-29,39852303,-30028
32-30,39856209,-31322
32-31,39860115,-26428
32-32,39864021,-344
32-1,39867933,26432
32-2,39871839,32767
32-3,39875745,31497
32-4,39879651,4817
32-5,39883557,-27264
32-6,39887463,-32768
32-7,39891369,-27162
32-8,39895275,2428
32-9,39899181,24640
32-10,39903087,22391
32-11,39906993,-450
32-12,39910899,-28525
32-13,39914805,-32277
32-14,39918711,-31874
32-15,39922617,-12415
32-16,39926523,16114
32-17,39930429,30558
32-18,39934335,23663
32-19,39938241,-2656
32-20,39942147,-31820
32-21,39946053,-31772
32-22,39949959,-31375
32-23,39953865,-2764
32-24,39957771,24174
32-25,39961677,32022
32-26,39965583,17260
32-27,39969489,-12997
32-28,39973395,-31705
32-29,39977301,-31309
32-30,39981207,-20263
32-31,39985113,9253
32-32,39989019,32767
32-1,39992930,32767
