32-1,17136857,-61
32-2,17140763,-35
32-3,17144669,-27
32-4,17148575,-41
32-5,17152481,-56
32-6,17156387,-63
32-7,17160293,-61
32-8,17164199,-51
32-9,17168105,-43
32-10,17172011,-43
32-11,17175917,-62
32-12,17179823,-81
32-13,17183729,-92
32-14,17187635,-92
32-15,17191541,-86
32-16,17195447,-75
32-17,17199353,-64
32-18,17203259,-54
32-19,17207165,-55
32-20,17211071,-61
32-21,17214977,-65
32-22,17218883,-59
32-23,17222789,-41
32-24,17226695,-25
32-25,17230601,-15
32-26,17234507,-7
32-27,17238413,0
32-28,17242319,-1
32-29,17246225,-8
32-30,17250131,-15
32-31,17254037,-17
32-32,17257943,-21
32-1,17261854,-24
32-2,17265760,-16
32-3,17269666,-3
32-4,17273572,0
32-5,17277478,-8
32-6,17281384,-25
32-7,17285290,-35
32-8,17289196,-30
32-9,17293102,-20
32-10,17297008,-21
32-11,17300914,-33
32-12,17304820,-40
32-13,17308726,-35
32-14,17312632,-19
32-15,17316538,-1
32-16,17320444,10
32-17,17324350,4
32-18,17328256,-14
32-19,17332162,-35
32-20,17336068,-44
32-21,17339974,-50
32-22,17343880,-55
32-23,17347786,-54
32-24,17351692,-52
32-25,17355598,-51
32-26,17359504,-40
32-27,17363410,-19
32-28,17367316,8
32-29,17371222,24
32-30,17375128,14
32-31,17379034,-9
32-32,17382940,-27
32-1,17386883,-27
32-2,17390789,-16
32-3,17394695,-8
32-4,17398601,-6
32-5,17402507,0
32-6,17406413,1
32-7,17410319,-9
32-8,17414225,-26
32-9,17418131,-41
32-10,17422037,-45
32-11,17425943,-43
32-12,17429849,-35
32-13,17433755,-28
32-14,17437661,-23
32-15,17441567,-32
32-16,17445473,-40
32-17,17449379,-40
32-18,17453285,-32
32-19,17457191,-24
32-20,17461097,-24
32-21,17465003,-27
32-22,17468909,-22
32-23,17472815,-12
32-24,17476721,-9
32-25,17480627,-12
32-26,17484533,-3
32-27,17488439,22
32-28,17492345,39
32-29,17496251,32
32-30,17500157,3
32-31,17504063,-27
32-32,17507969,-44
32-1,17511850,-50
32-2,17515756,-47
32-3,17519662,-40
32-4,17523568,-37
32-5,17527474,-32
32-6,17531380,-24
32-7,17535286,-16
32-8,17539192,-10
32-9,17543098,-11
32-10,17547004,-14
32-11,17550910,-14
32-12,17554816,-13
32-13,17558722,-22
32-14,17562628,-35
32-15,17566534,-46
32-16,17570440,-47
32-17,17574346,-45
32-18,17578252,-40
32-19,17582158,-35
32-20,17586064,-21
32-21,17589970,-8
32-22,17593876,-7
32-23,17597782,-7
32-24,17601688,-6
32-25,17605594,-5
32-26,17609500,4
32-27,17613406,18
32-28,17617312,28
32-29,17621218,26
32-30,17625124,-4
32-31,17629030,-44
32-32,17632936,-64
32-1,17636842,-47
32-2,17640748,-14
32-3,17644654,6
32-4,17648560,-1
32-5,17652466,-16
32-6,17656372,-36
32-7,17660278,-60
32-8,17664184,-73
32-9,17668090,-65
32-10,17671996,-39
32-11,17675902,-16
32-12,17679808,-7
32-13,17683714,-16
32-14,17687620,-22
32-15,17691526,-23
32-16,17695432,-20
32-17,17699338,-17
32-18,17703244,-18
32-19,17707150,-24
32-20,17711056,-30
32-21,17714962,-34
32-22,17718868,-35
32-23,17722774,-30
32-24,17726680,-26
32-25,17730586,-25
32-26,17734492,-19
32-27,17738398,-11
32-28,17742304,-8
32-29,17746210,-8
32-30,17750116,-18
32-31,17754022,-24
32-32,17757928,-29
32-1,17761845,-32
32-2,17765751,-30
32-3,17769657,-29
32-4,17773563,-34
32-5,17777469,-39
32-6,17781375,-46
32-7,17785281,-52
32-8,17789187,-52
32-9,17793093,-52
32-10,17796999,-43
32-11,17800905,-29
32-12,17804811,-20
32-13,17808717,-26
32-14,17812623,-35
32-15,17816529,-32
32-16,17820435,-14
32-17,17824341,-4
32-18,17828247,-11
32-19,17832153,-31
32-20,17836059,-44
32-21,17839965,-45
32-22,17843871,-39
32-23,17847777,-31
32-24,17851683,-31
32-25,17855589,-41
32-26,17859495,-48
32-27,17863401,-43
32-28,17867307,-22
32-29,17871213,-2
32-30,17875119,-6
32-31,17879025,-19
32-32,17882931,-32
32-1,17886843,-28
32-2,17890749,-22
32-3,17894655,-27
32-4,17898561,-38
32-5,17902467,-39
32-6,17906373,-33
32-7,17910279,-33
32-8,17914185,-36
32-9,17918091,-32
32-10,17921997,-17
32-11,17925903,-4
32-12,17929809,1
32-13,17933715,-4
32-14,17937621,-9
32-15,17941527,-12
32-16,17945433,-7
32-17,17949339,5
32-18,17953245,20
32-19,17957151,27
32-20,17961057,22
32-21,17964963,17
32-22,17968869,23
32-23,17972775,42
32-24,17976681,49
32-25,17980587,41
32-26,17984493,35
32-27,17988399,39
32-28,17992305,39
32-29,17996211,31
32-30,18000117,12
32-31,18004023,-3
32-32,18007929,-12
32-1,18011840,-18
32-2,18015746,-21
32-3,18019652,-19
32-4,18023558,-13
32-5,18027464,0
32-6,18031370,18
32-7,18035276,31
32-8,18039182,32
32-9,18043088,17
32-10,18046994,4
32-11,18050900,0
32-12,18054806,12
32-13,18058712,23
32-14,18062618,26
32-15,18066524,19
32-16,18070430,13
32-17,18074336,7
32-18,18078242,0
32-19,18082148,-9
32-20,18086054,-16
32-21,18089960,-23
32-22,18093866,-35
32-23,18097772,-43
32-24,18101678,-42
32-25,18105584,-35
32-26,18109490,-20
32-27,18113396,6
32-28,18117302,32
32-29,18121208,42
32-30,18125114,24
32-31,18129020,-4
32-32,18132926,-13
32-1,18136832,4
32-2,18140738,24
32-3,18144644,21
32-4,18148550,0
32-5,18152456,-15
32-6,18156362,-19
32-7,18160268,-19
32-8,18164174,-15
32-9,18168080,-10
32-10,18171986,1
32-11,18175892,7
32-12,18179798,13
32-13,18183704,15
32-14,18187610,14
32-15,18191516,4
32-16,18195422,-14
32-17,18199328,-34
32-18,18203234,-46
32-19,18207140,-52
32-20,18211046,-50
32-21,18214952,-41
32-22,18218858,-28
32-23,18222764,-13
32-24,18226670,-17
32-25,18230576,-34
32-26,18234482,-40
32-27,18238388,-33
32-28,18242294,-28
32-29,18246200,-27
32-30,18250106,-36
32-31,18254012,-43
32-32,18257918,-49
32-1,18261836,-57
32-2,18265742,-57
32-3,18269648,-45
32-4,18273554,-32
32-5,18277460,-16
32-6,18281366,-9
32-7,18285272,-17
32-8,18289178,-27
32-9,18293084,-36
32-10,18296990,-30
32-11,18300896,-15
32-12,18304802,0
32-13,18308708,3
32-14,18312614,-4
32-15,18316520,-16
32-16,18320426,-25
32-17,18324332,-39
32-18,18328238,-53
32-19,18332144,-56
32-20,18336050,-41
32-21,18339956,-19
32-22,18343862,-11
32-23,18347768,-10
32-24,18351674,-20
32-25,18355580,-35
32-26,18359486,-36
32-27,18363392,-19
32-28,18367298,2
32-29,18371204,9
32-30,18375110,-20
32-31,18379016,-66
32-32,18382922,-91
32-1,18386828,-81
32-2,18390734,-53
32-3,18394640,-29
32-4,18398546,-18
32-5,18402452,-3
32-6,18406358,5
32-7,18410264,-9
32-8,18414170,-34
32-9,18418076,-55
32-10,18421982,-61
32-11,18425888,-53
32-12,18429794,-41
32-13,18433700,-34
32-14,18437606,-32
32-15,18441512,-41
32-16,18445418,-47
32-17,18449324,-40
32-18,18453230,-23
32-19,18457136,-5
32-20,18461042,-5
32-21,18464948,-14
32-22,18468854,-22
32-23,18472760,-20
32-24,18476666,-28
32-25,18480572,-40
32-26,18484478,-45
32-27,18488384,-39
32-28,18492290,-31
32-29,18496196,-32
32-30,18500102,-43
32-31,18504008,-52
32-32,18507914,-50
32-1,18511831,-40
32-2,18515737,-24
32-3,18519643,-14
32-4,18523549,-18
32-5,18527455,-31
32-6,18531361,-49
32-7,18535267,-60
32-8,18539173,-47
32-9,18543079,-25
32-10,18546985,-3
32-11,18550891,2
32-12,18554797,-3
32-13,18558703,-10
32-14,18562609,-4
32-15,18566515,11
32-16,18570421,23
32-17,18574327,15
32-18,18578233,-1
32-19,18582139,-3
32-20,18586045,15
32-21,18589951,31
32-22,18593857,24
32-23,18597763,6
32-24,18601669,-11
32-25,18605575,-16
32-26,18609481,-4
32-27,18613387,12
32-28,18617293,21
32-29,18621199,11
32-30,18625105,-25
32-31,18629011,-61
32-32,18632917,-67
32-1,18636828,-36
32-2,18640734,7
32-3,18644640,27
32-4,18648546,16
32-5,18652452,-1
32-6,18656358,-14
32-7,18660264,-24
32-8,18664170,-23
32-9,18668076,-22
32-10,18671982,-26
32-11,18675888,-39
32-12,18679794,-48
32-13,18683700,-41
32-14,18687606,-19
32-15,18691512,-9
32-16,18695418,-11
32-17,18699324,-20
32-18,18703230,-22
32-19,18707136,-17
32-20,18711042,-21
32-21,18714948,-20
32-22,18718854,-9
32-23,18722760,15
32-24,18726666,26
32-25,18730572,13
32-26,18734478,0
32-27,18738384,5
32-28,18742290,14
32-29,18746196,7
32-30,18750102,-23
32-31,18754008,-55
32-32,18757914,-64
32-1,18761826,-47
32-2,18765732,-17
32-3,18769638,5
32-4,18773544,6
32-5,18777450,-2
32-6,18781356,-15
32-7,18785262,-32
32-8,18789168,-45
32-9,18793074,-56
32-10,18796980,-56
32-11,18800886,-42
32-12,18804792,-15
32-13,18808698,1
32-14,18812604,4
32-15,18816510,-1
32-16,18820416,-7
32-17,18824322,-16
32-18,18828228,-26
32-19,18832134,-33
32-20,18836040,-33
32-21,18839946,-24
32-22,18843852,-17
32-23,18847758,-10
32-24,18851664,-10
32-25,18855570,-14
32-26,18859476,-19
32-27,18863382,-23
32-28,18867288,-22
32-29,18871194,-15
32-30,18875100,-17
32-31,18879006,-25
32-32,18882912,-28
32-1,18886854,-29
32-2,18890760,-31
32-3,18894666,-40
32-4,18898572,-49
32-5,18902478,-46
32-6,18906384,-40
32-7,18910290,-35
32-8,18914196,-28
32-9,18918102,-30
32-10,18922008,-46
32-11,18925914,-74
32-12,18929820,-97
32-13,18933726,-98
32-14,18937632,-72
32-15,18941538,-45
32-16,18945444,-32
32-17,18949350,-34
32-18,18953256,-32
32-19,18957162,-27
32-20,18961068,-26
32-21,18964974,-29
32-22,18968880,-34
32-23,18972786,-28
32-24,18976692,-24
32-25,18980598,-27
32-26,18984504,-25
32-27,18988410,-15
32-28,18992316,-4
32-29,18996222,3
32-30,19000128,-9
32-31,19004034,-29
32-32,19007940,-50
32-1,19011943,-61
32-2,19015849,-59
32-3,19019755,-57
32-4,19023661,-62
32-5,19027567,-54
32-6,19031473,-37
32-7,19035379,-18
32-8,19039285,-8
32-9,19043191,-17
32-10,19047097,-31
32-11,19051003,-37
32-12,19054909,-32
32-13,19058815,-25
32-14,19062721,-22
32-15,19066627,-16
32-16,19070533,-2
32-17,19074439,9
32-18,19078345,7
32-19,19082251,-2
32-20,19086157,-7
32-21,19090063,-2
32-22,19093969,5
32-23,19097875,5
32-24,19101781,-12
32-25,19105687,-29
32-26,19109593,-29
32-27,19113499,-9
32-28,19117405,17
32-29,19121311,31
32-30,19125217,14
32-31,19129123,-17
32-32,19133029,-36
32-1,19136819,-36
32-2,19140725,-27
32-3,19144631,-25
32-4,19148537,-32
32-5,19152443,-33
32-6,19156349,-31
32-7,19160255,-23
32-8,19164161,-12
32-9,19168067,-2
32-10,19171973,-2
32-11,19175879,-20
32-12,19179785,-46
32-13,19183691,-58
32-14,19187597,-46
32-15,19191503,-24
32-16,19195409,-13
32-17,19199315,-15
32-18,19203221,-24
32-19,19207127,-30
32-20,19211033,-36
32-21,19214939,-42
32-22,19218845,-58
32-23,19222751,-74
32-24,19226657,-96
32-25,19230563,-110
32-26,19234469,-98
32-27,19238375,-68
32-28,19242281,-40
32-29,19246187,-25
32-30,19250093,-28
32-31,19253999,-34
32-32,19257905,-40
32-1,19261817,-43
32-2,19265723,-37
32-3,19269629,-29
32-4,19273535,-25
32-5,19277441,-24
32-6,19281347,-30
32-7,19285253,-32
32-8,19289159,-25
32-9,19293065,-24
32-10,19296971,-29
32-11,19300877,-36
32-12,19304783,-37
32-13,19308689,-37
32-14,19312595,-39
32-15,19316501,-35
32-16,19320407,-28
32-17,19324313,-31
32-18,19328219,-45
32-19,19332125,-59
32-20,19336031,-60
32-21,19339937,-47
32-22,19343843,-44
32-23,19347749,-48
32-24,19351655,-62
32-25,19355561,-74
32-26,19359467,-68
32-27,19363373,-44
32-28,19367279,-19
32-29,19371185,-6
32-30,19375091,-26
32-31,19378997,-57
32-32,19382903,-67
32-1,19386814,-48
32-2,19390720,-22
32-3,19394626,-16
32-4,19398532,-32
32-5,19402438,-40
32-6,19406344,-35
32-7,19410250,-26
32-8,19414156,-17
32-9,19418062,-18
32-10,19421968,-24
32-11,19425874,-41
32-12,19429780,-59
32-13,19433686,-70
32-14,19437592,-68
32-15,19441498,-63
32-16,19445404,-64
32-17,19449310,-66
32-18,19453216,-63
32-19,19457122,-58
32-20,19461028,-61
32-21,19464934,-68
32-22,19468840,-69
32-23,19472746,-54
32-24,19476652,-42
32-25,19480558,-38
32-26,19484464,-40
32-27,19488370,-39
32-28,19492276,-42
32-29,19496182,-51
32-30,19500088,-66
32-31,19503994,-75
32-32,19507900,-74
32-1,19511812,-65
32-2,19515718,-53
32-3,19519624,-50
32-4,19523530,-58
32-5,19527436,-67
32-6,19531342,-66
32-7,19535248,-48
32-8,19539154,-19
32-9,19543060,7
32-10,19546966,20
32-11,19550872,16
32-12,19554778,1
32-13,19558684,-19
32-14,19562590,-32
32-15,19566496,-28
32-16,19570402,-15
32-17,19574308,-11
32-18,19578214,-33
32-19,19582120,-60
32-20,19586026,-71
32-21,19589932,-60
32-22,19593838,-52
32-23,19597744,-51
32-24,19601650,-54
32-25,19605556,-46
32-26,19609462,-29
32-27,19613368,-11
32-28,19617274,-9
32-29,19621180,-19
32-30,19625086,-43
32-31,19628992,-64
32-32,19632898,-76
32-1,19636993,-77
32-2,19640899,-71
32-3,19644805,-60
32-4,19648711,-45
32-5,19652617,-25
32-6,19656523,-11
32-7,19660429,-3
32-8,19664335,4
32-9,19668241,11
32-10,19672147,14
32-11,19676053,-1
32-12,19679959,-15
32-13,19683865,-21
32-14,19687771,-15
32-15,19691677,-6
32-16,19695583,-6
32-17,19699489,-8
32-18,19703395,-9
32-19,19707301,-13
32-20,19711207,-19
32-21,19715113,-18
32-22,19719019,-12
32-23,19722925,2
32-24,19726831,3
32-25,19730737,-15
32-26,19734643,-36
32-27,19738549,-39
32-28,19742455,-24
32-29,19746361,3
32-30,19750267,15
32-31,19754173,8
32-32,19758079,-16
32-1,19761807,-41
32-2,19765713,-47
32-3,19769619,-33
32-4,19773525,-17
32-5,19777431,-9
32-6,19781337,-13
32-7,19785243,-24
32-8,19789149,-30
32-9,19793055,-38
32-10,19796961,-39
32-11,19800867,-35
32-12,19804773,-27
32-13,19808679,-27
32-14,19812585,-37
32-15,19816491,-47
32-16,19820397,-45
32-17,19824303,-38
32-18,19828209,-36
32-19,19832115,-41
32-20,19836021,-53
32-21,19839927,-63
32-22,19843833,-71
32-23,19847739,-66
32-24,19851645,-53
32-25,19855551,-49
32-26,19859457,-44
32-27,19863363,-34
32-28,19867269,-21
32-29,19871175,-10
32-30,19875081,-20
32-31,19878987,-42
32-32,19882893,-54
32-1,19886805,-41
32-2,19890711,-10
32-3,19894617,12
32-4,19898523,17
32-5,19902429,18
32-6,19906335,9
32-7,19910241,-14
32-8,19914147,-43
32-9,19918053,-63
32-10,19921959,-64
32-11,19925865,-54
32-12,19929771,-33
32-13,19933677,-12
32-14,19937583,5
32-15,19941489,12
32-16,19945395,9
32-17,19949301,11
32-18,19953207,25
32-19,19957113,34
32-20,19961019,32
32-21,19964925,23
32-22,19968831,9
32-23,19972737,-2
32-24,19976643,-26
32-25,19980549,-59
32-26,19984455,-74
32-27,19988361,-62
32-28,19992267,-36
32-29,19996173,-15
32-30,20000079,-22
32-31,20003985,-46
32-32,20007891,-69
32-1,20011802,-79
32-2,20015708,-62
32-3,20019614,-36
32-4,20023520,-22
32-5,20027426,-24
32-6,20031332,-37
32-7,20035238,-46
32-8,20039144,-37
32-9,20043050,-25
32-10,20046956,-18
32-11,20050862,-17
32-12,20054768,-19
32-13,20058674,-30
32-14,20062580,-43
32-15,20066486,-45
32-16,20070392,-32
32-17,20074298,-15
32-18,20078204,-4
32-19,20082110,2
32-20,20086016,3
32-21,20089922,6
32-22,20093828,2
32-23,20097734,-5
32-24,20101640,-18
32-25,20105546,-33
32-26,20109452,-33
32-27,20113358,-17
32-28,20117264,6
32-29,20121170,15
32-30,20125076,-15
32-31,20128982,-67
32-32,20132888,-107
32-1,20136800,-114
32-2,20140706,-91
32-3,20144612,-62
32-4,20148518,-40
32-5,20152424,-22
32-6,20156330,-16
32-7,20160236,-20
32-8,20164142,-21
32-9,20168048,-22
32-10,20171954,-20
32-11,20175860,-29
32-12,20179766,-42
32-13,20183672,-51
32-14,20187578,-46
32-15,20191484,-34
32-16,20195390,-21
32-17,20199296,-9
32-18,20203202,1
32-19,20207108,4
32-20,20211014,-7
32-21,20214920,-17
32-22,20218826,-25
32-23,20222732,-27
32-24,20226638,-39
32-25,20230544,-57
32-26,20234450,-61
32-27,20238356,-43
32-28,20242262,-23
32-29,20246168,-18
32-30,20250074,-31
32-31,20253980,-37
32-32,20257886,-28
32-1,20261920,-21
32-2,20265826,-18
32-3,20269732,-19
32-4,20273638,-20
32-5,20277544,-14
32-6,20281450,-11
32-7,20285356,-15
32-8,20289262,-21
32-9,20293168,-29
32-10,20297074,-31
32-11,20300980,-29
32-12,20304886,-21
32-13,20308792,-17
32-14,20312698,-21
32-15,20316604,-32
32-16,20320510,-41
32-17,20324416,-44
32-18,20328322,-45
32-19,20332228,-46
32-20,20336134,-40
32-21,20340040,-27
32-22,20343946,-18
32-23,20347852,-17
32-24,20351758,-27
32-25,20355664,-42
32-26,20359570,-51
32-27,20363476,-48
32-28,20367382,-32
32-29,20371288,-15
32-30,20375194,-15
32-31,20379100,-24
32-32,20383006,-30
32-1,20386765,-28
32-2,20390671,-18
32-3,20394577,-15
32-4,20398483,-18
32-5,20402389,-28
32-6,20406295,-50
32-7,20410201,-77
32-8,20414107,-89
32-9,20418013,-79
32-10,20421919,-57
32-11,20425825,-49
32-12,20429731,-56
32-13,20433637,-64
32-14,20437543,-55
32-15,20441449,-37
32-16,20445355,-33
32-17,20449261,-40
32-18,20453167,-43
32-19,20457073,-32
32-20,20460979,-18
32-21,20464885,-12
32-22,20468791,-20
32-23,20472697,-30
32-24,20476603,-46
32-25,20480509,-51
32-26,20484415,-29
32-27,20488321,6
32-28,20492227,22
32-29,20496133,9
32-30,20500039,-27
32-31,20503945,-56
32-32,20507851,-62
32-1,20511757,-55
32-2,20515663,-39
32-3,20519569,-25
32-4,20523475,-20
32-5,20527381,-23
32-6,20531287,-35
32-7,20535193,-54
32-8,20539099,-60
32-9,20543005,-61
32-10,20546911,-53
32-11,20550817,-37
32-12,20554723,-18
32-13,20558629,-11
32-14,20562535,-12
32-15,20566441,-17
32-16,20570347,-16
32-17,20574253,-15
32-18,20578159,-21
32-19,20582065,-31
32-20,20585971,-40
32-21,20589877,-41
32-22,20593783,-40
32-23,20597689,-33
32-24,20601595,-25
32-25,20605501,-20
32-26,20609407,-12
32-27,20613313,0
32-28,20617219,8
32-29,20621125,4
32-30,20625031,-22
32-31,20628937,-53
32-32,20632843,-65
32-1,20636791,-51
32-2,20640697,-28
32-3,20644603,-28
32-4,20648509,-47
32-5,20652415,-59
32-6,20656321,-58
32-7,20660227,-56
32-8,20664133,-56
32-9,20668039,-65
32-10,20671945,-71
32-11,20675851,-70
32-12,20679757,-51
32-13,20683663,-20
32-14,20687569,9
32-15,20691475,18
32-16,20695381,5
32-17,20699287,-14
32-18,20703193,-25
32-19,20707099,-24
32-20,20711005,-21
32-21,20714911,-18
32-22,20718817,-18
32-23,20722723,-17
32-24,20726629,-25
32-25,20730535,-35
32-26,20734441,-29
32-27,20738347,-5
32-28,20742253,15
32-29,20746159,9
32-30,20750065,-23
32-31,20753971,-56
32-32,20757877,-69
32-1,20761788,-64
32-2,20765694,-49
32-3,20769600,-41
32-4,20773506,-44
32-5,20777412,-46
32-6,20781318,-47
32-7,20785224,-48
32-8,20789130,-45
32-9,20793036,-41
32-10,20796942,-33
32-11,20800848,-22
32-12,20804754,-13
32-13,20808660,-15
32-14,20812566,-26
32-15,20816472,-34
32-16,20820378,-33
32-17,20824284,-28
32-18,20828190,-30
32-19,20832096,-28
32-20,20836002,-17
32-21,20839908,0
32-22,20843814,5
32-23,20847720,1
32-24,20851626,-10
32-25,20855532,-14
32-26,20859438,-4
32-27,20863344,8
32-28,20867250,8
32-29,20871156,-5
32-30,20875062,-31
32-31,20878968,-51
32-32,20882874,-46
32-1,20886786,-27
32-2,20890692,-9
32-3,20894598,-8
32-4,20898504,-17
32-5,20902410,-15
32-6,20906316,-8
32-7,20910222,-15
32-8,20914128,-35
32-9,20918034,-50
32-10,20921940,-46
32-11,20925846,-33
32-12,20929752,-26
32-13,20933658,-33
32-14,20937564,-39
32-15,20941470,-38
32-16,20945376,-36
32-17,20949282,-30
32-18,20953188,-20
32-19,20957094,-6
32-20,20961000,2
32-21,20964906,2
32-22,20968812,-5
32-23,20972718,-3
32-24,20976624,-1
32-25,20980530,1
32-26,20984436,9
32-27,20988342,23
32-28,20992248,36
32-29,20996154,30
32-30,21000060,2
32-31,21003966,-28
32-32,21007872,-41
32-1,21011814,-32
32-2,21015720,-13
32-3,21019626,2
32-4,21023532,16
32-5,21027438,35
32-6,21031344,54
32-7,21035250,62
32-8,21039156,52
32-9,21043062,21
32-10,21046968,-10
32-11,21050874,-32
32-12,21054780,-37
32-13,21058686,-36
32-14,21062592,-42
32-15,21066498,-53
32-16,21070404,-64
32-17,21074310,-66
32-18,21078216,-63
32-19,21082122,-64
32-20,21086028,-77
32-21,21089934,-88
32-22,21093840,-92
32-23,21097746,-72
32-24,21101652,-43
32-25,21105558,-23
32-26,21109464,-13
32-27,21113370,-6
32-28,21117276,2
32-29,21121182,5
32-30,21125088,-10
32-31,21128994,-37
32-32,21132900,-55
32-1,21136781,-51
32-2,21140687,-32
32-3,21144593,-21
32-4,21148499,-19
32-5,21152405,-20
32-6,21156311,-24
32-7,21160217,-39
32-8,21164123,-60
32-9,21168029,-74
32-10,21171935,-71
32-11,21175841,-61
32-12,21179747,-48
32-13,21183653,-49
32-14,21187559,-58
32-15,21191465,-71
32-16,21195371,-82
32-17,21199277,-82
32-18,21203183,-72
32-19,21207089,-61
32-20,21210995,-59
32-21,21214901,-64
32-22,21218807,-72
32-23,21222713,-69
32-24,21226619,-71
32-25,21230525,-81
32-26,21234431,-89
32-27,21238337,-86
32-28,21242243,-75
32-29,21246149,-64
32-30,21250055,-64
32-31,21253961,-66
32-32,21257867,-61
32-1,21261779,-53
32-2,21265685,-35
32-3,21269591,-14
32-4,21273497,-1
32-5,21277403,1
32-6,21281309,-12
32-7,21285215,-32
32-8,21289121,-47
32-9,21293027,-61
32-10,21296933,-75
32-11,21300839,-91
32-12,21304745,-99
32-13,21308651,-100
32-14,21312557,-91
32-15,21316463,-77
32-16,21320369,-65
32-17,21324275,-55
32-18,21328181,-46
32-19,21332087,-31
32-20,21335993,-13
32-21,21339899,-1
32-22,21343805,-3
32-23,21347711,-10
32-24,21351617,-23
32-25,21355523,-42
32-26,21359429,-55
32-27,21363335,-56
32-28,21367241,-42
32-29,21371147,-16
32-30,21375053,-7
32-31,21378959,-26
32-32,21382865,-55
32-1,21386776,-74
32-2,21390682,-70
32-3,21394588,-59
32-4,21398494,-52
32-5,21402400,-42
32-6,21406306,-30
32-7,21410212,-26
32-8,21414118,-23
32-9,21418024,-26
32-10,21421930,-31
32-11,21425836,-37
32-12,21429742,-41
32-13,21433648,-45
32-14,21437554,-53
32-15,21441460,-64
32-16,21445366,-72
32-17,21449272,-73
32-18,21453178,-65
32-19,21457084,-52
32-20,21460990,-45
32-21,21464896,-40
32-22,21468802,-39
32-23,21472708,-37
32-24,21476614,-46
32-25,21480520,-58
32-26,21484426,-53
32-27,21488332,-29
32-28,21492238,-9
32-29,21496144,-6
32-30,21500050,-26
32-31,21503956,-50
32-32,21507862,-63
32-1,21511774,-63
32-2,21515680,-58
32-3,21519586,-60
32-4,21523492,-65
32-5,21527398,-70
32-6,21531304,-70
32-7,21535210,-69
32-8,21539116,-59
32-9,21543022,-47
32-10,21546928,-27
32-11,21550834,-5
32-12,21554740,14
32-13,21558646,13
32-14,21562552,-6
32-15,21566458,-27
32-16,21570364,-32
32-17,21574270,-27
32-18,21578176,-24
32-19,21582082,-23
32-20,21585988,-20
32-21,21589894,-8
32-22,21593800,4
32-23,21597706,10
32-24,21601612,4
32-25,21605518,-10
32-26,21609424,-21
32-27,21613330,-19
32-28,21617236,-14
32-29,21621142,-19
32-30,21625048,-39
32-31,21628954,-61
32-32,21632860,-65
32-1,21636772,-49
32-2,21640678,-28
32-3,21644584,-22
32-4,21648490,-29
32-5,21652396,-36
32-6,21656302,-41
32-7,21660208,-50
32-8,21664114,-57
32-9,21668020,-53
32-10,21671926,-35
32-11,21675832,-16
32-12,21679738,-8
32-13,21683644,-15
32-14,21687550,-29
32-15,21691456,-45
32-16,21695362,-58
32-17,21699268,-60
32-18,21703174,-49
32-19,21707080,-31
32-20,21710986,-22
32-21,21714892,-26
32-22,21718798,-37
32-23,21722704,-43
32-24,21726610,-48
32-25,21730516,-53
32-26,21734422,-53
32-27,21738328,-41
32-28,21742234,-31
32-29,21746140,-32
32-30,21750046,-47
32-31,21753952,-61
32-32,21757858,-60
32-1,21761830,-53
32-2,21765736,-45
32-3,21769642,-47
32-4,21773548,-59
32-5,21777454,-70
32-6,21781360,-72
32-7,21785266,-70
32-8,21789172,-66
32-9,21793078,-63
32-10,21796984,-54
32-11,21800890,-42
32-12,21804796,-38
32-13,21808702,-54
32-14,21812608,-78
32-15,21816514,-92
32-16,21820420,-78
32-17,21824326,-51
32-18,21828232,-38
32-19,21832138,-40
32-20,21836044,-40
32-21,21839950,-24
32-22,21843856,-3
32-23,21847762,10
32-24,21851668,5
32-25,21855574,-13
32-26,21859480,-26
32-27,21863386,-16
32-28,21867292,7
32-29,21871198,21
32-30,21875104,7
32-31,21879010,-28
32-32,21882916,-53
32-1,21886797,-54
32-2,21890703,-33
32-3,21894609,-23
32-4,21898515,-32
32-5,21902421,-42
32-6,21906327,-42
32-7,21910233,-38
32-8,21914139,-36
32-9,21918045,-39
32-10,21921951,-37
32-11,21925857,-25
32-12,21929763,-2
32-13,21933669,19
32-14,21937575,30
32-15,21941481,26
32-16,21945387,13
32-17,21949293,4
32-18,21953199,2
32-19,21957105,6
32-20,21961011,2
32-21,21964917,-10
32-22,21968823,-25
32-23,21972729,-30
32-24,21976635,-37
32-25,21980541,-43
32-26,21984447,-39
32-27,21988353,-23
32-28,21992259,-14
32-29,21996165,-23
32-30,22000071,-44
32-31,22003977,-56
32-32,22007883,-44
32-1,22011764,-26
32-2,22015670,-19
32-3,22019576,-32
32-4,22023482,-55
32-5,22027388,-69
32-6,22031294,-65
32-7,22035200,-50
32-8,22039106,-26
32-9,22043012,-4
32-10,22046918,9
32-11,22050824,8
32-12,22054730,-8
32-13,22058636,-34
32-14,22062542,-57
32-15,22066448,-64
32-16,22070354,-58
32-17,22074260,-47
32-18,22078166,-44
32-19,22082072,-41
32-20,22085978,-33
32-21,22089884,-22
32-22,22093790,-28
32-23,22097696,-41
32-24,22101602,-61
32-25,22105508,-70
32-26,22109414,-58
32-27,22113320,-36
32-28,22117226,-19
32-29,22121132,-17
32-30,22125038,-37
32-31,22128944,-61
32-32,22132850,-60
32-1,22136762,-31
32-2,22140668,8
32-3,22144574,27
32-4,22148480,21
32-5,22152386,9
32-6,22156292,-1
32-7,22160198,-16
32-8,22164104,-25
32-9,22168010,-27
32-10,22171916,-19
32-11,22175822,-7
32-12,22179728,2
32-13,22183634,3
32-14,22187540,2
32-15,22191446,-2
32-16,22195352,-6
32-17,22199258,1
32-18,22203164,13
32-19,22207070,19
32-20,22210976,7
32-21,22214882,-10
32-22,22218788,-14
32-23,22222694,6
32-24,22226600,24
32-25,22230506,24
32-26,22234412,18
32-27,22238318,23
32-28,22242224,40
32-29,22246130,52
32-30,22250036,36
32-31,22253942,-6
32-32,22257848,-39
32-1,22261754,-51
32-2,22265660,-34
32-3,22269566,-10
32-4,22273472,-3
32-5,22277378,-4
32-6,22281284,-9
32-7,22285190,-9
32-8,22289096,1
32-9,22293002,-1
32-10,22296908,-16
32-11,22300814,-32
32-12,22304720,-34
32-13,22308626,-21
32-14,22312532,-4
32-15,22316438,3
32-16,22320344,1
32-17,22324250,-9
32-18,22328156,-15
32-19,22332062,-12
32-20,22335968,-7
32-21,22339874,-1
32-22,22343780,-1
32-23,22347686,0
32-24,22351592,-1
32-25,22355498,-3
32-26,22359404,-3
32-27,22363310,7
32-28,22367216,23
32-29,22371122,38
32-30,22375028,35
32-31,22378934,8
32-32,22382840,-21
32-1,22386757,-42
32-2,22390663,-44
32-3,22394569,-40
32-4,22398475,-31
32-5,22402381,-15
32-6,22406287,1
32-7,22410193,2
32-8,22414099,-2
32-9,22418005,-10
32-10,22421911,-12
32-11,22425817,-9
32-12,22429723,-3
32-13,22433629,4
32-14,22437535,13
32-15,22441441,15
32-16,22445347,8
32-17,22449253,-2
32-18,22453159,-9
32-19,22457065,-9
32-20,22460971,-15
32-21,22464877,-19
32-22,22468783,-17
32-23,22472689,-2
32-24,22476595,6
32-25,22480501,1
32-26,22484407,-7
32-27,22488313,-3
32-28,22492219,4
32-29,22496125,-2
32-30,22500031,-28
32-31,22503937,-54
32-32,22507843,-56
32-1,22511816,-42
32-2,22515722,-29
32-3,22519628,-36
32-4,22523534,-53
32-5,22527440,-58
32-6,22531346,-45
32-7,22535252,-17
32-8,22539158,13
32-9,22543064,27
32-10,22546970,26
32-11,22550876,11
32-12,22554782,-4
32-13,22558688,-12
32-14,22562594,-13
32-15,22566500,-6
32-16,22570406,-1
32-17,22574312,-4
32-18,22578218,-12
32-19,22582124,-15
32-20,22586030,-12
32-21,22589936,0
32-22,22593842,-2
32-23,22597748,-12
32-24,22601654,-22
32-25,22605560,-20
32-26,22609466,-6
32-27,22613372,10
32-28,22617278,16
32-29,22621184,9
32-30,22625090,-6
32-31,22628996,-22
32-32,22632902,-27
32-1,22636844,-25
32-2,22640750,-18
32-3,22644656,-16
32-4,22648562,-14
32-5,22652468,-1
32-6,22656374,13
32-7,22660280,13
32-8,22664186,-5
32-9,22668092,-26
32-10,22671998,-31
32-11,22675904,-25
32-12,22679810,-14
32-13,22683716,-10
32-14,22687622,-15
32-15,22691528,-25
32-16,22695434,-38
32-17,22699340,-48
32-18,22703246,-55
32-19,22707152,-52
32-20,22711058,-49
32-21,22714964,-44
32-22,22718870,-41
32-23,22722776,-35
32-24,22726682,-35
32-25,22730588,-43
32-26,22734494,-45
32-27,22738400,-34
32-28,22742306,-19
32-29,22746212,-18
32-30,22750118,-30
32-31,22754024,-43
32-32,22757930,-47
32-1,22761750,-47
32-2,22765656,-43
32-3,22769562,-42
32-4,22773468,-40
32-5,22777374,-32
32-6,22781280,-20
32-7,22785186,-16
32-8,22789092,-22
32-9,22792998,-38
32-10,22796904,-50
32-11,22800810,-48
32-12,22804716,-37
32-13,22808622,-31
32-14,22812528,-38
32-15,22816434,-48
32-16,22820340,-46
32-17,22824246,-33
32-18,22828152,-20
32-19,22832058,-18
32-20,22835964,-17
32-21,22839870,-8
32-22,22843776,-3
32-23,22847682,-5
32-24,22851588,-20
32-25,22855494,-36
32-26,22859400,-34
32-27,22863306,-15
32-28,22867212,4
32-29,22871118,8
32-30,22875024,-21
32-31,22878930,-67
32-32,22882836,-97
32-1,22886748,-97
32-2,22890654,-67
32-3,22894560,-39
32-4,22898466,-33
32-5,22902372,-41
32-6,22906278,-57
32-7,22910184,-76
32-8,22914090,-86
32-9,22917996,-89
32-10,22921902,-85
32-11,22925808,-86
32-12,22929714,-94
32-13,22933620,-101
32-14,22937526,-100
32-15,22941432,-88
32-16,22945338,-72
32-17,22949244,-56
32-18,22953150,-45
32-19,22957056,-38
32-20,22960962,-42
32-21,22964868,-51
32-22,22968774,-58
32-23,22972680,-46
32-24,22976586,-31
32-25,22980492,-24
32-26,22984398,-22
32-27,22988304,-27
32-28,22992210,-34
32-29,22996116,-42
32-30,23000022,-54
32-31,23003928,-66
32-32,23007834,-73
32-1,23011746,-74
32-2,23015652,-64
32-3,23019558,-52
32-4,23023464,-49
32-5,23027370,-55
32-6,23031276,-70
32-7,23035182,-79
32-8,23039088,-61
32-9,23042994,-28
32-10,23046900,9
32-11,23050806,29
32-12,23054712,24
32-13,23058618,-4
32-14,23062524,-43
32-15,23066430,-69
32-16,23070336,-75
32-17,23074242,-65
32-18,23078148,-54
32-19,23082054,-45
32-20,23085960,-34
32-21,23089866,-21
32-22,23093772,-20
32-23,23097678,-29
32-24,23101584,-44
32-25,23105490,-55
32-26,23109396,-50
32-27,23113302,-36
32-28,23117208,-29
32-29,23121114,-38
32-30,23125020,-68
32-31,23128926,-98
32-32,23132832,-101
32-1,23136743,-80
32-2,23140649,-43
32-3,23144555,-21
32-4,23148461,-23
32-5,23152367,-32
32-6,23156273,-36
32-7,23160179,-33
32-8,23164085,-28
32-9,23167991,-30
32-10,23171897,-37
32-11,23175803,-56
32-12,23179709,-82
32-13,23183615,-102
32-14,23187521,-109
32-15,23191427,-99
32-16,23195333,-85
32-17,23199239,-71
32-18,23203145,-58
32-19,23207051,-48
32-20,23210957,-43
32-21,23214863,-40
32-22,23218769,-43
32-23,23222675,-43
32-24,23226581,-50
32-25,23230487,-59
32-26,23234393,-51
32-27,23238299,-30
32-28,23242205,-16
32-29,23246111,-29
32-30,23250017,-68
32-31,23253923,-100
32-32,23257829,-97
32-1,23261771,-70
32-2,23265677,-34
32-3,23269583,-16
32-4,23273489,-22
32-5,23277395,-38
32-6,23281301,-56
32-7,23285207,-72
32-8,23289113,-74
32-9,23293019,-67
32-10,23296925,-54
32-11,23300831,-43
32-12,23304737,-43
32-13,23308643,-53
32-14,23312549,-65
32-15,23316455,-66
32-16,23320361,-49
32-17,23324267,-24
32-18,23328173,-14
32-19,23332079,-25
32-20,23335985,-40
32-21,23339891,-46
32-22,23343797,-48
32-23,23347703,-48
32-24,23351609,-52
32-25,23355515,-54
32-26,23359421,-43
32-27,23363327,-24
32-28,23367233,-10
32-29,23371139,-13
32-30,23375045,-35
32-31,23378951,-58
32-32,23382857,-70
32-1,23386830,-69
32-2,23390736,-60
32-3,23394642,-54
32-4,23398548,-45
32-5,23402454,-28
32-6,23406360,-10
32-7,23410266,-14
32-8,23414172,-37
32-9,23418078,-57
32-10,23421984,-59
32-11,23425890,-51
32-12,23429796,-47
32-13,23433702,-55
32-14,23437608,-69
32-15,23441514,-77
32-16,23445420,-78
32-17,23449326,-69
32-18,23453232,-60
32-19,23457138,-50
32-20,23461044,-45
32-21,23464950,-41
32-22,23468856,-37
32-23,23472762,-29
32-24,23476668,-30
32-25,23480574,-41
32-26,23484480,-41
32-27,23488386,-22
32-28,23492292,4
32-29,23496198,13
32-30,23500104,-9
32-31,23504010,-46
32-32,23507916,-72
32-1,23511822,-80
32-2,23515728,-69
32-3,23519634,-55
32-4,23523540,-44
32-5,23527446,-32
32-6,23531352,-23
32-7,23535258,-22
32-8,23539164,-22
32-9,23543070,-29
32-10,23546976,-37
32-11,23550882,-42
32-12,23554788,-43
32-13,23558694,-44
32-14,23562600,-55
32-15,23566506,-69
32-16,23570412,-71
32-17,23574318,-59
32-18,23578224,-47
32-19,23582130,-37
32-20,23586036,-41
32-21,23589942,-46
32-22,23593848,-51
32-23,23597754,-41
32-24,23601660,-27
32-25,23605566,-17
32-26,23609472,-9
32-27,23613378,-2
32-28,23617284,0
32-29,23621190,-6
32-30,23625096,-28
32-31,23629002,-62
32-32,23632908,-82
32-1,23636734,-76
32-2,23640640,-45
32-3,23644546,-17
32-4,23648452,-8
32-5,23652358,-11
32-6,23656264,-20
32-7,23660170,-33
32-8,23664076,-42
32-9,23667982,-35
32-10,23671888,-15
32-11,23675794,5
32-12,23679700,9
32-13,23683606,-5
32-14,23687512,-22
32-15,23691418,-27
32-16,23695324,-24
32-17,23699230,-18
32-18,23703136,-20
32-19,23707042,-28
32-20,23710948,-32
32-21,23714854,-28
32-22,23718760,-25
32-23,23722666,-25
32-24,23726572,-37
32-25,23730478,-47
32-26,23734384,-34
32-27,23738290,-3
32-28,23742196,23
32-29,23746102,21
32-30,23750008,-10
32-31,23753914,-44
32-32,23757820,-57
32-1,23761731,-53
32-2,23765637,-37
32-3,23769543,-28
32-4,23773449,-29
32-5,23777355,-34
32-6,23781261,-42
32-7,23785167,-52
32-8,23789073,-59
32-9,23792979,-65
32-10,23796885,-69
32-11,23800791,-68
32-12,23804697,-65
32-13,23808603,-66
32-14,23812509,-77
32-15,23816415,-83
32-16,23820321,-75
32-17,23824227,-58
32-18,23828133,-45
32-19,23832039,-44
32-20,23835945,-52
32-21,23839851,-55
32-22,23843757,-53
32-23,23847663,-42
32-24,23851569,-35
32-25,23855475,-39
32-26,23859381,-39
32-27,23863287,-27
32-28,23867193,-4
32-29,23871099,13
32-30,23875005,4
32-31,23878911,-28
32-32,23882817,-55
32-1,23886729,-55
32-2,23890635,-26
32-3,23894541,-2
32-4,23898447,0
32-5,23902353,-8
32-6,23906259,-14
32-7,23910165,-15
32-8,23914071,-7
32-9,23917977,8
32-10,23921883,30
32-11,23925789,42
32-12,23929695,36
32-13,23933601,21
32-14,23937507,9
32-15,23941413,4
32-16,23945319,-3
32-17,23949225,-20
32-18,23953131,-44
32-19,23957037,-54
32-20,23960943,-48
32-21,23964849,-27
32-22,23968755,-8
32-23,23972661,7
32-24,23976567,6
32-25,23980473,-16
32-26,23984379,-41
32-27,23988285,-51
32-28,23992191,-46
32-29,23996097,-41
32-30,24000003,-44
32-31,24003909,-53
32-32,24007815,-54
32-1,24011757,-50
32-2,24015663,-41
32-3,24019569,-36
32-4,24023475,-39
32-5,24027381,-46
32-6,24031287,-55
32-7,24035193,-64
32-8,24039099,-64
32-9,24043005,-59
32-10,24046911,-54
32-11,24050817,-53
32-12,24054723,-56
32-13,24058629,-62
32-14,24062535,-68
32-15,24066441,-63
32-16,24070347,-46
32-17,24074253,-24
32-18,24078159,-17
32-19,24082065,-32
32-20,24085971,-53
32-21,24089877,-57
32-22,24093783,-48
32-23,24097689,-35
32-24,24101595,-35
32-25,24105501,-46
32-26,24109407,-50
32-27,24113313,-43
32-28,24117219,-30
32-29,24121125,-20
32-30,24125031,-23
32-31,24128937,-35
32-32,24132843,-40
32-1,24136816,-34
32-2,24140722,-14
32-3,24144628,-1
32-4,24148534,-8
32-5,24152440,-25
32-6,24156346,-41
32-7,24160252,-42
32-8,24164158,-23
32-9,24168064,-1
32-10,24171970,10
32-11,24175876,1
32-12,24179782,-14
32-13,24183688,-13
32-14,24187594,3
32-15,24191500,19
32-16,24195406,15
32-17,24199312,-5
32-18,24203218,-20
32-19,24207124,-10
32-20,24211030,16
32-21,24214936,37
32-22,24218842,32
32-23,24222748,12
32-24,24226654,-15
32-25,24230560,-34
32-26,24234466,-27
32-27,24238372,5
32-28,24242278,42
32-29,24246184,59
32-30,24250090,53
32-31,24253996,32
32-32,24257902,19
32-1,24261722,10
32-2,24265628,5
32-3,24269534,-1
32-4,24273440,-8
32-5,24277346,-13
32-6,24281252,-15
32-7,24285158,-19
32-8,24289064,-19
32-9,24292970,-13
32-10,24296876,-14
32-11,24300782,-24
32-12,24304688,-40
32-13,24308594,-48
32-14,24312500,-40
32-15,24316406,-19
32-16,24320312,-2
32-17,24324218,2
32-18,24328124,-10
32-19,24332030,-24
32-20,24335936,-29
32-21,24339842,-22
32-22,24343748,-18
32-23,24347654,-17
32-24,24351560,-31
32-25,24355466,-50
32-26,24359372,-44
32-27,24363278,-13
32-28,24367184,28
32-29,24371090,45
32-30,24374996,19
32-31,24378902,-23
32-32,24382808,-40
32-1,24386719,-20
32-2,24390625,23
32-3,24394531,42
32-4,24398437,32
32-5,24402343,21
32-6,24406249,17
32-7,24410155,10
32-8,24414061,-1
32-9,24417967,-13
32-10,24421873,-15
32-11,24425779,-17
32-12,24429685,-26
32-13,24433591,-40
32-14,24437497,-51
32-15,24441403,-47
32-16,24445309,-34
32-17,24449215,-20
32-18,24453121,-13
32-19,24457027,-15
32-20,24460933,-25
32-21,24464839,-35
32-22,24468745,-36
32-23,24472651,-20
32-24,24476557,0
32-25,24480463,8
32-26,24484369,15
32-27,24488275,21
32-28,24492181,30
32-29,24496087,28
32-30,24499993,10
32-31,24503899,-17
32-32,24507805,-35
32-1,24511778,-44
32-2,24515684,-36
32-3,24519590,-23
32-4,24523496,-9
32-5,24527402,-4
32-6,24531308,-17
32-7,24535214,-30
32-8,24539120,-33
32-9,24543026,-34
32-10,24546932,-36
32-11,24550838,-44
32-12,24554744,-46
32-13,24558650,-41
32-14,24562556,-41
32-15,24566462,-46
32-16,24570368,-48
32-17,24574274,-32
32-18,24578180,-5
32-19,24582086,13
32-20,24585992,6
32-21,24589898,-13
32-22,24593804,-31
32-23,24597710,-36
32-24,24601616,-38
32-25,24605522,-45
32-26,24609428,-47
32-27,24613334,-48
32-28,24617240,-51
32-29,24621146,-61
32-30,24625052,-78
32-31,24628958,-88
32-32,24632864,-76
32-1,24636715,-54
32-2,24640621,-28
32-3,24644527,-17
32-4,24648433,-14
32-5,24652339,-6
32-6,24656245,5
32-7,24660151,1
32-8,24664057,-14
32-9,24667963,-32
32-10,24671869,-37
32-11,24675775,-33
32-12,24679681,-33
32-13,24683587,-40
32-14,24687493,-48
32-15,24691399,-45
32-16,24695305,-34
32-17,24699211,-21
32-18,24703117,-11
32-19,24707023,-7
32-20,24710929,-12
32-21,24714835,-17
32-22,24718741,-20
32-23,24722647,-11
32-24,24726553,1
32-25,24730459,7
32-26,24734365,15
32-27,24738271,22
32-28,24742177,21
32-29,24746083,2
32-30,24749989,-30
32-31,24753895,-55
32-32,24757801,-56
32-1,24761773,-40
32-2,24765679,-20
32-3,24769585,-18
32-4,24773491,-32
32-5,24777397,-48
32-6,24781303,-54
32-7,24785209,-48
32-8,24789115,-33
32-9,24793021,-27
32-10,24796927,-36
32-11,24800833,-49
32-12,24804739,-54
32-13,24808645,-45
32-14,24812551,-35
32-15,24816457,-31
32-16,24820363,-36
32-17,24824269,-39
32-18,24828175,-41
32-19,24832081,-38
32-20,24835987,-40
32-21,24839893,-45
32-22,24843799,-59
32-23,24847705,-70
32-24,24851611,-77
32-25,24855517,-81
32-26,24859423,-77
32-27,24863329,-67
32-28,24867235,-41
32-29,24871141,-9
32-30,24875047,10
32-31,24878953,4
32-32,24882859,-13
32-1,24886832,-27
32-2,24890738,-26
32-3,24894644,-17
32-4,24898550,-6
32-5,24902456,7
32-6,24906362,17
32-7,24910268,14
32-8,24914174,2
32-9,24918080,-15
32-10,24921986,-31
32-11,24925892,-44
32-12,24929798,-56
32-13,24933704,-64
32-14,24937610,-60
32-15,24941516,-46
32-16,24945422,-41
32-17,24949328,-46
32-18,24953234,-54
32-19,24957140,-49
32-20,24961046,-33
32-21,24964952,-15
32-22,24968858,-2
32-23,24972764,4
32-24,24976670,-2
32-25,24980576,-20
32-26,24984482,-22
32-27,24988388,-14
32-28,24992294,-1
32-29,24996200,-1
32-30,25000106,-19
32-31,25004012,-34
32-32,25007918,-32
32-1,25011708,-22
32-2,25015614,-15
32-3,25019520,-20
32-4,25023426,-28
32-5,25027332,-21
32-6,25031238,-7
32-7,25035144,-2
32-8,25039050,-10
32-9,25042956,-26
32-10,25046862,-33
32-11,25050768,-22
32-12,25054674,-3
32-13,25058580,6
32-14,25062486,-9
32-15,25066392,-33
32-16,25070298,-55
32-17,25074204,-65
32-18,25078110,-71
32-19,25082016,-74
32-20,25085922,-72
32-21,25089828,-60
32-22,25093734,-51
32-23,25097640,-41
32-24,25101546,-36
32-25,25105452,-30
32-26,25109358,-7
32-27,25113264,17
32-28,25117170,30
32-29,25121076,22
32-30,25124982,-8
32-31,25128888,-50
32-32,25132794,-80
32-1,25136827,-93
32-2,25140733,-79
32-3,25144639,-57
32-4,25148545,-38
32-5,25152451,-19
32-6,25156357,-14
32-7,25160263,-22
32-8,25164169,-32
32-9,25168075,-39
32-10,25171981,-36
32-11,25175887,-29
32-12,25179793,-28
32-13,25183699,-26
32-14,25187605,-22
32-15,25191511,-19
32-16,25195417,-18
32-17,25199323,-13
32-18,25203229,-3
32-19,25207135,6
32-20,25211041,-3
32-21,25214947,-22
32-22,25218853,-35
32-23,25222759,-22
32-24,25226665,5
32-25,25230571,25
32-26,25234477,39
32-27,25238383,46
32-28,25242289,46
32-29,25246195,29
32-30,25250101,-7
32-31,25254007,-41
32-32,25257913,-52
32-1,25261703,-48
32-2,25265609,-36
32-3,25269515,-29
32-4,25273421,-28
32-5,25277327,-29
32-6,25281233,-41
32-7,25285139,-62
32-8,25289045,-71
32-9,25292951,-67
32-10,25296857,-53
32-11,25300763,-38
32-12,25304669,-29
32-13,25308575,-19
32-14,25312481,-15
32-15,25316387,-13
32-16,25320293,-6
32-17,25324199,-3
32-18,25328105,-9
32-19,25332011,-23
32-20,25335917,-44
32-21,25339823,-54
32-22,25343729,-54
32-23,25347635,-42
32-24,25351541,-31
32-25,25355447,-37
32-26,25359353,-43
32-27,25363259,-46
32-28,25367165,-44
32-29,25371071,-44
32-30,25374977,-51
32-31,25378883,-68
32-32,25382789,-75
32-1,25386701,-70
32-2,25390607,-46
32-3,25394513,-24
32-4,25398419,-12
32-5,25402325,-8
32-6,25406231,-10
32-7,25410137,-16
32-8,25414043,-19
32-9,25417949,-15
32-10,25421855,-9
32-11,25425761,-9
32-12,25429667,-20
32-13,25433573,-36
32-14,25437479,-48
32-15,25441385,-47
32-16,25445291,-44
32-17,25449197,-38
32-18,25453103,-37
32-19,25457009,-39
32-20,25460915,-46
32-21,25464821,-53
32-22,25468727,-59
32-23,25472633,-58
32-24,25476539,-57
32-25,25480445,-62
32-26,25484351,-55
32-27,25488257,-34
32-28,25492163,-11
32-29,25496069,-9
32-30,25499975,-30
32-31,25503881,-57
32-32,25507787,-60
32-1,25511698,-37
32-2,25515604,-5
32-3,25519510,11
32-4,25523416,1
32-5,25527322,-15
32-6,25531228,-27
32-7,25535134,-31
32-8,25539040,-26
32-9,25542946,-20
32-10,25546852,-17
32-11,25550758,-21
32-12,25554664,-33
32-13,25558570,-49
32-14,25562476,-57
32-15,25566382,-43
32-16,25570288,-21
32-17,25574194,-5
32-18,25578100,-14
32-19,25582006,-34
32-20,25585912,-42
32-21,25589818,-27
32-22,25593724,-7
32-23,25597630,7
32-24,25601536,3
32-25,25605442,-11
32-26,25609348,-10
32-27,25613254,8
32-28,25617160,34
32-29,25621066,50
32-30,25624972,43
32-31,25628878,14
32-32,25632784,-12
32-1,25636848,-25
32-2,25640754,-24
32-3,25644660,-24
32-4,25648566,-32
32-5,25652472,-37
32-6,25656378,-36
32-7,25660284,-36
32-8,25664190,-37
32-9,25668096,-40
32-10,25672002,-41
32-11,25675908,-39
32-12,25679814,-42
32-13,25683720,-46
32-14,25687626,-55
32-15,25691532,-58
32-16,25695438,-59
32-17,25699344,-57
32-18,25703250,-53
32-19,25707156,-49
32-20,25711062,-44
32-21,25714968,-40
32-22,25718874,-35
32-23,25722780,-32
32-24,25726686,-37
32-25,25730592,-58
32-26,25734498,-69
32-27,25738404,-59
32-28,25742310,-41
32-29,25746216,-42
32-30,25750122,-69
32-31,25754028,-103
32-32,25757934,-117
32-1,25761846,-116
32-2,25765752,-101
32-3,25769658,-81
32-4,25773564,-58
32-5,25777470,-31
32-6,25781376,-19
32-7,25785282,-31
32-8,25789188,-47
32-9,25793094,-55
32-10,25797000,-49
32-11,25800906,-33
32-12,25804812,-12
32-13,25808718,9
32-14,25812624,19
32-15,25816530,15
32-16,25820436,-3
32-17,25824342,-25
32-18,25828248,-47
32-19,25832154,-50
32-20,25836060,-37
32-21,25839966,-18
32-22,25843872,-11
32-23,25847778,-16
32-24,25851684,-33
32-25,25855590,-47
32-26,25859496,-28
32-27,25863402,12
32-28,25867308,48
32-29,25871214,49
32-30,25875120,12
32-31,25879026,-44
32-32,25882932,-74
32-1,25886691,-62
32-2,25890597,-15
32-3,25894503,22
32-4,25898409,35
32-5,25902315,35
32-6,25906221,20
32-7,25910127,-10
32-8,25914033,-43
32-9,25917939,-57
32-10,25921845,-40
32-11,25925751,-6
32-12,25929657,19
32-13,25933563,18
32-14,25937469,-10
32-15,25941375,-38
32-16,25945281,-54
32-17,25949187,-46
32-18,25953093,-22
32-19,25956999,1
32-20,25960905,8
32-21,25964811,2
32-22,25968717,-5
32-23,25972623,0
32-24,25976529,-1
32-25,25980435,-17
32-26,25984341,-26
32-27,25988247,-19
32-28,25992153,-7
32-29,25996059,-18
32-30,25999965,-58
32-31,26003871,-100
32-32,26007777,-108
32-1,26011689,-91
32-2,26015595,-63
32-3,26019501,-49
32-4,26023407,-48
32-5,26027313,-41
32-6,26031219,-30
32-7,26035125,-18
32-8,26039031,-9
32-9,26042937,-7
32-10,26046843,-19
32-11,26050749,-26
32-12,26054655,-24
32-13,26058561,-18
32-14,26062467,-21
32-15,26066373,-34
32-16,26070279,-49
32-17,26074185,-51
32-18,26078091,-47
32-19,26081997,-39
32-20,26085903,-32
32-21,26089809,-26
32-22,26093715,-21
32-23,26097621,-11
32-24,26101527,-3
32-25,26105433,0
32-26,26109339,8
32-27,26113245,14
32-28,26117151,25
32-29,26121057,33
32-30,26124963,29
32-31,26128869,1
32-32,26132775,-33
32-1,26136686,-59
32-2,26140592,-56
32-3,26144498,-38
32-4,26148404,-21
32-5,26152310,-9
32-6,26156216,-11
32-7,26160122,-27
32-8,26164028,-41
32-9,26167934,-43
32-10,26171840,-32
32-11,26175746,-13
32-12,26179652,-7
32-13,26183558,-16
32-14,26187464,-33
32-15,26191370,-48
32-16,26195276,-58
32-17,26199182,-56
32-18,26203088,-42
32-19,26206994,-22
32-20,26210900,-16
32-21,26214806,-30
32-22,26218712,-54
32-23,26222618,-70
32-24,26226524,-78
32-25,26230430,-79
32-26,26234336,-61
32-27,26238242,-29
32-28,26242148,4
32-29,26246054,5
32-30,26249960,-31
32-31,26253866,-76
32-32,26257772,-86
32-1,26261684,-63
32-2,26265590,-27
32-3,26269496,-14
32-4,26273402,-30
32-5,26277308,-55
32-6,26281214,-75
32-7,26285120,-77
32-8,26289026,-65
32-9,26292932,-54
32-10,26296838,-56
32-11,26300744,-68
32-12,26304650,-75
32-13,26308556,-71
32-14,26312462,-62
32-15,26316368,-54
32-16,26320274,-51
32-17,26324180,-42
32-18,26328086,-34
32-19,26331992,-29
32-20,26335898,-33
32-21,26339804,-37
32-22,26343710,-40
32-23,26347616,-43
32-24,26351522,-46
32-25,26355428,-48
32-26,26359334,-36
32-27,26363240,-22
32-28,26367146,-15
32-29,26371052,-21
32-30,26374958,-35
32-31,26378864,-52
32-32,26382770,-56
32-1,26387048,-44
32-2,26390954,-25
32-3,26394860,-14
32-4,26398766,-16
32-5,26402672,-22
32-6,26406578,-28
32-7,26410484,-34
32-8,26414390,-38
32-9,26418296,-36
32-10,26422202,-32
32-11,26426108,-31
32-12,26430014,-37
32-13,26433920,-48
32-14,26437826,-56
32-15,26441732,-50
32-16,26445638,-46
32-17,26449544,-56
32-18,26453450,-72
32-19,26457356,-78
32-20,26461262,-71
32-21,26465168,-57
32-22,26469074,-49
32-23,26472980,-46
32-24,26476886,-51
32-25,26480792,-65
32-26,26484698,-68
32-27,26488604,-59
32-28,26492510,-36
32-29,26496416,-15
32-30,26500322,-8
32-31,26504228,-18
32-32,26508134,-30
32-1,26512040,-42
32-2,26515946,-41
32-3,26519852,-32
32-4,26523758,-22
32-5,26527664,-12
32-6,26531570,-17
32-7,26535476,-32
32-8,26539382,-45
32-9,26543288,-51
32-10,26547194,-54
32-11,26551100,-56
32-12,26555006,-53
32-13,26558912,-42
32-14,26562818,-40
32-15,26566724,-44
32-16,26570630,-49
32-17,26574536,-39
32-18,26578442,-24
32-19,26582348,-17
32-20,26586254,-20
32-21,26590160,-28
32-22,26594066,-39
32-23,26597972,-41
32-24,26601878,-50
32-25,26605784,-71
32-26,26609690,-65
32-27,26613596,-36
32-28,26617502,3
32-29,26621408,23
32-30,26625314,1
32-31,26629220,-45
32-32,26633126,-78
32-1,26636677,-79
32-2,26640583,-48
32-3,26644489,-19
32-4,26648395,-15
32-5,26652301,-16
32-6,26656207,-21
32-7,26660113,-25
32-8,26664019,-26
32-9,26667925,-23
32-10,26671831,-19
32-11,26675737,-14
32-12,26679643,-11
32-13,26683549,-12
32-14,26687455,-18
32-15,26691361,-28
32-16,26695267,-44
32-17,26699173,-51
32-18,26703079,-46
32-19,26706985,-30
32-20,26710891,-17
32-21,26714797,-15
32-22,26718703,-20
32-23,26722609,-18
32-24,26726515,-6
32-25,26730421,5
32-26,26734327,23
32-27,26738233,42
32-28,26742139,55
32-29,26746045,43
32-30,26749951,10
32-31,26753857,-26
32-32,26757763,-42
32-1,26761669,-36
32-2,26765575,-21
32-3,26769481,-14
32-4,26773387,-23
32-5,26777293,-38
32-6,26781199,-60
32-7,26785105,-72
32-8,26789011,-60
32-9,26792917,-27
32-10,26796823,8
32-11,26800729,29
32-12,26804635,34
32-13,26808541,33
32-14,26812447,26
32-15,26816353,16
32-16,26820259,1
32-17,26824165,-15
32-18,26828071,-28
32-19,26831977,-31
32-20,26835883,-24
32-21,26839789,-13
32-22,26843695,-8
32-23,26847601,-10
32-24,26851507,-12
32-25,26855413,-9
32-26,26859319,8
32-27,26863225,22
32-28,26867131,16
32-29,26871037,-11
32-30,26874943,-41
32-31,26878849,-59
32-32,26882755,-51
32-1,26886672,-30
32-2,26890578,-3
32-3,26894484,12
32-4,26898390,4
32-5,26902296,-6
32-6,26906202,-12
32-7,26910108,-9
32-8,26914014,2
32-9,26917920,13
32-10,26921826,13
32-11,26925732,2
32-12,26929638,-16
32-13,26933544,-24
32-14,26937450,-22
32-15,26941356,-13
32-16,26945262,-6
32-17,26949168,-5
32-18,26953074,-12
32-19,26956980,-21
32-20,26960886,-30
32-21,26964792,-38
32-22,26968698,-46
32-23,26972604,-49
32-24,26976510,-54
32-25,26980416,-68
32-26,26984322,-68
32-27,26988228,-51
32-28,26992134,-20
32-29,26996040,-2
32-30,26999946,-10
32-31,27003852,-34
32-32,27007758,-50
32-1,27011670,-56
32-2,27015576,-54
32-3,27019482,-57
32-4,27023388,-67
32-5,27027294,-71
32-6,27031200,-68
32-7,27035106,-58
32-8,27039012,-47
32-9,27042918,-41
32-10,27046824,-40
32-11,27050730,-39
32-12,27054636,-36
32-13,27058542,-33
32-14,27062448,-36
32-15,27066354,-38
32-16,27070260,-29
32-17,27074166,-1
32-18,27078072,28
32-19,27081978,37
32-20,27085884,21
32-21,27089790,-7
32-22,27093696,-32
32-23,27097602,-48
32-24,27101508,-51
32-25,27105414,-47
32-26,27109320,-27
32-27,27113226,-3
32-28,27117132,18
32-29,27121038,24
32-30,27124944,10
32-31,27128850,-18
32-32,27132756,-37
32-1,27136850,-41
32-2,27140756,-28
32-3,27144662,-14
32-4,27148568,-10
32-5,27152474,-7
32-6,27156380,-10
32-7,27160286,-24
32-8,27164192,-39
32-9,27168098,-45
32-10,27172004,-32
32-11,27175910,0
32-12,27179816,27
32-13,27183722,35
32-14,27187628,22
32-15,27191534,4
32-16,27195440,-16
32-17,27199346,-28
32-18,27203252,-36
32-19,27207158,-39
32-20,27211064,-39
32-21,27214970,-39
32-22,27218876,-37
32-23,27222782,-29
32-24,27226688,-24
32-25,27230594,-24
32-26,27234500,-14
32-27,27238406,10
32-28,27242312,36
32-29,27246218,36
32-30,27250124,1
32-31,27254030,-43
32-32,27257936,-61
32-1,27261665,-56
32-2,27265571,-42
32-3,27269477,-38
32-4,27273383,-44
32-5,27277289,-38
32-6,27281195,-30
32-7,27285101,-26
32-8,27289007,-27
32-9,27292913,-34
32-10,27296819,-40
32-11,27300725,-39
32-12,27304631,-33
32-13,27308537,-18
32-14,27312443,-4
32-15,27316349,0
32-16,27320255,-10
32-17,27324161,-26
32-18,27328067,-38
32-19,27331973,-41
32-20,27335879,-37
32-21,27339785,-31
32-22,27343691,-31
32-23,27347597,-35
32-24,27351503,-42
32-25,27355409,-51
32-26,27359315,-33
32-27,27363221,-6
32-28,27367127,16
32-29,27371033,17
32-30,27374939,-8
32-31,27378845,-39
32-32,27382751,-51
32-1,27386663,-43
32-2,27390569,-20
32-3,27394475,-3
32-4,27398381,-3
32-5,27402287,-5
32-6,27406193,-14
32-7,27410099,-32
32-8,27414005,-54
32-9,27417911,-71
32-10,27421817,-78
32-11,27425723,-74
32-12,27429629,-69
32-13,27433535,-62
32-14,27437441,-58
32-15,27441347,-51
32-16,27445253,-44
32-17,27449159,-37
32-18,27453065,-26
32-19,27456971,-13
32-20,27460877,-2
32-21,27464783,1
32-22,27468689,-6
32-23,27472595,-17
32-24,27476501,-28
32-25,27480407,-36
32-26,27484313,-25
32-27,27488219,-2
32-28,27492125,18
32-29,27496031,16
32-30,27499937,-7
32-31,27503843,-31
32-32,27507749,-34
32-1,27511660,-26
32-2,27515566,-15
32-3,27519472,-14
32-4,27523378,-19
32-5,27527284,-22
32-6,27531190,-33
32-7,27535096,-51
32-8,27539002,-68
32-9,27542908,-71
32-10,27546814,-62
32-11,27550720,-46
32-12,27554626,-35
32-13,27558532,-32
32-14,27562438,-38
32-15,27566344,-43
32-16,27570250,-37
32-17,27574156,-24
32-18,27578062,-21
32-19,27581968,-30
32-20,27585874,-48
32-21,27589780,-62
32-22,27593686,-65
32-23,27597592,-55
32-24,27601498,-42
32-25,27605404,-32
32-26,27609310,-19
32-27,27613216,-6
32-28,27617122,7
32-29,27621028,9
32-30,27624934,-3
32-31,27628840,-31
32-32,27632746,-59
32-1,27636658,-72
32-2,27640564,-63
32-3,27644470,-50
32-4,27648376,-46
32-5,27652282,-43
32-6,27656188,-37
32-7,27660094,-25
32-8,27664000,-12
32-9,27667906,1
32-10,27671812,11
32-11,27675718,14
32-12,27679624,3
32-13,27683530,-13
32-14,27687436,-25
32-15,27691342,-25
32-16,27695248,-15
32-17,27699154,-4
32-18,27703060,2
32-19,27706966,2
32-20,27710872,-7
32-21,27714778,-28
32-22,27718684,-45
32-23,27722590,-50
32-24,27726496,-51
32-25,27730402,-53
32-26,27734308,-46
32-27,27738214,-25
32-28,27742120,3
32-29,27746026,12
32-30,27749932,-3
32-31,27753838,-31
32-32,27757744,-44
32-1,27761656,-45
32-2,27765562,-50
32-3,27769468,-63
32-4,27773374,-67
32-5,27777280,-47
32-6,27781186,-21
32-7,27785092,-9
32-8,27788998,-18
32-9,27792904,-33
32-10,27796810,-41
32-11,27800716,-34
32-12,27804622,-20
32-13,27808528,-6
32-14,27812434,-5
32-15,27816340,-16
32-16,27820246,-28
32-17,27824152,-31
32-18,27828058,-25
32-19,27831964,-22
32-20,27835870,-28
32-21,27839776,-33
32-22,27843682,-31
32-23,27847588,-24
32-24,27851494,-22
32-25,27855400,-41
32-26,27859306,-58
32-27,27863212,-64
32-28,27867118,-51
32-29,27871024,-39
32-30,27874930,-37
32-31,27878836,-45
32-32,27882742,-47
32-1,27886836,-38
32-2,27890742,-20
32-3,27894648,-16
32-4,27898554,-29
32-5,27902460,-39
32-6,27906366,-41
32-7,27910272,-35
32-8,27914178,-29
32-9,27918084,-22
32-10,27921990,-20
32-11,27925896,-19
32-12,27929802,-16
32-13,27933708,-6
32-14,27937614,9
32-15,27941520,25
32-16,27945426,27
32-17,27949332,11
32-18,27953238,-9
32-19,27957144,-12
32-20,27961050,-1
32-21,27964956,2
32-22,27968862,-11
32-23,27972768,-29
32-24,27976674,-38
32-25,27980580,-43
32-26,27984486,-37
32-27,27988392,-32
32-28,27992298,-25
32-29,27996204,-25
32-30,28000110,-32
32-31,28004016,-43
32-32,28007922,-45
32-1,28011651,-43
32-2,28015557,-38
32-3,28019463,-27
32-4,28023369,-13
32-5,28027275,5
32-6,28031181,6
32-7,28035087,-9
32-8,28038993,-27
32-9,28042899,-32
32-10,28046805,-29
32-11,28050711,-30
32-12,28054617,-50
32-13,28058523,-76
32-14,28062429,-89
32-15,28066335,-81
32-16,28070241,-58
32-17,28074147,-37
32-18,28078053,-30
32-19,28081959,-35
32-20,28085865,-44
32-21,28089771,-50
32-22,28093677,-55
32-23,28097583,-59
32-24,28101489,-59
32-25,28105395,-61
32-26,28109301,-39
32-27,28113207,-3
32-28,28117113,28
32-29,28121019,30
32-30,28124925,-8
32-31,28128831,-61
32-32,28132737,-90
32-1,28136643,-79
32-2,28140549,-39
32-3,28144455,-6
32-4,28148361,-6
32-5,28152267,-20
32-6,28156173,-41
32-7,28160079,-61
32-8,28163985,-76
32-9,28167891,-82
32-10,28171797,-82
32-11,28175703,-75
32-12,28179609,-73
32-13,28183515,-71
32-14,28187421,-70
32-15,28191327,-68
32-16,28195233,-65
32-17,28199139,-64
32-18,28203045,-58
32-19,28206951,-43
32-20,28210857,-25
32-21,28214763,-15
32-22,28218669,-16
32-23,28222575,-21
32-24,28226481,-31
32-25,28230387,-50
32-26,28234293,-55
32-27,28238199,-41
32-28,28242105,-10
32-29,28246011,9
32-30,28249917,-5
32-31,28253823,-37
32-32,28257729,-53
32-1,28261646,-40
32-2,28265552,-6
32-3,28269458,19
32-4,28273364,17
32-5,28277270,3
32-6,28281176,-16
32-7,28285082,-23
32-8,28288988,-11
32-9,28292894,8
32-10,28296800,11
32-11,28300706,-2
32-12,28304612,-26
32-13,28308518,-41
32-14,28312424,-47
32-15,28316330,-46
32-16,28320236,-37
32-17,28324142,-28
32-18,28328048,-26
32-19,28331954,-31
32-20,28335860,-34
32-21,28339766,-23
32-22,28343672,-3
32-23,28347578,13
32-24,28351484,8
32-25,28355390,-16
32-26,28359296,-25
32-27,28363202,-19
32-28,28367108,-7
32-29,28371014,-11
32-30,28374920,-32
32-31,28378826,-55
32-32,28382732,-58
32-1,28386644,-38
32-2,28390550,-10
32-3,28394456,-3
32-4,28398362,-21
32-5,28402268,-35
32-6,28406174,-34
32-7,28410080,-26
32-8,28413986,-24
32-9,28417892,-29
32-10,28421798,-38
32-11,28425704,-39
32-12,28429610,-37
32-13,28433516,-37
32-14,28437422,-38
32-15,28441328,-28
32-16,28445234,-16
32-17,28449140,-6
32-18,28453046,0
32-19,28456952,10
32-20,28460858,20
32-21,28464764,18
32-22,28468670,10
32-23,28472576,8
32-24,28476482,7
32-25,28480388,2
32-26,28484294,2
32-27,28488200,1
32-28,28492106,0
32-29,28496012,-14
32-30,28499918,-37
32-31,28503824,-48
32-32,28507730,-44
32-1,28511641,-33
32-2,28515547,-33
32-3,28519453,-48
32-4,28523359,-67
32-5,28527265,-69
32-6,28531171,-70
32-7,28535077,-70
32-8,28538983,-69
32-9,28542889,-66
32-10,28546795,-60
32-11,28550701,-55
32-12,28554607,-55
32-13,28558513,-51
32-14,28562419,-49
32-15,28566325,-53
32-16,28570231,-54
32-17,28574137,-49
32-18,28578043,-40
32-19,28581949,-36
32-20,28585855,-40
32-21,28589761,-43
32-22,28593667,-40
32-23,28597573,-36
32-24,28601479,-37
32-25,28605385,-46
32-26,28609291,-39
32-27,28613197,-20
32-28,28617103,8
32-29,28621009,26
32-30,28624915,21
32-31,28628821,2
32-32,28632727,-11
32-1,28636792,-12
32-2,28640698,-1
32-3,28644604,8
32-4,28648510,-1
32-5,28652416,-12
32-6,28656322,-23
32-7,28660228,-27
32-8,28664134,-27
32-9,28668040,-27
32-10,28671946,-34
32-11,28675852,-44
32-12,28679758,-51
32-13,28683664,-44
32-14,28687570,-30
32-15,28691476,-20
32-16,28695382,-27
32-17,28699288,-50
32-18,28703194,-68
32-19,28707100,-65
32-20,28711006,-47
32-21,28714912,-31
32-22,28718818,-25
32-23,28722724,-28
32-24,28726630,-40
32-25,28730536,-67
32-26,28734442,-85
32-27,28738348,-82
32-28,28742254,-58
32-29,28746160,-42
32-30,28750066,-51
32-31,28753972,-71
32-32,28757878,-74
32-1,28761637,-61
32-2,28765543,-47
32-3,28769449,-47
32-4,28773355,-58
32-5,28777261,-61
32-6,28781167,-58
32-7,28785073,-53
32-8,28788979,-54
32-9,28792885,-60
32-10,28796791,-68
32-11,28800697,-64
32-12,28804603,-47
32-13,28808509,-24
32-14,28812415,-11
32-15,28816321,-16
32-16,28820227,-29
32-17,28824133,-31
32-18,28828039,-25
32-19,28831945,-18
32-20,28835851,-19
32-21,28839757,-20
32-22,28843663,-22
32-23,28847569,-28
32-24,28851475,-44
32-25,28855381,-69
32-26,28859287,-65
32-27,28863193,-35
32-28,28867099,2
32-29,28871005,15
32-30,28874911,-9
32-31,28878817,-52
32-32,28882723,-80
32-1,28886634,-79
32-2,28890540,-55
32-3,28894446,-28
32-4,28898352,-17
32-5,28902258,-3
32-6,28906164,6
32-7,28910070,10
32-8,28913976,4
32-9,28917882,-7
32-10,28921788,-18
32-11,28925694,-26
32-12,28929600,-28
32-13,28933506,-27
32-14,28937412,-23
32-15,28941318,-23
32-16,28945224,-29
32-17,28949130,-33
32-18,28953036,-26
32-19,28956942,-9
32-20,28960848,3
32-21,28964754,-5
32-22,28968660,-25
32-23,28972566,-40
32-24,28976472,-45
32-25,28980378,-52
32-26,28984284,-50
32-27,28988190,-40
32-28,28992096,-26
32-29,28996002,-25
32-30,28999908,-44
32-31,29003814,-68
32-32,29007720,-71
32-1,29011626,-56
32-2,29015532,-42
32-3,29019438,-42
32-4,29023344,-54
32-5,29027250,-55
32-6,29031156,-50
32-7,29035062,-41
32-8,29038968,-33
32-9,29042874,-26
32-10,29046780,-21
32-11,29050686,-15
32-12,29054592,-11
32-13,29058498,-12
32-14,29062404,-17
32-15,29066310,-24
32-16,29070216,-22
32-17,29074122,-8
32-18,29078028,1
32-19,29081934,-11
32-20,29085840,-34
32-21,29089746,-48
32-22,29093652,-45
32-23,29097558,-38
32-24,29101464,-38
32-25,29105370,-50
32-26,29109276,-51
32-27,29113182,-42
32-28,29117088,-25
32-29,29120994,-20
32-30,29124900,-30
32-31,29128806,-45
32-32,29132712,-47
32-1,29136629,-34
32-2,29140535,-14
32-3,29144441,-4
32-4,29148347,-15
32-5,29152253,-28
32-6,29156159,-29
32-7,29160065,-17
32-8,29163971,-10
32-9,29167877,-18
32-10,29171783,-35
32-11,29175689,-43
32-12,29179595,-40
32-13,29183501,-40
32-14,29187407,-54
32-15,29191313,-77
32-16,29195219,-97
32-17,29199125,-102
32-18,29203031,-97
32-19,29206937,-88
32-20,29210843,-84
32-21,29214749,-91
32-22,29218655,-98
32-23,29222561,-96
32-24,29226467,-91
32-25,29230373,-95
32-26,29234279,-101
32-27,29238185,-100
32-28,29242091,-82
32-29,29245997,-60
32-30,29249903,-45
32-31,29253809,-38
32-32,29257715,-34
32-1,29261627,-27
32-2,29265533,-22
32-3,29269439,-30
32-4,29273345,-52
32-5,29277251,-69
32-6,29281157,-80
32-7,29285063,-77
32-8,29288969,-59
32-9,29292875,-34
32-10,29296781,-18
32-11,29300687,-20
32-12,29304593,-33
32-13,29308499,-43
32-14,29312405,-45
32-15,29316311,-38
32-16,29320217,-23
32-17,29324123,-13
32-18,29328029,-12
32-19,29331935,-19
32-20,29335841,-24
32-21,29339747,-15
32-22,29343653,-2
32-23,29347559,2
32-24,29351465,-7
32-25,29355371,-23
32-26,29359277,-16
32-27,29363183,3
32-28,29367089,23
32-29,29370995,33
32-30,29374901,28
32-31,29378807,16
32-32,29382713,5
32-1,29386808,-3
32-2,29390714,-2
32-3,29394620,-6
32-4,29398526,-26
32-5,29402432,-45
32-6,29406338,-63
32-7,29410244,-64
32-8,29414150,-53
32-9,29418056,-45
32-10,29421962,-43
32-11,29425868,-40
32-12,29429774,-29
32-13,29433680,-13
32-14,29437586,-3
32-15,29441492,-5
32-16,29445398,-12
32-17,29449304,-15
32-18,29453210,-12
32-19,29457116,-12
32-20,29461022,-21
32-21,29464928,-41
32-22,29468834,-52
32-23,29472740,-46
32-24,29476646,-34
32-25,29480552,-38
32-26,29484458,-44
32-27,29488364,-36
32-28,29492270,-6
32-29,29496176,22
32-30,29500082,25
32-31,29503988,6
32-32,29507894,-12
32-1,29511622,-20
32-2,29515528,-26
32-3,29519434,-38
32-4,29523340,-57
32-5,29527246,-59
32-6,29531152,-49
32-7,29535058,-34
32-8,29538964,-26
32-9,29542870,-24
32-10,29546776,-26
32-11,29550682,-25
32-12,29554588,-17
32-13,29558494,-4
32-14,29562400,8
32-15,29566306,13
32-16,29570212,14
32-17,29574118,13
32-18,29578024,11
32-19,29581930,1
32-20,29585836,-12
32-21,29589742,-22
32-22,29593648,-25
32-23,29597554,-24
32-24,29601460,-27
32-25,29605366,-41
32-26,29609272,-34
32-27,29613178,-10
32-28,29617084,23
32-29,29620990,42
32-30,29624896,27
32-31,29628802,-12
32-32,29632708,-41
32-1,29636620,-35
32-2,29640526,1
32-3,29644432,34
32-4,29648338,36
32-5,29652244,27
32-6,29656150,18
32-7,29660056,13
32-8,29663962,4
32-9,29667868,-10
32-10,29671774,-22
32-11,29675680,-17
32-12,29679586,-3
32-13,29683492,2
32-14,29687398,-13
32-15,29691304,-32
32-16,29695210,-39
32-17,29699116,-29
32-18,29703022,-10
32-19,29706928,6
32-20,29710834,13
32-21,29714740,5
32-22,29718646,-5
32-23,29722552,-9
32-24,29726458,-8
32-25,29730364,-5
32-26,29734270,6
32-27,29738176,19
32-28,29742082,29
32-29,29745988,20
32-30,29749894,-8
32-31,29753800,-38
32-32,29757706,-54
32-1,29761618,-52
32-2,29765524,-42
32-3,29769430,-33
32-4,29773336,-30
32-5,29777242,-31
32-6,29781148,-42
32-7,29785054,-47
32-8,29788960,-42
32-9,29792866,-27
32-10,29796772,-24
32-11,29800678,-35
32-12,29804584,-47
32-13,29808490,-45
32-14,29812396,-32
32-15,29816302,-19
32-16,29820208,-20
32-17,29824114,-35
32-18,29828020,-48
32-19,29831926,-57
32-20,29835832,-58
32-21,29839738,-54
32-22,29843644,-53
32-23,29847550,-58
32-24,29851456,-70
32-25,29855362,-78
32-26,29859268,-60
32-27,29863174,-27
32-28,29867080,3
32-29,29870986,14
32-30,29874892,-1
32-31,29878798,-30
32-32,29882704,-54
32-1,29886615,-61
32-2,29890521,-46
32-3,29894427,-24
32-4,29898333,-17
32-5,29902239,-18
32-6,29906145,-29
32-7,29910051,-40
32-8,29913957,-43
32-9,29917863,-30
32-10,29921769,-8
32-11,29925675,11
32-12,29929581,7
32-13,29933487,-14
32-14,29937393,-28
32-15,29941299,-17
32-16,29945205,3
32-17,29949111,4
32-18,29953017,-19
32-19,29956923,-48
32-20,29960829,-56
32-21,29964735,-47
32-22,29968641,-29
32-23,29972547,-15
32-24,29976453,-14
32-25,29980359,-26
32-26,29984265,-33
32-27,29988171,-34
32-28,29992077,-24
32-29,29995983,-25
32-30,29999889,-45
32-31,30003795,-70
32-32,30007701,-79
32-1,30011613,-70
32-2,30015519,-54
32-3,30019425,-47
32-4,30023331,-50
32-5,30027237,-51
32-6,30031143,-55
32-7,30035049,-58
32-8,30038955,-58
32-9,30042861,-54
32-10,30046767,-53
32-11,30050673,-55
32-12,30054579,-58
32-13,30058485,-58
32-14,30062391,-57
32-15,30066297,-55
32-16,30070203,-51
32-17,30074109,-48
32-18,30078015,-47
32-19,30081921,-49
32-20,30085827,-46
32-21,30089733,-35
32-22,30093639,-21
32-23,30097545,-17
32-24,30101451,-27
32-25,30105357,-44
32-26,30109263,-43
32-27,30113169,-27
32-28,30117075,-5
32-29,30120981,9
32-30,30124887,8
32-31,30128793,-7
32-32,30132699,-23
32-1,30136611,-34
32-2,30140517,-31
32-3,30144423,-22
32-4,30148329,-25
32-5,30152235,-30
32-6,30156141,-40
32-7,30160047,-50
32-8,30163953,-55
32-9,30167859,-52
32-10,30171765,-39
32-11,30175671,-18
32-12,30179577,-8
32-13,30183483,-12
32-14,30187389,-27
32-15,30191295,-44
32-16,30195201,-56
32-17,30199107,-63
32-18,30203013,-62
32-19,30206919,-50
32-20,30210825,-30
32-21,30214731,-19
32-22,30218637,-20
32-23,30222543,-26
32-24,30226449,-28
32-25,30230355,-33
32-26,30234261,-32
32-27,30238167,-20
32-28,30242073,-3
32-29,30245979,0
32-30,30249885,-20
32-31,30253791,-54
32-32,30257697,-74
32-1,30261608,-70
32-2,30265514,-55
32-3,30269420,-46
32-4,30273326,-51
32-5,30277232,-52
32-6,30281138,-54
32-7,30285044,-56
32-8,30288950,-57
32-9,30292856,-49
32-10,30296762,-35
32-11,30300668,-18
32-12,30304574,-1
32-13,30308480,9
32-14,30312386,11
32-15,30316292,7
32-16,30320198,1
32-17,30324104,-6
32-18,30328010,-8
32-19,30331916,-8
32-20,30335822,-1
32-21,30339728,1
32-22,30343634,-4
32-23,30347540,-19
32-24,30351446,-40
32-25,30355352,-60
32-26,30359258,-55
32-27,30363164,-32
32-28,30367070,-5
32-29,30370976,5
32-30,30374882,-6
32-31,30378788,-29
32-32,30382694,-49
32-1,30386600,-56
32-2,30390506,-45
32-3,30394412,-24
32-4,30398318,-10
32-5,30402224,-1
32-6,30406130,-11
32-7,30410036,-31
32-8,30413942,-49
32-9,30417848,-50
32-10,30421754,-41
32-11,30425660,-31
32-12,30429566,-31
32-13,30433472,-36
32-14,30437378,-37
32-15,30441284,-31
32-16,30445190,-18
32-17,30449096,-6
32-18,30453002,7
32-19,30456908,20
32-20,30460814,26
32-21,30464720,19
32-22,30468626,5
32-23,30472532,-4
32-24,30476438,-4
32-25,30480344,-9
32-26,30484250,-14
32-27,30488156,-13
32-28,30492062,-7
32-29,30495968,-6
32-30,30499874,-17
32-31,30503780,-31
32-32,30507686,-28
32-1,30511603,-5
32-2,30515509,15
32-3,30519415,20
32-4,30523321,2
32-5,30527227,-15
32-6,30531133,-32
32-7,30535039,-45
32-8,30538945,-50
32-9,30542851,-45
32-10,30546757,-43
32-11,30550663,-44
32-12,30554569,-48
32-13,30558475,-55
32-14,30562381,-63
32-15,30566287,-69
32-16,30570193,-66
32-17,30574099,-51
32-18,30578005,-33
32-19,30581911,-28
32-20,30585817,-27
32-21,30589723,-24
32-22,30593629,-15
32-23,30597535,-9
32-24,30601441,-23
32-25,30605347,-57
32-26,30609253,-77
32-27,30613159,-81
32-28,30617065,-72
32-29,30620971,-62
32-30,30624877,-64
32-31,30628783,-64
32-32,30632689,-54
32-1,30636662,-34
32-2,30640568,-12
32-3,30644474,-5
32-4,30648380,-20
32-5,30652286,-31
32-6,30656192,-38
32-7,30660098,-37
32-8,30664004,-40
32-9,30667910,-51
32-10,30671816,-62
32-11,30675722,-64
32-12,30679628,-67
32-13,30683534,-74
32-14,30687440,-81
32-15,30691346,-76
32-16,30695252,-60
32-17,30699158,-53
32-18,30703064,-55
32-19,30706970,-65
32-20,30710876,-73
32-21,30714782,-74
32-22,30718688,-73
32-23,30722594,-74
32-24,30726500,-74
32-25,30730406,-76
32-26,30734312,-64
32-27,30738218,-43
32-28,30742124,-24
32-29,30746030,-22
32-30,30749936,-31
32-31,30753842,-32
32-32,30757748,-14
32-1,30761599,6
32-2,30765505,5
32-3,30769411,-23
32-4,30773317,-60
32-5,30777223,-72
32-6,30781129,-72
32-7,30785035,-74
32-8,30788941,-87
32-9,30792847,-101
32-10,30796753,-109
32-11,30800659,-105
32-12,30804565,-86
32-13,30808471,-61
32-14,30812377,-44
32-15,30816283,-52
32-16,30820189,-76
32-17,30824095,-101
32-18,30828001,-104
32-19,30831907,-85
32-20,30835813,-58
32-21,30839719,-36
32-22,30843625,-25
32-23,30847531,-19
32-24,30851437,-15
32-25,30855343,-17
32-26,30859249,-13
32-27,30863155,-7
32-28,30867061,-5
32-29,30870967,-8
32-30,30874873,-16
32-31,30878779,-23
32-32,30882685,-24
32-1,30886596,-27
32-2,30890502,-31
32-3,30894408,-37
32-4,30898314,-42
32-5,30902220,-27
32-6,30906126,-6
32-7,30910032,8
32-8,30913938,5
32-9,30917844,-6
32-10,30921750,-18
32-11,30925656,-21
32-12,30929562,-11
32-13,30933468,0
32-14,30937374,6
32-15,30941280,1
32-16,30945186,-14
32-17,30949092,-32
32-18,30952998,-41
32-19,30956904,-37
32-20,30960810,-25
32-21,30964716,-25
32-22,30968622,-39
32-23,30972528,-46
32-24,30976434,-45
32-25,30980340,-42
32-26,30984246,-30
32-27,30988152,-13
32-28,30992058,7
32-29,30995964,14
32-30,30999870,-8
32-31,31003776,-45
32-32,31007682,-70
32-1,31011594,-71
32-2,31015500,-61
32-3,31019406,-52
32-4,31023312,-54
32-5,31027218,-47
32-6,31031124,-41
32-7,31035030,-33
32-8,31038936,-27
32-9,31042842,-22
32-10,31046748,-22
32-11,31050654,-21
32-12,31054560,-21
32-13,31058466,-19
32-14,31062372,-20
32-15,31066278,-29
32-16,31070184,-39
32-17,31074090,-44
32-18,31077996,-34
32-19,31081902,-22
32-20,31085808,-13
32-21,31089714,-4
32-22,31093620,5
32-23,31097526,6
32-24,31101432,-4
32-25,31105338,-23
32-26,31109244,-21
32-27,31113150,-2
32-28,31117056,13
32-29,31120962,7
32-30,31124868,-29
32-31,31128774,-72
32-32,31132680,-96
32-1,31136592,-88
32-2,31140498,-53
32-3,31144404,-14
32-4,31148310,-3
32-5,31152216,-8
32-6,31156122,-23
32-7,31160028,-30
32-8,31163934,-33
32-9,31167840,-35
32-10,31171746,-38
32-11,31175652,-34
32-12,31179558,-19
32-13,31183464,-4
32-14,31187370,-1
32-15,31191276,-11
32-16,31195182,-23
32-17,31199088,-25
32-18,31202994,-20
32-19,31206900,-16
32-20,31210806,-23
32-21,31214712,-45
32-22,31218618,-66
32-23,31222524,-69
32-24,31226430,-54
32-25,31230336,-39
32-26,31234242,-27
32-27,31238148,-16
32-28,31242054,-4
32-29,31245960,3
32-30,31249866,-7
32-31,31253772,-25
32-32,31257678,-31
32-1,31261711,-26
32-2,31265617,-21
32-3,31269523,-21
32-4,31273429,-24
32-5,31277335,-8
32-6,31281241,8
32-7,31285147,7
32-8,31289053,-17
32-9,31292959,-45
32-10,31296865,-57
32-11,31300771,-49
32-12,31304677,-30
32-13,31308583,-13
32-14,31312489,-7
32-15,31316395,-14
32-16,31320301,-26
32-17,31324207,-35
32-18,31328113,-36
32-19,31332019,-41
32-20,31335925,-48
32-21,31339831,-57
32-22,31343737,-63
32-23,31347643,-60
32-24,31351549,-57
32-25,31355455,-58
32-26,31359361,-50
32-27,31363267,-41
32-28,31367173,-36
32-29,31371079,-40
32-30,31374985,-58
32-31,31378891,-77
32-32,31382797,-88
32-1,31386587,-78
32-2,31390493,-53
32-3,31394399,-30
32-4,31398305,-26
32-5,31402211,-31
32-6,31406117,-42
32-7,31410023,-46
32-8,31413929,-49
32-9,31417835,-53
32-10,31421741,-56
32-11,31425647,-52
32-12,31429553,-45
32-13,31433459,-47
32-14,31437365,-46
32-15,31441271,-35
32-16,31445177,-15
32-17,31449083,0
32-18,31452989,-1
32-19,31456895,-16
32-20,31460801,-31
32-21,31464707,-42
32-22,31468613,-41
32-23,31472519,-28
32-24,31476425,-14
32-25,31480331,-10
32-26,31484237,-5
32-27,31488143,0
32-28,31492049,4
32-29,31495955,-2
32-30,31499861,-18
32-31,31503767,-35
32-32,31507673,-47
32-1,31511585,-51
32-2,31515491,-55
32-3,31519397,-64
32-4,31523303,-70
32-5,31527209,-58
32-6,31531115,-44
32-7,31535021,-35
32-8,31538927,-33
32-9,31542833,-31
32-10,31546739,-30
32-11,31550645,-33
32-12,31554551,-38
32-13,31558457,-42
32-14,31562363,-48
32-15,31566269,-51
32-16,31570175,-45
32-17,31574081,-36
32-18,31577987,-22
32-19,31581893,-11
32-20,31585799,-2
32-21,31589705,3
32-22,31593611,-2
32-23,31597517,-14
32-24,31601423,-24
32-25,31605329,-26
32-26,31609235,-9
32-27,31613141,11
32-28,31617047,20
32-29,31620953,15
32-30,31624859,-8
32-31,31628765,-33
32-32,31632671,-47
32-1,31636582,-45
32-2,31640488,-29
32-3,31644394,-13
32-4,31648300,-13
32-5,31652206,-17
32-6,31656112,-23
32-7,31660018,-21
32-8,31663924,-21
32-9,31667830,-27
32-10,31671736,-29
32-11,31675642,-19
32-12,31679548,3
32-13,31683454,23
32-14,31687360,28
32-15,31691266,17
32-16,31695172,5
32-17,31699078,-4
32-18,31702984,-8
32-19,31706890,-14
32-20,31710796,-19
32-21,31714702,-20
32-22,31718608,-10
32-23,31722514,8
32-24,31726420,19
32-25,31730326,7
32-26,31734232,-6
32-27,31738138,-3
32-28,31742044,20
32-29,31745950,42
32-30,31749856,46
32-31,31753762,36
32-32,31757668,23
32-1,31761580,14
32-2,31765486,6
32-3,31769392,1
32-4,31773298,-1
32-5,31777204,8
32-6,31781110,3
32-7,31785016,-14
32-8,31788922,-26
32-9,31792828,-23
32-10,31796734,-17
32-11,31800640,-25
32-12,31804546,-43
32-13,31808452,-53
32-14,31812358,-44
32-15,31816264,-24
32-16,31820170,-4
32-17,31824076,3
32-18,31827982,4
32-19,31831888,4
32-20,31835794,7
32-21,31839700,13
32-22,31843606,19
32-23,31847512,22
32-24,31851418,21
32-25,31855324,11
32-26,31859230,15
32-27,31863136,31
32-28,31867042,36
32-29,31870948,23
32-30,31874854,-11
32-31,31878760,-51
32-32,31882666,-76
32-1,31886730,-77
32-2,31890636,-56
32-3,31894542,-26
32-4,31898448,-9
32-5,31902354,2
32-6,31906260,1
32-7,31910166,-12
32-8,31914072,-29
32-9,31917978,-46
32-10,31921884,-53
32-11,31925790,-57
32-12,31929696,-62
32-13,31933602,-67
32-14,31937508,-66
32-15,31941414,-52
32-16,31945320,-37
32-17,31949226,-39
32-18,31953132,-55
32-19,31957038,-71
32-20,31960944,-68
32-21,31964850,-57
32-22,31968756,-53
32-23,31972662,-54
32-24,31976568,-47
32-25,31980474,-34
32-26,31984380,-10
32-27,31988286,13
32-28,31992192,26
32-29,31996098,25
32-30,32000004,9
32-31,32003910,-12
32-32,32007816,-28
32-1,32011575,-38
32-2,32015481,-42
32-3,32019387,-41
32-4,32023293,-35
32-5,32027199,-24
32-6,32031105,-23
32-7,32035011,-37
32-8,32038917,-50
32-9,32042823,-53
32-10,32046729,-50
32-11,32050635,-49
32-12,32054541,-52
32-13,32058447,-56
32-14,32062353,-57
32-15,32066259,-62
32-16,32070165,-64
32-17,32074071,-57
32-18,32077977,-42
32-19,32081883,-30
32-20,32085789,-33
32-21,32089695,-49
32-22,32093601,-62
32-23,32097507,-60
32-24,32101413,-54
32-25,32105319,-52
32-26,32109225,-44
32-27,32113131,-35
32-28,32117037,-27
32-29,32120943,-23
32-30,32124849,-30
32-31,32128755,-41
32-32,32132661,-46
32-1,32136573,-42
32-2,32140479,-32
32-3,32144385,-22
32-4,32148291,-28
32-5,32152197,-38
32-6,32156103,-52
32-7,32160009,-58
32-8,32163915,-58
32-9,32167821,-51
32-10,32171727,-42
32-11,32175633,-31
32-12,32179539,-21
32-13,32183445,-18
32-14,32187351,-18
32-15,32191257,-19
32-16,32195163,-25
32-17,32199069,-44
32-18,32202975,-68
32-19,32206881,-81
32-20,32210787,-67
32-21,32214693,-40
32-22,32218599,-20
32-23,32222505,-13
32-24,32226411,-19
32-25,32230317,-28
32-26,32234223,-20
32-27,32238129,-4
32-28,32242035,4
32-29,32245941,-9
32-30,32249847,-46
32-31,32253753,-78
32-32,32257659,-80
32-1,32261570,-56
32-2,32265476,-32
32-3,32269382,-33
32-4,32273288,-58
32-5,32277194,-73
32-6,32281100,-76
32-7,32285006,-70
32-8,32288912,-58
32-9,32292818,-49
32-10,32296724,-42
32-11,32300630,-40
32-12,32304536,-41
32-13,32308442,-41
32-14,32312348,-38
32-15,32316254,-35
32-16,32320160,-28
32-17,32324066,-22
32-18,32327972,-23
32-19,32331878,-32
32-20,32335784,-44
32-21,32339690,-52
32-22,32343596,-50
32-23,32347502,-42
32-24,32351408,-40
32-25,32355314,-48
32-26,32359220,-50
32-27,32363126,-42
32-28,32367032,-28
32-29,32370938,-13
32-30,32374844,-8
32-31,32378750,-6
32-32,32382656,-2
32-1,32386568,11
32-2,32390474,28
32-3,32394380,34
32-4,32398286,19
32-5,32402192,2
32-6,32406098,-13
32-7,32410004,-15
32-8,32413910,-11
32-9,32417816,-14
32-10,32421722,-30
32-11,32425628,-50
32-12,32429534,-59
32-13,32433440,-55
32-14,32437346,-42
32-15,32441252,-34
32-16,32445158,-37
32-17,32449064,-58
32-18,32452970,-75
32-19,32456876,-75
32-20,32460782,-57
32-21,32464688,-41
32-22,32468594,-39
32-23,32472500,-40
32-24,32476406,-37
32-25,32480312,-37
32-26,32484218,-34
32-27,32488124,-29
32-28,32492030,-26
32-29,32495936,-25
32-30,32499842,-33
32-31,32503748,-40
32-32,32507654,-42
32-1,32511718,-40
32-2,32515624,-42
32-3,32519530,-45
32-4,32523436,-47
32-5,32527342,-37
32-6,32531248,-31
32-7,32535154,-33
32-8,32539060,-38
32-9,32542966,-36
32-10,32546872,-29
32-11,32550778,-24
32-12,32554684,-16
32-13,32558590,-13
32-14,32562496,-19
32-15,32566402,-37
32-16,32570308,-56
32-17,32574214,-68
32-18,32578120,-69
32-19,32582026,-76
32-20,32585932,-87
32-21,32589838,-90
32-22,32593744,-78
32-23,32597650,-59
32-24,32601556,-53
32-25,32605462,-66
32-26,32609368,-62
32-27,32613274,-37
32-28,32617180,-6
32-29,32621086,3
32-30,32624992,-31
32-31,32628898,-81
32-32,32632804,-114
32-1,32636563,-111
32-2,32640469,-78
32-3,32644375,-45
32-4,32648281,-43
32-5,32652187,-53
32-6,32656093,-66
32-7,32659999,-72
32-8,32663905,-73
32-9,32667811,-75
32-10,32671717,-71
32-11,32675623,-56
32-12,32679529,-40
32-13,32683435,-35
32-14,32687341,-40
32-15,32691247,-52
32-16,32695153,-62
32-17,32699059,-72
32-18,32702965,-75
32-19,32706871,-68
32-20,32710777,-49
32-21,32714683,-34
32-22,32718589,-35
32-23,32722495,-46
32-24,32726401,-55
32-25,32730307,-57
32-26,32734213,-41
32-27,32738119,-13
32-28,32742025,14
32-29,32745931,19
32-30,32749837,-3
32-31,32753743,-29
32-32,32757649,-45
32-1,32761561,-44
32-2,32765467,-41
32-3,32769373,-44
32-4,32773279,-52
32-5,32777185,-50
32-6,32781091,-51
32-7,32784997,-52
32-8,32788903,-46
32-9,32792809,-27
32-10,32796715,0
32-11,32800621,10
32-12,32804527,3
32-13,32808433,-10
32-14,32812339,-16
32-15,32816245,-9
32-16,32820151,4
32-17,32824057,10
32-18,32827963,12
32-19,32831869,1
32-20,32835775,-15
32-21,32839681,-30
32-22,32843587,-42
32-23,32847493,-46
32-24,32851399,-47
32-25,32855305,-49
32-26,32859211,-46
32-27,32863117,-38
32-28,32867023,-32
32-29,32870929,-26
32-30,32874835,-20
32-31,32878741,-15
32-32,32882647,-11
32-1,32886558,-9
32-2,32890464,-7
32-3,32894370,-3
32-4,32898276,-6
32-5,32902182,-8
32-6,32906088,-8
32-7,32909994,-3
32-8,32913900,4
32-9,32917806,6
32-10,32921712,-2
32-11,32925618,-16
32-12,32929524,-23
32-13,32933430,-27
32-14,32937336,-29
32-15,32941242,-24
32-16,32945148,-18
32-17,32949054,-16
32-18,32952960,-19
32-19,32956866,-24
32-20,32960772,-25
32-21,32964678,-27
32-22,32968584,-31
32-23,32972490,-33
32-24,32976396,-35
32-25,32980302,-38
32-26,32984208,-39
32-27,32988114,-33
32-28,32992020,-18
32-29,32995926,5
32-30,32999832,18
32-31,33003738,16
32-32,33007644,6
32-1,33011556,4
32-2,33015462,8
32-3,33019368,15
32-4,33023274,15
32-5,33027180,15
32-6,33031086,12
32-7,33034992,9
32-8,33038898,10
32-9,33042804,10
32-10,33046710,-2
32-11,33050616,-24
32-12,33054522,-39
32-13,33058428,-40
32-14,33062334,-28
32-15,33066240,-18
32-16,33070146,-18
32-17,33074052,-27
32-18,33077958,-32
32-19,33081864,-38
32-20,33085770,-38
32-21,33089676,-29
32-22,33093582,-14
32-23,33097488,2
32-24,33101394,3
32-25,33105300,-10
32-26,33109206,-12
32-27,33113112,1
32-28,33117018,22
32-29,33120924,39
32-30,33124830,39
32-31,33128736,26
32-32,33132642,4
32-1,33136548,-18
32-2,33140454,-27
32-3,33144360,-18
32-4,33148266,-2
32-5,33152172,15
32-6,33156078,21
32-7,33159984,21
32-8,33163890,20
32-9,33167796,10
32-10,33171702,-7
32-11,33175608,-26
32-12,33179514,-33
32-13,33183420,-26
32-14,33187326,-12
32-15,33191232,-3
32-16,33195138,-4
32-17,33199044,-10
32-18,33202950,-11
32-19,33206856,-8
32-20,33210762,-8
32-21,33214668,-15
32-22,33218574,-30
32-23,33222480,-37
32-24,33226386,-37
32-25,33230292,-45
32-26,33234198,-51
32-27,33238104,-44
32-28,33242010,-17
32-29,33245916,12
32-30,33249822,8
32-31,33253728,-26
32-32,33257634,-61
32-1,33261551,-67
32-2,33265457,-44
32-3,33269363,-15
32-4,33273269,-5
32-5,33277175,-7
32-6,33281081,-23
32-7,33284987,-47
32-8,33288893,-67
32-9,33292799,-74
32-10,33296705,-64
32-11,33300611,-42
32-12,33304517,-19
32-13,33308423,-8
32-14,33312329,-12
32-15,33316235,-32
32-16,33320141,-51
32-17,33324047,-60
32-18,33327953,-48
32-19,33331859,-28
32-20,33335765,-21
32-21,33339671,-29
32-22,33343577,-49
32-23,33347483,-65
32-24,33351389,-78
32-25,33355295,-89
32-26,33359201,-78
32-27,33363107,-44
32-28,33367013,-7
32-29,33370919,14
32-30,33374825,5
32-31,33378731,-19
32-32,33382637,-37
32-1,33386549,-34
32-2,33390455,-19
32-3,33394361,-11
32-4,33398267,-21
32-5,33402173,-30
32-6,33406079,-33
32-7,33409985,-27
32-8,33413891,-18
32-9,33417797,-16
32-10,33421703,-17
32-11,33425609,-22
32-12,33429515,-22
32-13,33433421,-31
32-14,33437327,-45
32-15,33441233,-54
32-16,33445139,-47
32-17,33449045,-33
32-18,33452951,-19
32-19,33456857,-19
32-20,33460763,-21
32-21,33464669,-22
32-22,33468575,-21
32-23,33472481,-17
32-24,33476387,-20
32-25,33480293,-34
32-26,33484199,-41
32-27,33488105,-34
32-28,33492011,-19
32-29,33495917,-13
32-30,33499823,-27
32-31,33503729,-48
32-32,33507635,-55
32-1,33511547,-39
32-2,33515453,-21
32-3,33519359,-20
32-4,33523265,-42
32-5,33527171,-63
32-6,33531077,-73
32-7,33534983,-69
32-8,33538889,-59
32-9,33542795,-52
32-10,33546701,-50
32-11,33550607,-51
32-12,33554513,-45
32-13,33558419,-37
32-14,33562325,-31
32-15,33566231,-31
32-16,33570137,-26
32-17,33574043,-16
32-18,33577949,-9
32-19,33581855,-22
32-20,33585761,-44
32-21,33589667,-59
32-22,33593573,-56
32-23,33597479,-45
32-24,33601385,-46
32-25,33605291,-55
32-26,33609197,-51
32-27,33613103,-33
32-28,33617009,-27
32-29,33620915,-45
32-30,33624821,-85
32-31,33628727,-112
32-32,33632633,-110
32-1,33636544,-84
32-2,33640450,-54
32-3,33644356,-45
32-4,33648262,-61
32-5,33652168,-78
32-6,33656074,-83
32-7,33659980,-71
32-8,33663886,-57
32-9,33667792,-48
32-10,33671698,-46
32-11,33675604,-42
32-12,33679510,-33
32-13,33683416,-26
32-14,33687322,-17
32-15,33691228,-14
32-16,33695134,-19
32-17,33699040,-37
32-18,33702946,-52
32-19,33706852,-49
32-20,33710758,-22
32-21,33714664,6
32-22,33718570,15
32-23,33722476,13
32-24,33726382,8
32-25,33730288,5
32-26,33734194,5
32-27,33738100,1
32-28,33742006,-10
32-29,33745912,-24
32-30,33749818,-39
32-31,33753724,-42
32-32,33757630,-28
32-1,33761542,-2
32-2,33765448,17
32-3,33769354,14
32-4,33773260,-10
32-5,33777166,-31
32-6,33781072,-44
32-7,33784978,-55
32-8,33788884,-60
32-9,33792790,-60
32-10,33796696,-52
32-11,33800602,-42
32-12,33804508,-29
32-13,33808414,-19
32-14,33812320,-10
32-15,33816226,-9
32-16,33820132,-12
32-17,33824038,-19
32-18,33827944,-28
32-19,33831850,-45
32-20,33835756,-63
32-21,33839662,-68
32-22,33843568,-55
32-23,33847474,-31
32-24,33851380,-18
32-25,33855286,-21
32-26,33859192,-20
32-27,33863098,-10
32-28,33867004,-1
32-29,33870910,-8
32-30,33874816,-32
32-31,33878722,-54
32-32,33882628,-54
32-1,33886570,-31
32-2,33890476,1
32-3,33894382,27
32-4,33898288,30
32-5,33902194,13
32-6,33906100,-17
32-7,33910006,-46
32-8,33913912,-60
32-9,33917818,-63
32-10,33921724,-57
32-11,33925630,-48
32-12,33929536,-38
32-13,33933442,-39
32-14,33937348,-45
32-15,33941254,-48
32-16,33945160,-45
32-17,33949066,-42
32-18,33952972,-38
32-19,33956878,-32
32-20,33960784,-21
32-21,33964690,-12
32-22,33968596,-14
32-23,33972502,-22
32-24,33976408,-24
32-25,33980314,-14
32-26,33984220,8
32-27,33988126,34
32-28,33992032,48
32-29,33995938,46
32-30,33999844,19
32-31,34003750,-20
32-32,34007656,-50
32-1,34011537,-59
32-2,34015443,-51
32-3,34019349,-38
32-4,34023255,-32
32-5,34027161,-33
32-6,34031067,-43
32-7,34034973,-50
32-8,34038879,-49
32-9,34042785,-43
32-10,34046691,-35
32-11,34050597,-32
32-12,34054503,-31
32-13,34058409,-34
32-14,34062315,-35
32-15,34066221,-39
32-16,34070127,-32
32-17,34074033,-21
32-18,34077939,-5
32-19,34081845,3
32-20,34085751,4
32-21,34089657,3
32-22,34093563,-3
32-23,34097469,-18
32-24,34101375,-41
32-25,34105281,-57
32-26,34109187,-41
32-27,34113093,2
32-28,34116999,32
32-29,34120905,26
32-30,34124811,-17
32-31,34128717,-70
32-32,34132623,-108
32-1,34136535,-120
32-2,34140441,-113
32-3,34144347,-100
32-4,34148253,-94
32-5,34152159,-81
32-6,34156065,-62
32-7,34159971,-46
32-8,34163877,-37
32-9,34167783,-38
32-10,34171689,-35
32-11,34175595,-27
32-12,34179501,-9
32-13,34183407,-5
32-14,34187313,-21
32-15,34191219,-52
32-16,34195125,-78
32-17,34199031,-88
32-18,34202937,-77
32-19,34206843,-53
32-20,34210749,-29
32-21,34214655,-19
32-22,34218561,-30
32-23,34222467,-47
32-24,34226373,-64
32-25,34230279,-77
32-26,34234185,-80
32-27,34238091,-69
32-28,34241997,-46
32-29,34245903,-22
32-30,34249809,-19
32-31,34253715,-33
32-32,34257621,-46
32-1,34261532,-47
32-2,34265438,-36
32-3,34269344,-25
32-4,34273250,-29
32-5,34277156,-37
32-6,34281062,-52
32-7,34284968,-64
32-8,34288874,-60
32-9,34292780,-48
32-10,34296686,-43
32-11,34300592,-61
32-12,34304498,-89
32-13,34308404,-103
32-14,34312310,-90
32-15,34316216,-69
32-16,34320122,-48
32-17,34324028,-37
32-18,34327934,-30
32-19,34331840,-29
32-20,34335746,-33
32-21,34339652,-37
32-22,34343558,-38
32-23,34347464,-36
32-24,34351370,-42
32-25,34355276,-59
32-26,34359182,-66
32-27,34363088,-53
32-28,34366994,-38
32-29,34370900,-38
32-30,34374806,-60
32-31,34378712,-78
32-32,34382618,-79
32-1,34386530,-57
32-2,34390436,-30
32-3,34394342,-16
32-4,34398248,-20
32-5,34402154,-29
32-6,34406060,-39
32-7,34409966,-46
32-8,34413872,-45
32-9,34417778,-44
32-10,34421684,-40
32-11,34425590,-37
32-12,34429496,-38
32-13,34433402,-48
32-14,34437308,-56
32-15,34441214,-57
32-16,34445120,-43
32-17,34449026,-28
32-18,34452932,-25
32-19,34456838,-35
32-20,34460744,-51
32-21,34464650,-62
32-22,34468556,-65
32-23,34472462,-58
32-24,34476368,-47
32-25,34480274,-39
32-26,34484180,-31
32-27,34488086,-16
32-28,34491992,-3
32-29,34495898,-3
32-30,34499804,-20
32-31,34503710,-36
32-32,34507616,-35
32-1,34511528,-23
32-2,34515434,-15
32-3,34519340,-24
32-4,34523246,-40
32-5,34527152,-40
32-6,34531058,-27
32-7,34534964,-18
32-8,34538870,-15
32-9,34542776,-23
32-10,34546682,-30
32-11,34550588,-43
32-12,34554494,-51
32-13,34558400,-54
32-14,34562306,-42
32-15,34566212,-28
32-16,34570118,-18
32-17,34574024,-18
32-18,34577930,-20
32-19,34581836,-26
32-20,34585742,-35
32-21,34589648,-39
32-22,34593554,-36
32-23,34597460,-25
32-24,34601366,-17
32-25,34605272,-15
32-26,34609178,-10
32-27,34613084,3
32-28,34616990,15
32-29,34620896,14
32-30,34624802,-6
32-31,34628708,-32
32-32,34632614,-53
32-1,34636556,-64
32-2,34640462,-67
32-3,34644368,-68
32-4,34648274,-69
32-5,34652180,-63
32-6,34656086,-55
32-7,34659992,-50
32-8,34663898,-50
32-9,34667804,-63
32-10,34671710,-72
32-11,34675616,-76
32-12,34679522,-70
32-13,34683428,-63
32-14,34687334,-60
32-15,34691240,-60
32-16,34695146,-54
32-17,34699052,-45
32-18,34702958,-35
32-19,34706864,-21
32-20,34710770,-7
32-21,34714676,4
32-22,34718582,5
32-23,34722488,-6
32-24,34726394,-26
32-25,34730300,-51
32-26,34734206,-57
32-27,34738112,-39
32-28,34742018,-8
32-29,34745924,16
32-30,34749830,13
32-31,34753736,-4
32-32,34757642,-16
32-1,34761523,-15
32-2,34765429,-11
32-3,34769335,-17
32-4,34773241,-26
32-5,34777147,-24
32-6,34781053,-18
32-7,34784959,-21
32-8,34788865,-30
32-9,34792771,-40
32-10,34796677,-38
32-11,34800583,-26
32-12,34804489,-12
32-13,34808395,-9
32-14,34812301,-16
32-15,34816207,-26
32-16,34820113,-29
32-17,34824019,-30
32-18,34827925,-28
32-19,34831831,-33
32-20,34835737,-43
32-21,34839643,-50
32-22,34843549,-51
32-23,34847455,-41
32-24,34851361,-29
32-25,34855267,-17
32-26,34859173,5
32-27,34863079,31
32-28,34866985,45
32-29,34870891,43
32-30,34874797,22
32-31,34878703,-2
32-32,34882609,-17
32-1,34886521,-25
32-2,34890427,-23
32-3,34894333,-17
32-4,34898239,-11
32-5,34902145,-1
32-6,34906051,4
32-7,34909957,0
32-8,34913863,-10
32-9,34917769,-19
32-10,34921675,-20
32-11,34925581,-13
32-12,34929487,-3
32-13,34933393,1
32-14,34937299,1
32-15,34941205,-7
32-16,34945111,-14
32-17,34949017,-18
32-18,34952923,-15
32-19,34956829,-7
32-20,34960735,0
32-21,34964641,1
32-22,34968547,-10
32-23,34972453,-17
32-24,34976359,-24
32-25,34980265,-31
32-26,34984171,-34
32-27,34988077,-26
32-28,34991983,-12
32-29,34995889,-6
32-30,34999795,-25
32-31,35003701,-53
32-32,35007607,-58
32-1,35011518,-40
32-2,35015424,-22
32-3,35019330,-27
32-4,35023236,-49
32-5,35027142,-55
32-6,35031048,-42
32-7,35034954,-31
32-8,35038860,-27
32-9,35042766,-30
32-10,35046672,-29
32-11,35050578,-24
32-12,35054484,-15
32-13,35058390,-7
32-14,35062296,1
32-15,35066202,2
32-16,35070108,0
32-17,35074014,-7
32-18,35077920,-12
32-19,35081826,-15
32-20,35085732,-18
32-21,35089638,-17
32-22,35093544,-13
32-23,35097450,-10
32-24,35101356,-24
32-25,35105262,-49
32-26,35109168,-54
32-27,35113074,-33
32-28,35116980,-9
32-29,35120886,-5
32-30,35124792,-32
32-31,35128698,-64
32-32,35132604,-75
32-1,35136516,-69
32-2,35140422,-55
32-3,35144328,-51
32-4,35148234,-66
32-5,35152140,-80
32-6,35156046,-81
32-7,35159952,-65
32-8,35163858,-34
32-9,35167764,-13
32-10,35171670,-9
32-11,35175576,-18
32-12,35179482,-21
32-13,35183388,-21
32-14,35187294,-21
32-15,35191200,-27
32-16,35195106,-33
32-17,35199012,-34
32-18,35202918,-26
32-19,35206824,-12
32-20,35210730,7
32-21,35214636,27
32-22,35218542,42
32-23,35222448,54
32-24,35226354,51
32-25,35230260,33
32-26,35234166,9
32-27,35238072,-4
32-28,35241978,-6
32-29,35245884,-3
32-30,35249790,-7
32-31,35253696,-10
32-32,35257602,-3
32-1,35261513,10
32-2,35265419,17
32-3,35269325,9
32-4,35273231,-5
32-5,35277137,-10
32-6,35281043,-7
32-7,35284949,-9
32-8,35288855,-11
32-9,35292761,-17
32-10,35296667,-27
32-11,35300573,-44
32-12,35304479,-56
32-13,35308385,-58
32-14,35312291,-45
32-15,35316197,-31
32-16,35320103,-28
32-17,35324009,-35
32-18,35327915,-43
32-19,35331821,-51
32-20,35335727,-53
32-21,35339633,-45
32-22,35343539,-30
32-23,35347445,-9
32-24,35351351,-4
32-25,35355257,-5
32-26,35359163,4
32-27,35363069,27
32-28,35366975,41
32-29,35370881,33
32-30,35374787,3
32-31,35378693,-21
32-32,35382599,-30
32-1,35386511,-29
32-2,35390417,-21
32-3,35394323,-15
32-4,35398229,-21
32-5,35402135,-30
32-6,35406041,-39
32-7,35409947,-42
32-8,35413853,-32
32-9,35417759,-23
32-10,35421665,-20
32-11,35425571,-24
32-12,35429477,-21
32-13,35433383,-13
32-14,35437289,-9
32-15,35441195,-16
32-16,35445101,-23
32-17,35449007,-30
32-18,35452913,-30
32-19,35456819,-21
32-20,35460725,-11
32-21,35464631,-2
32-22,35468537,-6
32-23,35472443,-15
32-24,35476349,-32
32-25,35480255,-51
32-26,35484161,-56
32-27,35488067,-43
32-28,35491973,-20
32-29,35495879,-7
32-30,35499785,-17
32-31,35503691,-39
32-32,35507597,-48
32-1,35511509,-34
32-2,35515415,-11
32-3,35519321,-1
32-4,35523227,-7
32-5,35527133,-8
32-6,35531039,-4
32-7,35534945,0
32-8,35538851,-3
32-9,35542757,-11
32-10,35546663,-13
32-11,35550569,-3
32-12,35554475,19
32-13,35558381,37
32-14,35562287,42
32-15,35566193,27
32-16,35570099,5
32-17,35574005,-10
32-18,35577911,-9
32-19,35581817,0
32-20,35585723,5
32-21,35589629,0
32-22,35593535,-10
32-23,35597441,-16
32-24,35601347,-30
32-25,35605253,-46
32-26,35609159,-53
32-27,35613065,-45
32-28,35616971,-38
32-29,35620877,-50
32-30,35624783,-81
32-31,35628689,-107
32-32,35632595,-109
32-1,35636506,-88
32-2,35640412,-59
32-3,35644318,-41
32-4,35648224,-41
32-5,35652130,-49
32-6,35656036,-58
32-7,35659942,-67
32-8,35663848,-69
32-9,35667754,-71
32-10,35671660,-62
32-11,35675566,-53
32-12,35679472,-46
32-13,35683378,-45
32-14,35687284,-48
32-15,35691190,-49
32-16,35695096,-42
32-17,35699002,-28
32-18,35702908,-15
32-19,35706814,-6
32-20,35710720,-10
32-21,35714626,-25
32-22,35718532,-47
32-23,35722438,-55
32-24,35726344,-52
32-25,35730250,-49
32-26,35734156,-49
32-27,35738062,-48
32-28,35741968,-39
32-29,35745874,-26
32-30,35749780,-22
32-31,35753686,-23
32-32,35757592,-22
32-1,35761504,-11
32-2,35765410,-2
32-3,35769316,-5
32-4,35773222,-18
32-5,35777128,-21
32-6,35781034,-19
32-7,35784940,-34
32-8,35788846,-58
32-9,35792752,-77
32-10,35796658,-74
32-11,35800564,-53
32-12,35804470,-27
32-13,35808376,-7
32-14,35812282,8
32-15,35816188,9
32-16,35820094,1
32-17,35824000,-13
32-18,35827906,-27
32-19,35831812,-35
32-20,35835718,-40
32-21,35839624,-39
32-22,35843530,-32
32-23,35847436,-15
32-24,35851342,-3
32-25,35855248,2
32-26,35859154,4
32-27,35863060,9
32-28,35866966,9
32-29,35870872,5
32-30,35874778,-12
32-31,35878684,-33
32-32,35882590,-47
32-1,35886496,-54
32-2,35890402,-49
32-3,35894308,-41
32-4,35898214,-41
32-5,35902120,-46
32-6,35906026,-57
32-7,35909932,-69
32-8,35913838,-73
32-9,35917744,-73
32-10,35921650,-64
32-11,35925556,-51
32-12,35929462,-36
32-13,35933368,-29
32-14,35937274,-27
32-15,35941180,-25
32-16,35945086,-25
32-17,35948992,-34
32-18,35952898,-51
32-19,35956804,-63
32-20,35960710,-61
32-21,35964616,-47
32-22,35968522,-33
32-23,35972428,-21
32-24,35976334,-17
32-25,35980240,-19
32-26,35984146,-21
32-27,35988052,-17
32-28,35991958,-7
32-29,35995864,1
32-30,35999770,-11
32-31,36003676,-34
32-32,36007582,-52
32-1,36011499,-57
32-2,36015405,-54
32-3,36019311,-61
32-4,36023217,-69
32-5,36027123,-62
32-6,36031029,-48
32-7,36034935,-41
32-8,36038841,-38
32-9,36042747,-39
32-10,36046653,-36
32-11,36050559,-38
32-12,36054465,-45
32-13,36058371,-48
32-14,36062277,-38
32-15,36066183,-26
32-16,36070089,-25
32-17,36073995,-38
32-18,36077901,-51
32-19,36081807,-58
32-20,36085713,-61
32-21,36089619,-59
32-22,36093525,-54
32-23,36097431,-40
32-24,36101337,-28
32-25,36105243,-27
32-26,36109149,-25
32-27,36113055,-16
32-28,36116961,-4
32-29,36120867,-1
32-30,36124773,-22
32-31,36128679,-48
32-32,36132585,-65
32-1,36136649,-71
32-2,36140555,-61
32-3,36144461,-51
32-4,36148367,-49
32-5,36152273,-48
32-6,36156179,-42
32-7,36160085,-28
32-8,36163991,-5
32-9,36167897,10
32-10,36171803,16
32-11,36175709,4
32-12,36179615,-11
32-13,36183521,-19
32-14,36187427,-15
32-15,36191333,-1
32-16,36195239,17
32-17,36199145,21
32-18,36203051,0
32-19,36206957,-34
32-20,36210863,-59
32-21,36214769,-63
32-22,36218675,-55
32-23,36222581,-41
32-24,36226487,-36
32-25,36230393,-36
32-26,36234299,-29
32-27,36238205,-13
32-28,36242111,0
32-29,36246017,4
32-30,36249923,-10
32-31,36253829,-28
32-32,36257735,-36
32-1,36261495,-33
32-2,36265401,-22
32-3,36269307,-12
32-4,36273213,-4
32-5,36277119,7
32-6,36281025,9
32-7,36284931,-6
32-8,36288837,-22
32-9,36292743,-28
32-10,36296649,-16
32-11,36300555,2
32-12,36304461,11
32-13,36308367,-1
32-14,36312273,-21
32-15,36316179,-41
32-16,36320085,-54
32-17,36323991,-57
32-18,36327897,-52
32-19,36331803,-49
32-20,36335709,-51
32-21,36339615,-50
32-22,36343521,-44
32-23,36347427,-26
32-24,36351333,-14
32-25,36355239,-19
32-26,36359145,-21
32-27,36363051,-12
32-28,36366957,-8
32-29,36370863,-19
32-30,36374769,-49
32-31,36378675,-74
32-32,36382581,-75
32-1,36386492,-61
32-2,36390398,-36
32-3,36394304,-17
32-4,36398210,-16
32-5,36402116,-24
32-6,36406022,-35
32-7,36409928,-44
32-8,36413834,-33
32-9,36417740,-11
32-10,36421646,13
32-11,36425552,21
32-12,36429458,14
32-13,36433364,-9
32-14,36437270,-36
32-15,36441176,-53
32-16,36445082,-51
32-17,36448988,-40
32-18,36452894,-31
32-19,36456800,-30
32-20,36460706,-27
32-21,36464612,-17
32-22,36468518,-13
32-23,36472424,-17
32-24,36476330,-29
32-25,36480236,-38
32-26,36484142,-31
32-27,36488048,-20
32-28,36491954,-15
32-29,36495860,-20
32-30,36499766,-37
32-31,36503672,-48
32-32,36507578,-40
32-1,36511490,-24
32-2,36515396,-12
32-3,36519302,-25
32-4,36523208,-49
32-5,36527114,-62
32-6,36531020,-66
32-7,36534926,-66
32-8,36538832,-62
32-9,36542738,-56
32-10,36546644,-41
32-11,36550550,-31
32-12,36554456,-33
32-13,36558362,-40
32-14,36562268,-44
32-15,36566174,-40
32-16,36570080,-29
32-17,36573986,-21
32-18,36577892,-14
32-19,36581798,-9
32-20,36585704,-7
32-21,36589610,-3
32-22,36593516,3
32-23,36597422,17
32-24,36601328,15
32-25,36605234,-4
32-26,36609140,-23
32-27,36613046,-26
32-28,36616952,-14
32-29,36620858,0
32-30,36624764,1
32-31,36628670,-10
32-32,36632576,-19
32-1,36636487,-20
32-2,36640393,-12
32-3,36644299,-12
32-4,36648205,-28
32-5,36652111,-52
32-6,36656017,-71
32-7,36659923,-77
32-8,36663829,-69
32-9,36667735,-60
32-10,36671641,-59
32-11,36675547,-68
32-12,36679453,-75
32-13,36683359,-77
32-14,36687265,-73
32-15,36691171,-61
32-16,36695077,-46
32-17,36698983,-32
32-18,36702889,-25
32-19,36706795,-21
32-20,36710701,-25
32-21,36714607,-28
32-22,36718513,-32
32-23,36722419,-25
32-24,36726325,-18
32-25,36730231,-24
32-26,36734137,-40
32-27,36738043,-51
32-28,36741949,-45
32-29,36745855,-30
32-30,36749761,-28
32-31,36753667,-43
32-32,36757573,-53
32-1,36761546,-50
32-2,36765452,-38
32-3,36769358,-38
32-4,36773264,-52
32-5,36777170,-62
32-6,36781076,-57
32-7,36784982,-46
32-8,36788888,-30
32-9,36792794,-17
32-10,36796700,-3
32-11,36800606,-3
32-12,36804512,-20
32-13,36808418,-43
32-14,36812324,-49
32-15,36816230,-41
32-16,36820136,-29
32-17,36824042,-27
32-18,36827948,-35
32-19,36831854,-39
32-20,36835760,-32
32-21,36839666,-18
32-22,36843572,-15
32-23,36847478,-28
32-24,36851384,-53
32-25,36855290,-72
32-26,36859196,-59
32-27,36863102,-23
32-28,36867008,4
32-29,36870914,-4
32-30,36874820,-42
32-31,36878726,-79
32-32,36882632,-97
32-1,36886483,-94
32-2,36890389,-75
32-3,36894295,-53
32-4,36898201,-35
32-5,36902107,-25
32-6,36906013,-23
32-7,36909919,-30
32-8,36913825,-35
32-9,36917731,-41
32-10,36921637,-42
32-11,36925543,-42
32-12,36929449,-35
32-13,36933355,-35
32-14,36937261,-38
32-15,36941167,-41
32-16,36945073,-42
32-17,36948979,-43
32-18,36952885,-58
32-19,36956791,-74
32-20,36960697,-77
32-21,36964603,-64
32-22,36968509,-50
32-23,36972415,-40
32-24,36976321,-43
32-25,36980227,-49
32-26,36984133,-44
32-27,36988039,-20
32-28,36991945,16
32-29,36995851,37
32-30,36999757,29
32-31,37003663,-1
32-32,37007569,-29
32-1,37011480,-34
32-2,37015386,-17
32-3,37019292,-1
32-4,37023198,0
32-5,37027104,-8
32-6,37031010,-17
32-7,37034916,-30
32-8,37038822,-36
32-9,37042728,-43
32-10,37046634,-49
32-11,37050540,-63
32-12,37054446,-71
32-13,37058352,-65
32-14,37062258,-48
32-15,37066164,-35
32-16,37070070,-36
32-17,37073976,-50
32-18,37077882,-62
32-19,37081788,-63
32-20,37085694,-63
32-21,37089600,-57
32-22,37093506,-59
32-23,37097412,-63
32-24,37101318,-74
32-25,37105224,-91
32-26,37109130,-86
32-27,37113036,-52
32-28,37116942,-11
32-29,37120848,17
32-30,37124754,14
32-31,37128660,-14
32-32,37132566,-46
32-1,37136478,-73
32-2,37140384,-73
32-3,37144290,-53
32-4,37148196,-31
32-5,37152102,-22
32-6,37156008,-28
32-7,37159914,-43
32-8,37163820,-53
32-9,37167726,-63
32-10,37171632,-72
32-11,37175538,-79
32-12,37179444,-80
32-13,37183350,-76
32-14,37187256,-75
32-15,37191162,-77
32-16,37195068,-77
32-17,37198974,-66
32-18,37202880,-52
32-19,37206786,-45
32-20,37210692,-41
32-21,37214598,-30
32-22,37218504,-12
32-23,37222410,10
32-24,37226316,20
32-25,37230222,12
32-26,37234128,-1
32-27,37238034,-3
32-28,37241940,8
32-29,37245846,19
32-30,37249752,9
32-31,37253658,-16
32-32,37257564,-32
32-1,37261476,-32
32-2,37265382,-13
32-3,37269288,2
32-4,37273194,7
32-5,37277100,12
32-6,37281006,12
32-7,37284912,4
32-8,37288818,0
32-9,37292724,-2
32-10,37296630,1
32-11,37300536,0
32-12,37304442,-5
32-13,37308348,-7
32-14,37312254,-1
32-15,37316160,3
32-16,37320066,-2
32-17,37323972,-13
32-18,37327878,-24
32-19,37331784,-25
32-20,37335690,-24
32-21,37339596,-18
32-22,37343502,-8
32-23,37347408,9
32-24,37351314,19
32-25,37355220,17
32-26,37359126,16
32-27,37363032,22
32-28,37366938,30
32-29,37370844,27
32-30,37374750,-1
32-31,37378656,-42
32-32,37382562,-75
32-1,37386595,-88
32-2,37390501,-71
32-3,37394407,-42
32-4,37398313,-20
32-5,37402219,-20
32-6,37406125,-33
32-7,37410031,-37
32-8,37413937,-19
32-9,37417843,6
32-10,37421749,19
32-11,37425655,9
32-12,37429561,-9
32-13,37433467,-23
32-14,37437373,-25
32-15,37441279,-16
32-16,37445185,-11
32-17,37449091,-12
32-18,37452997,-19
32-19,37456903,-17
32-20,37460809,-4
32-21,37464715,15
32-22,37468621,21
32-23,37472527,18
32-24,37476433,3
32-25,37480339,-15
32-26,37484245,-29
32-27,37488151,-28
32-28,37492057,-12
32-29,37495963,9
32-30,37499869,15
32-31,37503775,0
32-32,37507681,-12
32-1,37511471,-8
32-2,37515377,9
32-3,37519283,11
32-4,37523189,-5
32-5,37527095,-17
32-6,37531001,-13
32-7,37534907,-3
32-8,37538813,9
32-9,37542719,15
32-10,37546625,16
32-11,37550531,12
32-12,37554437,0
32-13,37558343,-18
32-14,37562249,-25
32-15,37566155,-17
32-16,37570061,-10
32-17,37573967,-16
32-18,37577873,-31
32-19,37581779,-42
32-20,37585685,-39
32-21,37589591,-25
32-22,37593497,-16
32-23,37597403,-9
32-24,37601309,-13
32-25,37605215,-22
32-26,37609121,-16
32-27,37613027,1
32-28,37616933,19
32-29,37620839,16
32-30,37624745,-15
32-31,37628651,-50
32-32,37632557,-63
32-1,37636499,-58
32-2,37640405,-40
32-3,37644311,-29
32-4,37648217,-28
32-5,37652123,-28
32-6,37656029,-23
32-7,37659935,-14
32-8,37663841,-9
32-9,37667747,-14
32-10,37671653,-27
32-11,37675559,-37
32-12,37679465,-32
32-13,37683371,-16
32-14,37687277,-5
32-15,37691183,-9
32-16,37695089,-27
32-17,37698995,-47
32-18,37702901,-63
32-19,37706807,-68
32-20,37710713,-65
32-21,37714619,-55
32-22,37718525,-50
32-23,37722431,-49
32-24,37726337,-56
32-25,37730243,-68
32-26,37734149,-74
32-27,37738055,-72
32-28,37741961,-60
32-29,37745867,-46
32-30,37749773,-42
32-31,37753679,-48
32-32,37757585,-52
32-1,37761466,-50
32-2,37765372,-37
32-3,37769278,-32
32-4,37773184,-37
32-5,37777090,-43
32-6,37780996,-48
32-7,37784902,-55
32-8,37788808,-54
32-9,37792714,-52
32-10,37796620,-44
32-11,37800526,-38
32-12,37804432,-35
32-13,37808338,-33
32-14,37812244,-28
32-15,37816150,-28
32-16,37820056,-38
32-17,37823962,-58
32-18,37827868,-76
32-19,37831774,-76
32-20,37835680,-67
32-21,37839586,-51
32-22,37843492,-41
32-23,37847398,-36
32-24,37851304,-49
32-25,37855210,-73
32-26,37859116,-78
32-27,37863022,-51
32-28,37866928,-12
32-29,37870834,9
32-30,37874740,-8
32-31,37878646,-44
32-32,37882552,-69
32-1,37886464,-70
32-2,37890370,-47
32-3,37894276,-24
32-4,37898182,-15
32-5,37902088,-17
32-6,37905994,-20
32-7,37909900,-14
32-8,37913806,9
32-9,37917712,28
32-10,37921618,28
32-11,37925524,7
32-12,37929430,-17
32-13,37933336,-33
32-14,37937242,-39
32-15,37941148,-40
32-16,37945054,-40
32-17,37948960,-31
32-18,37952866,-22
32-19,37956772,-16
32-20,37960678,-21
32-21,37964584,-36
32-22,37968490,-58
32-23,37972396,-60
32-24,37976302,-40
32-25,37980208,-11
32-26,37984114,12
32-27,37988020,18
32-28,37991926,14
32-29,37995832,4
32-30,37999738,-20
32-31,38003644,-50
32-32,38007550,-59
32-1,38011456,-35
32-2,38015362,17
32-3,38019268,51
32-4,38023174,45
32-5,38027080,17
32-6,38030986,-11
32-7,38034892,-31
32-8,38038798,-37
32-9,38042704,-34
32-10,38046610,-28
32-11,38050516,-29
32-12,38054422,-43
32-13,38058328,-60
32-14,38062234,-69
32-15,38066140,-61
32-16,38070046,-46
32-17,38073952,-32
32-18,38077858,-29
32-19,38081764,-29
32-20,38085670,-34
32-21,38089576,-40
32-22,38093482,-48
32-23,38097388,-51
32-24,38101294,-57
32-25,38105200,-61
32-26,38109106,-50
32-27,38113012,-28
32-28,38116918,-19
32-29,38120824,-32
32-30,38124730,-59
32-31,38128636,-71
32-32,38132542,-54
32-1,38136459,-31
32-2,38140365,-14
32-3,38144271,-11
32-4,38148177,-11
32-5,38152083,-8
32-6,38155989,-13
32-7,38159895,-35
32-8,38163801,-53
32-9,38167707,-64
32-10,38171613,-63
32-11,38175519,-54
32-12,38179425,-48
32-13,38183331,-47
32-14,38187237,-46
32-15,38191143,-37
32-16,38195049,-22
32-17,38198955,-11
32-18,38202861,-11
32-19,38206767,-9
32-20,38210673,-3
32-21,38214579,11
32-22,38218485,14
32-23,38222391,6
32-24,38226297,-15
32-25,38230203,-36
32-26,38234109,-37
32-27,38238015,-27
32-28,38241921,-17
32-29,38245827,-19
32-30,38249733,-41
32-31,38253639,-64
32-32,38257545,-68
32-1,38261457,-54
32-2,38265363,-28
32-3,38269269,-19
32-4,38273175,-31
32-5,38277081,-40
32-6,38280987,-38
32-7,38284893,-33
32-8,38288799,-33
32-9,38292705,-44
32-10,38296611,-55
32-11,38300517,-54
32-12,38304423,-35
32-13,38308329,-7
32-14,38312235,17
32-15,38316141,16
32-16,38320047,-11
32-17,38323953,-38
32-18,38327859,-50
32-19,38331765,-44
32-20,38335671,-39
32-21,38339577,-44
32-22,38343483,-55
32-23,38347389,-57
32-24,38351295,-61
32-25,38355201,-71
32-26,38359107,-74
32-27,38363013,-60
32-28,38366919,-32
32-29,38370825,-3
32-30,38374731,6
32-31,38378637,-3
32-32,38382543,-17
32-1,38386485,-35
32-2,38390391,-45
32-3,38394297,-49
32-4,38398203,-50
32-5,38402109,-46
32-6,38406015,-44
32-7,38409921,-47
32-8,38413827,-50
32-9,38417733,-56
32-10,38421639,-60
32-11,38425545,-56
32-12,38429451,-38
32-13,38433357,-18
32-14,38437263,-11
32-15,38441169,-15
32-16,38445075,-23
32-17,38448981,-21
32-18,38452887,-20
32-19,38456793,-23
32-20,38460699,-34
32-21,38464605,-46
32-22,38468511,-58
32-23,38472417,-58
32-24,38476323,-58
32-25,38480229,-60
32-26,38484135,-55
32-27,38488041,-35
32-28,38491947,-6
32-29,38495853,15
32-30,38499759,7
32-31,38503665,-21
32-32,38507571,-39
32-1,38511452,-36
32-2,38515358,-16
32-3,38519264,-5
32-4,38523170,-8
32-5,38527076,-9
32-6,38530982,-7
32-7,38534888,-14
32-8,38538794,-30
32-9,38542700,-51
32-10,38546606,-62
32-11,38550512,-63
32-12,38554418,-60
32-13,38558324,-54
32-14,38562230,-44
32-15,38566136,-30
32-16,38570042,-26
32-17,38573948,-33
32-18,38577854,-47
32-19,38581760,-57
32-20,38585666,-62
32-21,38589572,-55
32-22,38593478,-46
32-23,38597384,-34
32-24,38601290,-41
32-25,38605196,-71
32-26,38609102,-87
32-27,38613008,-74
32-28,38616914,-41
32-29,38620820,-17
32-30,38624726,-25
32-31,38628632,-59
32-32,38632538,-84
32-1,38636602,-86
32-2,38640508,-65
32-3,38644414,-46
32-4,38648320,-42
32-5,38652226,-49
32-6,38656132,-56
32-7,38660038,-53
32-8,38663944,-35
32-9,38667850,-14
32-10,38671756,-2
32-11,38675662,1
32-12,38679568,4
32-13,38683474,-2
32-14,38687380,-20
32-15,38691286,-38
32-16,38695192,-45
32-17,38699098,-34
32-18,38703004,-18
32-19,38706910,-11
32-20,38710816,-13
32-21,38714722,-18
32-22,38718628,-20
32-23,38722534,-16
32-24,38726440,-19
32-25,38730346,-24
32-26,38734252,-20
32-27,38738158,-5
32-28,38742064,16
32-29,38745970,26
32-30,38749876,11
32-31,38753782,-13
32-32,38757688,-26
32-1,38761447,-15
32-2,38765353,5
32-3,38769259,2
32-4,38773165,-20
32-5,38777071,-39
32-6,38780977,-42
32-7,38784883,-42
32-8,38788789,-46
32-9,38792695,-51
32-10,38796601,-49
32-11,38800507,-43
32-12,38804413,-39
32-13,38808319,-40
32-14,38812225,-42
32-15,38816131,-34
32-16,38820037,-20
32-17,38823943,-11
32-18,38827849,-16
32-19,38831755,-31
32-20,38835661,-45
32-21,38839567,-46
32-22,38843473,-37
32-23,38847379,-23
32-24,38851285,-27
32-25,38855191,-51
32-26,38859097,-61
32-27,38863003,-45
32-28,38866909,-18
32-29,38870815,-8
32-30,38874721,-28
32-31,38878627,-60
32-32,38882533,-71
32-1,38886445,-60
32-2,38890351,-38
32-3,38894257,-25
32-4,38898163,-25
32-5,38902069,-24
32-6,38905975,-23
32-7,38909881,-22
32-8,38913787,-13
32-9,38917693,-6
32-10,38921599,-1
32-11,38925505,0
32-12,38929411,-1
32-13,38933317,-10
32-14,38937223,-25
32-15,38941129,-44
32-16,38945035,-63
32-17,38948941,-72
32-18,38952847,-78
32-19,38956753,-74
32-20,38960659,-62
32-21,38964565,-47
32-22,38968471,-40
32-23,38972377,-39
32-24,38976283,-42
32-25,38980189,-46
32-26,38984095,-44
32-27,38988001,-36
32-28,38991907,-22
32-29,38995813,-12
32-30,38999719,-13
32-31,39003625,-28
32-32,39007531,-45
32-1,39011442,-61
32-2,39015348,-73
32-3,39019254,-90
32-4,39023160,-113
32-5,39027066,-122
32-6,39030972,-110
32-7,39034878,-90
32-8,39038784,-72
32-9,39042690,-63
32-10,39046596,-57
32-11,39050502,-55
32-12,39054408,-52
32-13,39058314,-41
32-14,39062220,-29
32-15,39066126,-22
32-16,39070032,-25
32-17,39073938,-24
32-18,39077844,-15
32-19,39081750,4
32-20,39085656,10
32-21,39089562,4
32-22,39093468,-8
32-23,39097374,-10
32-24,39101280,-15
32-25,39105186,-31
32-26,39109092,-38
32-27,39112998,-28
32-28,39116904,-11
32-29,39120810,-12
32-30,39124716,-39
32-31,39128622,-71
32-32,39132528,-82
32-1,39136501,-73
32-2,39140407,-57
32-3,39144313,-51
32-4,39148219,-53
32-5,39152125,-49
32-6,39156031,-38
32-7,39159937,-29
32-8,39163843,-29
32-9,39167749,-48
32-10,39171655,-74
32-11,39175561,-87
32-12,39179467,-75
32-13,39183373,-51
32-14,39187279,-33
32-15,39191185,-24
32-16,39195091,-19
32-17,39198997,-8
32-18,39202903,0
32-19,39206809,3
32-20,39210715,1
32-21,39214621,2
32-22,39218527,6
32-23,39222433,11
32-24,39226339,5
32-25,39230245,-12
32-26,39234151,-29
32-27,39238057,-38
32-28,39241963,-29
32-29,39245869,-16
32-30,39249775,-12
32-31,39253681,-26
32-32,39257587,-46
32-1,39261438,-59
32-2,39265344,-58
32-3,39269250,-55
32-4,39273156,-53
32-5,39277062,-44
32-6,39280968,-28
32-7,39284874,-18
32-8,39288780,-27
32-9,39292686,-50
32-10,39296592,-69
32-11,39300498,-69
32-12,39304404,-50
32-13,39308310,-21
32-14,39312216,-2
32-15,39316122,0
32-16,39320028,-15
32-17,39323934,-29
32-18,39327840,-28
32-19,39331746,-14
32-20,39335652,-5
32-21,39339558,-1
32-22,39343464,-3
32-23,39347370,4
32-24,39351276,2
32-25,39355182,-12
32-26,39359088,-13
32-27,39362994,7
32-28,39366900,37
32-29,39370806,41
32-30,39374712,5
32-31,39378618,-46
32-32,39382524,-68
32-1,39386430,-55
32-2,39390336,-20
32-3,39394242,-2
32-4,39398148,-8
32-5,39402054,-24
32-6,39405960,-37
32-7,39409866,-39
32-8,39413772,-28
32-9,39417678,-19
32-10,39421584,-23
32-11,39425490,-40
32-12,39429396,-55
32-13,39433302,-63
32-14,39437208,-69
32-15,39441114,-73
32-16,39445020,-73
32-17,39448926,-56
32-18,39452832,-29
32-19,39456738,-3
32-20,39460644,11
32-21,39464550,8
32-22,39468456,-7
32-23,39472362,-15
32-24,39476268,-21
32-25,39480174,-24
32-26,39484080,-25
32-27,39487986,-28
32-28,39491892,-21
32-29,39495798,-13
32-30,39499704,-12
32-31,39503610,-26
32-32,39507516,-37
32-1,39511433,-39
32-2,39515339,-26
32-3,39519245,-21
32-4,39523151,-29
32-5,39527057,-39
32-6,39530963,-38
32-7,39534869,-28
32-8,39538775,-18
32-9,39542681,-12
32-10,39546587,-11
32-11,39550493,-14
32-12,39554399,-23
32-13,39558305,-35
32-14,39562211,-46
32-15,39566117,-48
32-16,39570023,-46
32-17,39573929,-36
32-18,39577835,-26
32-19,39581741,-17
32-20,39585647,-19
32-21,39589553,-31
32-22,39593459,-48
32-23,39597365,-50
32-24,39601271,-42
32-25,39605177,-35
32-26,39609083,-29
32-27,39612989,-29
32-28,39616895,-34
32-29,39620801,-43
32-30,39624707,-51
32-31,39628613,-50
32-32,39632519,-40
32-1,39636431,-37
32-2,39640337,-37
32-3,39644243,-42
32-4,39648149,-45
32-5,39652055,-42
32-6,39655961,-38
32-7,39659867,-38
32-8,39663773,-38
32-9,39667679,-42
32-10,39671585,-46
32-11,39675491,-52
32-12,39679397,-54
32-13,39683303,-48
32-14,39687209,-41
32-15,39691115,-28
32-16,39695021,-10
32-17,39698927,7
32-18,39702833,11
32-19,39706739,1
32-20,39710645,-10
32-21,39714551,-8
32-22,39718457,2
32-23,39722363,14
32-24,39726269,14
32-25,39730175,5
32-26,39734081,-3
32-27,39737987,-4
32-28,39741893,6
32-29,39745799,10
32-30,39749705,1
32-31,39753611,-22
32-32,39757517,-41
32-1,39761428,-48
32-2,39765334,-43
32-3,39769240,-42
32-4,39773146,-50
32-5,39777052,-54
32-6,39780958,-49
32-7,39784864,-42
32-8,39788770,-34
32-9,39792676,-28
32-10,39796582,-20
32-11,39800488,-15
32-12,39804394,-13
32-13,39808300,-9
32-14,39812206,-3
32-15,39816112,-1
32-16,39820018,-8
32-17,39823924,-17
32-18,39827830,-26
32-19,39831736,-29
32-20,39835642,-33
32-21,39839548,-39
32-22,39843454,-43
32-23,39847360,-36
32-24,39851266,-25
32-25,39855172,-19
32-26,39859078,-6
32-27,39862984,14
32-28,39866890,30
32-29,39870796,24
32-30,39874702,-5
32-31,39878608,-36
32-32,39882514,-53
32-1,39886517,-56
32-2,39890423,-49
32-3,39894329,-44
32-4,39898235,-44
32-5,39902141,-44
32-6,39906047,-42
32-7,39909953,-40
32-8,39913859,-34
32-9,39917765,-30
32-10,39921671,-31
32-11,39925577,-34
32-12,39929483,-35
32-13,39933389,-32
32-14,39937295,-33
32-15,39941201,-33
32-16,39945107,-32
32-17,39949013,-29
32-18,39952919,-36
32-19,39956825,-49
32-20,39960731,-58
32-21,39964637,-46
32-22,39968543,-30
32-23,39972449,-19
32-24,39976355,-27
32-25,39980261,-45
32-26,39984167,-47
32-27,39988073,-35
32-28,39991979,-17
32-29,39995885,-11
32-30,39999791,-24
32-31,40003697,-41
32-32,40007603,-43
32-1,40011423,-30
32-2,40015329,-9
32-3,40019235,1
32-4,40023141,-4
32-5,40027047,-11
32-6,40030953,-15
32-7,40034859,-15
32-8,40038765,-8
32-9,40042671,4
32-10,40046577,9
32-11,40050483,9
32-12,40054389,2
32-13,40058295,-3
32-14,40062201,-6
32-15,40066107,-14
32-16,40070013,-29
32-17,40073919,-38
32-18,40077825,-32
32-19,40081731,-16
32-20,40085637,-11
32-21,40089543,-19
32-22,40093449,-31
32-23,40097355,-28
32-24,40101261,-22
32-25,40105167,-30
32-26,40109073,-29
32-27,40112979,-8
32-28,40116885,23
32-29,40120791,31
32-30,40124697,4
32-31,40128603,-40
32-32,40132509,-60
32-1,40136421,-54
32-2,40140327,-31
32-3,40144233,-23
32-4,40148139,-36
32-5,40152045,-47
32-6,40155951,-52
32-7,40159857,-49
32-8,40163763,-42
32-9,40167669,-40
32-10,40171575,-45
32-11,40175481,-48
32-12,40179387,-43
32-13,40183293,-30
32-14,40187199,-24
32-15,40191105,-23
32-16,40195011,-21
32-17,40198917,-12
32-18,40202823,-3
32-19,40206729,-1
32-20,40210635,-4
32-21,40214541,-6
32-22,40218447,-7
32-23,40222353,-5
32-24,40226259,-9
32-25,40230165,-22
32-26,40234071,-31
32-27,40237977,-36
32-28,40241883,-38
32-29,40245789,-39
32-30,40249695,-45
32-31,40253601,-50
32-32,40257507,-46
32-1,40261419,-36
32-2,40265325,-25
32-3,40269231,-23
32-4,40273137,-24
32-5,40277043,-15
32-6,40280949,-2
32-7,40284855,5
32-8,40288761,4
32-9,40292667,-1
32-10,40296573,-4
32-11,40300479,-6
32-12,40304385,-14
32-13,40308291,-26
32-14,40312197,-35
32-15,40316103,-35
32-16,40320009,-37
32-17,40323915,-44
32-18,40327821,-58
32-19,40331727,-69
32-20,40335633,-72
32-21,40339539,-65
32-22,40343445,-47
32-23,40347351,-16
32-24,40351257,9
32-25,40355163,16
32-26,40359069,19
32-27,40362975,22
32-28,40366881,25
32-29,40370787,13
32-30,40374693,-19
32-31,40378599,-52
32-32,40382505,-59
32-1,40386416,-43
32-2,40390322,-15
32-3,40394228,0
32-4,40398134,3
32-5,40402040,7
32-6,40405946,7
32-7,40409852,-1
32-8,40413758,-17
32-9,40417664,-40
32-10,40421570,-61
32-11,40425476,-68
32-12,40429382,-63
32-13,40433288,-57
32-14,40437194,-63
32-15,40441100,-75
32-16,40445006,-84
32-17,40448912,-74
32-18,40452818,-54
32-19,40456724,-35
32-20,40460630,-30
32-21,40464536,-30
32-22,40468442,-29
32-23,40472348,-15
32-24,40476254,-1
32-25,40480160,-3
32-26,40484066,-19
32-27,40487972,-42
32-28,40491878,-54
32-29,40495784,-54
32-30,40499690,-54
32-31,40503596,-60
32-32,40507502,-63
32-1,40511414,-56
32-2,40515320,-34
32-3,40519226,-21
32-4,40523132,-29
32-5,40527038,-45
32-6,40530944,-57
32-7,40534850,-62
32-8,40538756,-65
32-9,40542662,-67
32-10,40546568,-59
32-11,40550474,-40
32-12,40554380,-17
32-13,40558286,1
32-14,40562192,5
32-15,40566098,-1
32-16,40570004,-12
32-17,40573910,-24
32-18,40577816,-35
32-19,40581722,-44
32-20,40585628,-50
32-21,40589534,-49
32-22,40593440,-42
32-23,40597346,-29
32-24,40601252,-23
32-25,40605158,-31
32-26,40609064,-37
32-27,40612970,-31
32-28,40616876,-14
32-29,40620782,-5
32-30,40624688,-12
32-31,40628594,-31
32-32,40632500,-44
32-1,40636534,-47
32-2,40640440,-46
32-3,40644346,-47
32-4,40648252,-49
32-5,40652158,-49
32-6,40656064,-49
32-7,40659970,-50
32-8,40663876,-53
32-9,40667782,-55
32-10,40671688,-59
32-11,40675594,-57
32-12,40679500,-47
32-13,40683406,-37
32-14,40687312,-36
32-15,40691218,-40
32-16,40695124,-44
32-17,40699030,-46
32-18,40702936,-53
32-19,40706842,-61
32-20,40710748,-68
32-21,40714654,-64
32-22,40718560,-55
32-23,40722466,-47
32-24,40726372,-45
32-25,40730278,-51
32-26,40734184,-48
32-27,40738090,-35
32-28,40741996,-14
32-29,40745902,-2
32-30,40749808,-6
32-31,40753714,-26
32-32,40757620,-40
32-1,40761409,-39
32-2,40765315,-23
32-3,40769221,-22
32-4,40773127,-42
32-5,40777033,-60
32-6,40780939,-57
32-7,40784845,-37
32-8,40788751,-16
32-9,40792657,-8
32-10,40796563,-12
32-11,40800469,-19
32-12,40804375,-20
32-13,40808281,-14
32-14,40812187,-7
32-15,40816093,-6
32-16,40819999,-16
32-17,40823905,-29
32-18,40827811,-38
32-19,40831717,-36
32-20,40835623,-33
32-21,40839529,-36
32-22,40843435,-45
32-23,40847341,-49
32-24,40851247,-59
32-25,40855153,-80
32-26,40859059,-80
32-27,40862965,-55
32-28,40866871,-12
32-29,40870777,8
32-30,40874683,-21
32-31,40878589,-75
32-32,40882495,-109
32-1,40886407,-104
32-2,40890313,-70
32-3,40894219,-42
32-4,40898125,-35
32-5,40902031,-35
32-6,40905937,-39
32-7,40909843,-41
32-8,40913749,-34
32-9,40917655,-22
32-10,40921561,-15
32-11,40925467,-15
32-12,40929373,-15
32-13,40933279,-5
32-14,40937185,6
32-15,40941091,9
32-16,40944997,2
32-17,40948903,-11
32-18,40952809,-29
32-19,40956715,-40
32-20,40960621,-41
32-21,40964527,-32
32-22,40968433,-19
32-23,40972339,-11
32-24,40976245,-15
32-25,40980151,-24
32-26,40984057,-16
32-27,40987963,2
32-28,40991869,22
32-29,40995775,18
32-30,40999681,-16
32-31,41003587,-66
32-32,41007493,-94
32-1,41011405,-84
32-2,41015311,-47
32-3,41019217,-17
32-4,41023123,-13
32-5,41027029,-22
32-6,41030935,-32
32-7,41034841,-37
32-8,41038747,-40
32-9,41042653,-42
32-10,41046559,-43
32-11,41050465,-36
32-12,41054371,-28
32-13,41058277,-21
32-14,41062183,-25
32-15,41066089,-34
32-16,41069995,-46
32-17,41073901,-46
32-18,41077807,-31
32-19,41081713,-7
32-20,41085619,6
32-21,41089525,-5
32-22,41093431,-29
32-23,41097337,-44
32-24,41101243,-48
32-25,41105149,-47
32-26,41109055,-31
32-27,41112961,-7
32-28,41116867,12
32-29,41120773,7
32-30,41124679,-22
32-31,41128585,-48
32-32,41132491,-47
32-1,41136402,-25
32-2,41140308,7
32-3,41144214,31
32-4,41148120,41
32-5,41152026,44
32-6,41155932,35
32-7,41159838,21
32-8,41163744,12
32-9,41167650,6
32-10,41171556,-2
32-11,41175462,-7
32-12,41179368,-5
32-13,41183274,7
32-14,41187180,11
32-15,41191086,-2
32-16,41194992,-26
32-17,41198898,-41
32-18,41202804,-42
32-19,41206710,-35
32-20,41210616,-40
32-21,41214522,-54
32-22,41218428,-72
32-23,41222334,-75
32-24,41226240,-67
32-25,41230146,-58
32-26,41234052,-48
32-27,41237958,-40
32-28,41241864,-25
32-29,41245770,-11
32-30,41249676,1
32-31,41253582,1
32-32,41257488,-3
32-1,41261400,-10
32-2,41265306,-17
32-3,41269212,-31
32-4,41273118,-52
32-5,41277024,-62
32-6,41280930,-60
32-7,41284836,-53
32-8,41288742,-42
32-9,41292648,-26
32-10,41296554,-7
32-11,41300460,3
32-12,41304366,-5
32-13,41308272,-19
32-14,41312178,-32
32-15,41316084,-38
32-16,41319990,-52
32-17,41323896,-68
32-18,41327802,-80
32-19,41331708,-75
32-20,41335614,-55
32-21,41339520,-32
32-22,41343426,-16
32-23,41347332,-7
32-24,41351238,-13
32-25,41355144,-37
32-26,41359050,-49
32-27,41362956,-33
32-28,41366862,6
32-29,41370768,38
32-30,41374674,41
32-31,41378580,23
32-32,41382486,11
32-1,41386519,9
32-2,41390425,14
32-3,41394331,12
32-4,41398237,4
32-5,41402143,3
32-6,41406049,4
32-7,41409955,7
32-8,41413861,10
32-9,41417767,11
32-10,41421673,5
32-11,41425579,-6
32-12,41429485,-13
32-13,41433391,-10
32-14,41437297,-4
32-15,41441203,5
32-16,41445109,13
32-17,41449015,20
32-18,41452921,21
32-19,41456827,10
32-20,41460733,-10
32-21,41464639,-31
32-22,41468545,-48
32-23,41472451,-58
32-24,41476357,-67
32-25,41480263,-75
32-26,41484169,-68
32-27,41488075,-51
32-28,41491981,-32
32-29,41495887,-28
32-30,41499793,-40
32-31,41503699,-63
32-32,41507605,-77
32-1,41511395,-83
32-2,41515301,-69
32-3,41519207,-44
32-4,41523113,-15
32-5,41527019,11
32-6,41530925,13
32-7,41534831,-13
32-8,41538737,-44
32-9,41542643,-58
32-10,41546549,-45
32-11,41550455,-24
32-12,41554361,-15
32-13,41558267,-22
32-14,41562173,-33
32-15,41566079,-38
32-16,41569985,-48
32-17,41573891,-63
32-18,41577797,-75
32-19,41581703,-70
32-20,41585609,-52
32-21,41589515,-28
32-22,41593421,-8
32-23,41597327,8
32-24,41601233,7
32-25,41605139,-12
32-26,41609045,-20
32-27,41612951,-10
32-28,41616857,11
32-29,41620763,17
32-30,41624669,-4
32-31,41628575,-31
32-32,41632481,-36
32-1,41636393,-25
32-2,41640299,-12
32-3,41644205,-15
32-4,41648111,-23
32-5,41652017,-21
32-6,41655923,-23
32-7,41659829,-33
32-8,41663735,-52
32-9,41667641,-65
32-10,41671547,-73
32-11,41675453,-73
32-12,41679359,-67
32-13,41683265,-54
32-14,41687171,-39
32-15,41691077,-26
32-16,41694983,-24
32-17,41698889,-31
32-18,41702795,-46
32-19,41706701,-57
32-20,41710607,-58
32-21,41714513,-51
32-22,41718419,-47
32-23,41722325,-47
32-24,41726231,-52
32-25,41730137,-59
32-26,41734043,-54
32-27,41737949,-41
32-28,41741855,-19
32-29,41745761,-5
32-30,41749667,-11
32-31,41753573,-36
32-32,41757479,-58
32-1,41761390,-56
32-2,41765296,-29
32-3,41769202,-6
32-4,41773108,-11
32-5,41777014,-30
32-6,41780920,-47
32-7,41784826,-51
32-8,41788732,-48
32-9,41792638,-42
32-10,41796544,-33
32-11,41800450,-26
32-12,41804356,-22
32-13,41808262,-21
32-14,41812168,-22
32-15,41816074,-23
32-16,41819980,-24
32-17,41823886,-27
32-18,41827792,-33
32-19,41831698,-41
32-20,41835604,-54
32-21,41839510,-62
32-22,41843416,-62
32-23,41847322,-44
32-24,41851228,-22
32-25,41855134,-16
32-26,41859040,-18
32-27,41862946,-18
32-28,41866852,-5
32-29,41870758,6
32-30,41874664,-1
32-31,41878570,-23
32-32,41882476,-43
32-1,41886388,-51
32-2,41890294,-45
32-3,41894200,-39
32-4,41898106,-38
32-5,41902012,-34
32-6,41905918,-33
32-7,41909824,-27
32-8,41913730,-21
32-9,41917636,-19
32-10,41921542,-26
32-11,41925448,-40
32-12,41929354,-55
32-13,41933260,-59
32-14,41937166,-50
32-15,41941072,-30
32-16,41944978,-10
32-17,41948884,4
32-18,41952790,7
32-19,41956696,6
32-20,41960602,4
32-21,41964508,3
32-22,41968414,0
32-23,41972320,1
32-24,41976226,6
32-25,41980132,13
32-26,41984038,24
32-27,41987944,20
32-28,41991850,6
32-29,41995756,-15
32-30,41999662,-33
32-31,42003568,-44
32-32,42007474,-43
32-1,42011386,-38
32-2,42015292,-34
32-3,42019198,-48
32-4,42023104,-75
32-5,42027010,-91
32-6,42030916,-92
32-7,42034822,-83
32-8,42038728,-75
32-9,42042634,-72
32-10,42046540,-65
32-11,42050446,-55
32-12,42054352,-46
32-13,42058258,-36
32-14,42062164,-27
32-15,42066070,-19
32-16,42069976,-17
32-17,42073882,-20
32-18,42077788,-23
32-19,42081694,-19
32-20,42085600,-14
32-21,42089506,-14
32-22,42093412,-21
32-23,42097318,-28
32-24,42101224,-35
32-25,42105130,-41
32-26,42109036,-32
32-27,42112942,-20
32-28,42116848,-9
32-29,42120754,-15
32-30,42124660,-36
32-31,42128566,-53
32-32,42132472,-52
32-1,42136536,-46
32-2,42140442,-44
32-3,42144348,-50
32-4,42148254,-56
32-5,42152160,-49
32-6,42156066,-43
32-7,42159972,-40
32-8,42163878,-36
32-9,42167784,-30
32-10,42171690,-26
32-11,42175596,-26
32-12,42179502,-29
32-13,42183408,-34
32-14,42187314,-40
32-15,42191220,-47
32-16,42195126,-54
32-17,42199032,-54
32-18,42202938,-46
32-19,42206844,-28
32-20,42210750,-1
32-21,42214656,22
32-22,42218562,26
32-23,42222468,9
32-24,42226374,-22
32-25,42230280,-52
32-26,42234186,-52
32-27,42238092,-28
32-28,42241998,10
32-29,42245904,34
32-30,42249810,34
32-31,42253716,12
32-32,42257622,-8
32-1,42261381,-18
32-2,42265287,-19
32-3,42269193,-23
32-4,42273099,-36
32-5,42277005,-40
32-6,42280911,-32
32-7,42284817,-23
32-8,42288723,-29
32-9,42292629,-42
32-10,42296535,-52
32-11,42300441,-43
32-12,42304347,-27
32-13,42308253,-17
32-14,42312159,-23
32-15,42316065,-38
32-16,42319971,-54
32-17,42323877,-60
32-18,42327783,-57
32-19,42331689,-49
32-20,42335595,-48
32-21,42339501,-52
32-22,42343407,-55
32-23,42347313,-38
32-24,42351219,-16
32-25,42355125,-13
32-26,42359031,-4
32-27,42362937,23
32-28,42366843,60
32-29,42370749,74
32-30,42374655,45
32-31,42378561,-16
32-32,42382467,-60
32-1,42386378,-64
32-2,42390284,-32
32-3,42394190,-2
32-4,42398096,-3
32-5,42402002,-17
32-6,42405908,-37
32-7,42409814,-50
32-8,42413720,-48
32-9,42417626,-38
32-10,42421532,-39
32-11,42425438,-51
32-12,42429344,-63
32-13,42433250,-59
32-14,42437156,-53
32-15,42441062,-58
32-16,42444968,-77
32-17,42448874,-87
32-18,42452780,-78
32-19,42456686,-56
32-20,42460592,-40
32-21,42464498,-38
32-22,42468404,-47
32-23,42472310,-49
32-24,42476216,-39
32-25,42480122,-24
32-26,42484028,-4
32-27,42487934,13
32-28,42491840,28
32-29,42495746,27
32-30,42499652,6
32-31,42503558,-37
32-32,42507464,-77
32-1,42511376,-96
32-2,42515282,-82
32-3,42519188,-57
32-4,42523094,-43
32-5,42527000,-42
32-6,42530906,-48
32-7,42534812,-43
32-8,42538718,-15
32-9,42542624,23
32-10,42546530,44
32-11,42550436,32
32-12,42554342,-8
32-13,42558248,-47
32-14,42562154,-59
