32-1,4131152,4395
32-2,4135058,5474
32-3,4138964,5251
32-4,4142870,-710
32-5,4146776,-1319
32-6,4150682,4958
32-7,4154588,6012
32-8,4158494,4715
32-9,4162400,4486
32-10,4166306,6197
32-11,4170212,3544
32-12,4174118,-4733
32-13,4178024,-1941
32-14,4181930,5536
32-15,4185836,5269
32-16,4189742,4041
32-17,4193648,4713
32-18,4197554,5946
32-19,4201460,1178
32-20,4205366,-3502
32-21,4209272,2025
32-22,4213178,5848
32-23,4217084,4264
32-24,4220990,3773
32-25,4224896,5596
32-26,4228802,3819
32-27,4232708,-1555
32-28,4236614,-4019
32-29,4240520,-16242
32-30,4244426,-25569
32-31,4248332,-9604
32-32,4252238,4526
32-1,4256180,5644
32-2,4260086,3644
32-3,4263992,-1956
32-4,4267898,77
32-5,4271804,5559
32-6,4275710,5162
32-7,4279616,4099
32-8,4283522,4561
32-9,4287428,6255
32-10,4291334,1179
32-11,4295240,-4809
32-12,4299146,1220
32-13,4303052,6359
32-14,4306958,4827
32-15,4310864,4076
32-16,4314770,5108
32-17,4318676,5109
32-18,4322582,-769
32-19,4326488,-2507
32-20,4330394,3726
32-21,4334300,5201
32-22,4338206,3712
32-23,4342112,3152
32-24,4346018,4933
32-25,4349924,3803
32-26,4353830,-6903
32-27,4357736,-3744
32-28,4361642,5677
32-29,4365548,-11786
32-30,4369454,-26423
32-31,4373360,-10630
32-32,4377266,6839
32-1,4381178,292
32-2,4385084,-13676
32-3,4388990,-7226
32-4,4392896,5239
32-5,4396802,5259
32-6,4400708,3369
32-7,4404614,5158
32-8,4408520,5577
32-9,4412426,-1367
32-10,4416332,-4420
32-11,4420238,3165
32-12,4424144,5985
32-13,4428050,4092
32-14,4431956,4268
32-15,4435862,5383
32-16,4439768,3937
32-17,4443674,-451
32-18,4447580,1220
32-19,4451486,5137
32-20,4455392,4679
32-21,4459298,3945
32-22,4463204,4210
32-23,4467110,4802
32-24,4471016,1616
32-25,4474922,-1226
32-26,4478828,792
32-27,4482734,5211
32-28,4486640,5313
32-29,4490546,-12974
32-30,4494452,-24891
32-31,4498358,-9054
32-32,4502264,-1146
32-1,4506176,-3273
32-2,4510082,3140
32-3,4513988,5112
32-4,4517894,4033
32-5,4521800,3178
32-6,4525706,4852
32-7,4529612,6107
32-8,4533518,-12818
32-9,4537424,-32463
32-10,4541330,-32058
32-11,4545236,-29964
32-12,4549142,-31283
32-13,4553048,-24482
32-14,4556954,-6791
32-15,4560860,-1665
32-16,4564766,-11057
32-17,4568672,-6879
32-18,4572578,4955
32-19,4576484,7933
32-20,4580390,6954
32-21,4584296,7155
32-22,4588202,10983
32-23,4592108,-362
32-24,4596014,-25861
32-25,4599920,-30408
32-26,4603826,-28587
32-27,4607732,-29642
32-28,4611638,-29301
32-29,4615544,-28441
32-30,4619450,-28531
32-31,4623356,-28108
32-32,4627262,-27786
33-1,4629068,-27434
33-2,4632974,-27172
33-3,4636880,-26543
33-4,4640786,-26513
33-5,4644692,-25959
33-6,4648598,-23675
33-7,4652504,-24003
33-8,4656410,-25263
33-9,4660316,-24947
33-10,4664222,-24403
33-11,4668128,-23372
33-12,4672034,-15499
33-13,4675940,-32
33-14,4679846,-877
33-15,4683752,-19616
33-16,4687658,-23590
33-17,4691564,-22331
33-18,4695470,-22769
33-19,4699376,-21707
33-20,4703282,-11256
33-21,4707188,1792
33-22,4711094,-5466
33-23,4715000,-22238
33-24,4718906,-21998
33-25,4722812,-20397
33-26,4726718,-20820
33-27,4730624,-11544
33-28,4734530,-442
33-29,4738436,-7123
33-30,4742342,-20412
33-31,4746248,-20716
33-32,4750154,-19669
33-33,4754060,-20212
32-1,4759894,-19757
32-2,4763800,-18432
32-3,4767706,-14001
32-4,4771612,-12039
32-5,4775518,-16104
32-6,4779424,-17999
32-7,4783330,-16587
32-8,4787236,-14402
32-9,4791142,-12093
32-10,4795048,-5218
32-11,4798954,5334
32-12,4802860,523
32-13,4806766,-13537
32-14,4810672,-15260
32-15,4814578,-11346
32-16,4818484,-8099
32-17,4822390,-2043
32-18,4826296,11941
32-19,4830202,20664
32-20,4834108,3280
32-21,4838014,-14134
32-22,4841920,-12371
32-23,4845826,-9177
32-24,4849732,-7621
32-25,4853638,-1533
32-26,4857544,11110
32-27,4861450,12999
32-28,4865356,-4055
32-29,4869262,-12456
32-30,4873168,-9319
32-31,4877074,-9133
32-32,4880980,-8878
32-1,4884892,-5142
32-2,4888798,1210
32-3,4892704,46
32-4,4896610,-7620
32-5,4900516,-9030
32-6,4904422,-7434
32-7,4908328,-6944
32-8,4912234,-5774
32-9,4916140,-612
32-10,4920046,4878
32-11,4923952,-190
32-12,4927858,-6975
32-13,4931764,-6359
32-14,4935670,-4488
32-15,4939576,-3055
32-16,4943482,762
32-17,4947388,10785
32-18,4951294,13622
32-19,4955200,712
32-20,4959106,-6494
32-21,4963012,-3941
32-22,4966918,-2318
32-23,4970824,-663
32-24,4974730,5784
32-25,4978636,16275
32-26,4982542,12547
32-27,4986448,-2221
32-28,4990354,-5108
32-29,4994260,-2543
32-30,4998166,-3122
32-31,5002072,-2607
32-32,5005978,1751
32-1,5009889,6875
32-2,5013795,3035
32-3,5017701,-3145
32-4,5021607,-2706
32-5,5025513,-1919
32-6,5029419,-2194
32-7,5033325,-1351
32-8,5037231,1363
32-9,5041137,3015
32-10,5045043,330
32-11,5048949,-1566
32-12,5052855,-972
32-13,5056761,294
32-14,5060667,1535
32-15,5064573,5457
32-16,5068479,13529
32-17,5072385,11817
32-18,5076291,1079
32-19,5080197,-1617
32-20,5084103,582
32-21,5088009,1504
32-22,5091915,3277
32-23,5095821,10270
32-24,5099727,17604
32-25,5103633,10222
32-26,5107539,-656
32-27,5111445,-362
32-28,5115351,1223
32-29,5119257,499
32-30,5123163,600
32-31,5127069,2648
32-32,5130975,4617
32-1,5134887,2443
32-2,5138793,602
32-3,5142699,1135
32-4,5146605,1223
32-5,5150511,1188
32-6,5154417,2001
32-7,5158323,4242
32-8,5162229,4484
32-9,5166135,2151
32-10,5170041,1373
32-11,5173947,2011
32-12,5177853,3060
32-13,5181759,4094
32-14,5185665,8773
32-15,5189571,14751
32-16,5193477,9923
32-17,5197383,1789
32-18,5201289,1558
32-19,5205195,3112
32-20,5209101,3779
32-21,5213007,6142
32-22,5216913,13590
32-23,5220819,17466
32-24,5224725,8027
32-25,5228631,775
32-26,5232537,2662
32-27,5236443,3313
32-28,5240349,2687
32-29,5244255,2713
32-30,5248161,2992
32-31,5252067,3332
32-32,5255973,2816
32-1,5259885,2561
32-2,5263791,2634
32-3,5267697,2630
32-4,5271603,2618
32-5,5275509,3469
32-6,5279415,5047
32-7,5283321,4521
32-8,5287227,2950
32-9,5291133,2674
32-10,5295039,3267
32-11,5298945,4037
32-12,5302851,5182
32-13,5306757,10201
32-14,5310663,13433
32-15,5314569,7330
32-16,5318475,2293
32-17,5322381,3176
32-18,5326287,3907
32-19,5330193,4122
32-20,5334099,6378
32-21,5338005,12188
32-22,5341911,12512
32-23,5345817,4969
32-24,5349723,2190
32-25,5353629,3615
32-26,5357535,4759
32-27,5361441,6863
32-28,5365347,7004
32-29,5369253,5423
32-30,5373159,3998
32-31,5377065,3175
32-32,5380971,3284
32-1,5384882,3203
32-2,5388788,3080
32-3,5392694,3175
32-4,5396600,4015
32-5,5400506,4925
32-6,5404412,4100
32-7,5408318,3170
32-8,5412224,3137
32-9,5416130,3857
32-10,5420036,4603
32-11,5423942,6497
32-12,5427848,12136
32-13,5431754,12656
32-14,5435660,5281
32-15,5439566,2267
32-16,5443472,3620
32-17,5447378,3984
32-18,5451284,4442
32-19,5455190,7858
32-20,5459096,13197
32-21,5463002,10616
32-22,5466908,3150
32-23,5470814,2383
32-24,5474720,4075
32-25,5478626,4202
32-26,5482532,8055
32-27,5486438,13123
32-28,5490344,10551
32-29,5494250,4122
32-30,5498156,2668
32-31,5502062,3109
32-32,5505968,2632
32-1,5509941,2664
32-2,5513847,2905
32-3,5517753,4198
32-4,5521659,4705
32-5,5525565,3243
32-6,5529471,2480
32-7,5533377,2659
32-8,5537283,3086
32-9,5541189,3454
32-10,5545095,5612
32-11,5549001,9627
32-12,5552907,8105
32-13,5556813,2927
32-14,5560719,2018
32-15,5564625,2972
32-16,5568531,3352
32-17,5572437,4276
32-18,5576343,8763
32-19,5580249,12826
32-20,5584155,7644
32-21,5588061,1736
32-22,5591967,2154
32-23,5595873,3148
32-24,5599779,3533
32-25,5603685,5717
32-26,5607591,12109
32-27,5611497,13700
32-28,5615403,5297
32-29,5619309,901
32-30,5623215,2277
32-31,5627121,2281
32-32,5631027,2257
32-1,5635061,4486
32-2,5638967,8583
32-3,5642873,7457
32-4,5646779,2133
32-5,5650685,1271
32-6,5654591,2048
32-7,5658497,1563
32-8,5662403,1654
32-9,5666309,2764
32-10,5670215,4077
32-11,5674121,3084
32-12,5678027,1488
32-13,5681933,1380
32-14,5685839,1928
32-15,5689745,2510
32-16,5693651,3846
32-17,5697557,8630
32-18,5701463,10304
32-19,5705369,4275
32-20,5709275,734
32-21,5713181,1709
32-22,5717087,2297
32-23,5720993,2743
32-24,5724899,5727
32-25,5728805,11541
32-26,5732711,10035
32-27,5736617,2160
32-28,5740523,498
32-29,5744429,1831
32-30,5748335,1267
32-31,5752241,1234
32-32,5756147,2972
32-1,5760058,5196
32-2,5763964,3728
32-3,5767870,1124
32-4,5771776,1199
32-5,5775682,1346
32-6,5779588,1074
32-7,5783494,1293
32-8,5787400,2281
32-9,5791306,2942
32-10,5795212,1908
32-11,5799118,1046
32-12,5803024,1077
32-13,5806930,1595
32-14,5810836,2006
32-15,5814742,3782
32-16,5818648,8178
32-17,5822554,7617
32-18,5826460,2038
32-19,5830366,477
32-20,5834272,1460
32-21,5838178,1764
32-22,5842084,2431
32-23,5845990,6144
32-24,5849896,10563
32-25,5853802,6802
32-26,5857708,599
32-27,5861614,636
32-28,5865520,1488
32-29,5869426,864
32-30,5873332,735
32-31,5877238,1581
32-32,5881144,2498
32-1,5885056,1632
32-2,5888962,808
32-3,5892868,921
32-4,5896774,840
32-5,5900680,782
32-6,5904586,1105
32-7,5908492,2051
32-8,5912398,2184
32-9,5916304,1222
32-10,5920210,799
32-11,5924116,949
32-12,5928022,1391
32-13,5931928,1737
32-14,5935834,4013
32-15,5939740,7213
32-16,5943646,4942
32-17,5947552,871
32-18,5951458,668
32-19,5955364,1331
32-20,5959270,1521
32-21,5963176,2501
32-22,5967082,6629
32-23,5970988,8988
32-24,5974894,3885
32-25,5978800,22
32-26,5982706,742
32-27,5986612,1292
32-28,5990518,1896
32-29,5994424,1595
32-30,5998330,1143
32-31,6002236,1557
32-32,6006142,1032
33-1,6007490,579
33-2,6011396,674
33-3,6015302,597
33-4,6019208,554
33-5,6023114,981
33-6,6027020,1763
33-7,6030926,1545
33-8,6034832,832
33-9,6038738,634
33-10,6042644,814
33-11,6046550,1161
33-12,6050456,1629
33-13,6054362,4241
33-14,6058268,6055
33-15,6062174,2918
33-16,6066080,301
33-17,6069986,682
33-18,6073892,1117
33-19,6077798,1311
33-20,6081704,2767
33-21,6085610,6629
33-22,6089516,6892
33-23,6093422,1784
33-24,6097328,-107
33-25,6101234,953
33-26,6105140,618
33-27,6109046,2074
33-28,6112952,4377
33-29,6116858,2845
33-30,6120764,352
33-31,6124670,468
33-32,6128576,698
33-33,6132482,316
32-1,6138835,396
32-2,6142741,382
32-3,6146647,774
32-4,6150553,1257
32-5,6154459,868
32-6,6158365,384
32-7,6162271,275
32-8,6166177,537
32-9,6170083,770
32-10,6173989,1609
32-11,6177895,4418
32-12,6181801,4835
32-13,6185707,1363
32-14,6189613,-121
32-15,6193519,493
32-16,6197425,794
32-17,6201331,1045
32-18,6205237,3126
32-19,6209143,6658
32-20,6213049,5009
32-21,6216955,427
32-22,6220861,-205
32-23,6224767,610
32-24,6228673,789
32-25,6232579,1565
32-26,6236485,5204
32-27,6240391,7778
32-28,6244297,3410
32-29,6248203,-461
32-30,6252109,223
32-31,6256015,191
32-32,6259921,-218
32-1,6263772,110
32-2,6267678,587
32-3,6271584,837
32-4,6275490,343
32-5,6279396,-40
32-6,6283302,-68
32-7,6287208,238
32-8,6291114,448
32-9,6295020,1753
32-10,6298926,4354
32-11,6302832,3437
32-12,6306738,265
32-13,6310644,-248
32-14,6314550,194
32-15,6318456,194
32-16,6322362,550
32-17,6326268,2670
32-18,6330174,4762
32-19,6334080,2503
32-20,6337986,-232
32-21,6341892,-125
32-22,6345798,491
32-23,6349704,887
32-24,6353610,2293
32-25,6357516,6796
32-26,6361422,7943
32-27,6365328,2031
32-28,6369234,-994
32-29,6373140,56
32-30,6377046,-145
32-31,6380952,-398
32-32,6384858,457
32-1,6388769,1994
32-2,6392675,1729
32-3,6396581,-144
32-4,6400487,-481
32-5,6404393,-259
32-6,6408299,-440
32-7,6412205,-398
32-8,6416111,258
32-9,6420017,1081
32-10,6423923,546
32-11,6427829,-327
32-12,6431735,-415
32-13,6435641,-120
32-14,6439547,159
32-15,6443453,889
32-16,6447359,3852
32-17,6451265,4880
32-18,6455171,1176
32-19,6459077,-893
32-20,6462983,-300
32-21,6466889,-153
32-22,6470795,-56
32-23,6474701,1355
32-24,6478607,4247
32-25,6482513,3743
32-26,6486419,108
32-27,6490325,-666
32-28,6494231,-87
32-29,6498137,-392
32-30,6502043,-458
32-31,6505949,157
32-32,6509855,1022
32-1,6513767,547
32-2,6517673,-323
32-3,6521579,-280
32-4,6525485,-334
32-5,6529391,-479
32-6,6533297,-380
32-7,6537203,76
32-8,6541109,405
32-9,6545015,-4
32-10,6548921,-390
32-11,6552827,-423
32-12,6556733,-23
32-13,6560639,296
32-14,6564545,1510
32-15,6568451,4475
32-16,6572357,4052
32-17,6576263,319
32-18,6580169,-660
32-19,6584075,-60
32-20,6587981,-61
32-21,6591887,164
32-22,6595793,1974
32-23,6599699,4322
32-24,6603605,2621
32-25,6607511,-385
32-26,6611417,-392
32-27,6615323,-86
32-28,6619229,-256
32-29,6623135,-222
32-30,6627041,79
32-31,6630947,588
32-32,6634853,167
32-1,6638795,-363
32-2,6642701,-297
32-3,6646607,-374
32-4,6650513,-491
32-5,6654419,-360
32-6,6658325,95
32-7,6662231,255
32-8,6666137,-74
32-9,6670043,-300
32-10,6673949,-326
32-11,6677855,-103
32-12,6681761,54
32-13,6685667,1300
32-14,6689573,3206
32-15,6693479,2070
32-16,6697385,-216
32-17,6701291,-424
32-18,6705197,-91
32-19,6709103,4
32-20,6713009,452
32-21,6716915,2742
32-22,6720821,4258
32-23,6724727,1498
32-24,6728633,-763
32-25,6732539,-376
32-26,6736445,-125
32-27,6740351,151
32-28,6744257,158
32-29,6748163,-146
32-30,6752069,-85
32-31,6755975,-107
32-32,6759881,-138
32-1,6764037,-187
32-2,6767943,-277
32-3,6771849,-303
32-4,6775755,-151
32-5,6779661,227
32-6,6783567,241
32-7,6787473,-42
32-8,6791379,-227
32-9,6795285,-196
32-10,6799191,-18
32-11,6803097,219
32-12,6807003,1690
32-13,6810909,2837
32-14,6814815,1213
32-15,6818721,-307
32-16,6822627,-217
32-17,6826533,0
32-18,6830439,74
32-19,6834345,868
32-20,6838251,3276
32-21,6842157,3597
32-22,6846063,552
32-23,6849969,-588
32-24,6853875,5
32-25,6857781,-219
32-26,6861687,646
32-27,6865593,1865
32-28,6869499,1107
32-29,6873405,-31
32-30,6877311,-64
32-31,6881217,-85
32-32,6885123,-299
32-1,6888760,-277
32-2,6892666,-286
32-3,6896572,-157
32-4,6900478,68
32-5,6904384,-8
32-6,6908290,-249
32-7,6912196,-407
32-8,6916102,-314
32-9,6920008,-201
32-10,6923914,210
32-11,6927820,1641
32-12,6931726,1954
32-13,6935632,331
32-14,6939538,-451
32-15,6943444,-284
32-16,6947350,-152
32-17,6951256,-5
32-18,6955162,1152
32-19,6959068,3206
32-20,6962974,2381
32-21,6966880,-141
32-22,6970786,-546
32-23,6974692,-154
32-24,6978598,-48
32-25,6982504,338
32-26,6986410,2510
32-27,6990316,4224
32-28,6994222,1680
32-29,6998128,-659
32-30,7002034,-292
32-31,7005940,-333
32-32,7009846,-575
32-1,7013758,-257
32-2,7017664,531
32-3,7021570,845
32-4,7025476,20
32-5,7029382,-391
32-6,7033288,-318
32-7,7037194,-389
32-8,7041100,-409
32-9,7045006,-101
32-10,7048912,601
32-11,7052818,510
32-12,7056724,-225
32-13,7060630,-473
32-14,7064536,-371
32-15,7068442,-178
32-16,7072348,24
32-17,7076254,1561
32-18,7080160,3087
32-19,7084066,1354
32-20,7087972,-616
32-21,7091878,-498
32-22,7095784,-206
32-23,7099690,-138
32-24,7103596,580
32-25,7107502,3076
32-26,7111408,3816
32-27,7115314,732
32-28,7119220,-784
32-29,7123126,-229
32-30,7127032,-423
32-31,7130938,-609
32-32,7134844,-75
32-1,7138755,993
32-2,7142661,850
32-3,7146567,-360
32-4,7150473,-532
32-5,7154379,-406
32-6,7158285,-598
32-7,7162191,-603
32-8,7166097,-519
32-9,7170003,-357
32-10,7173909,-313
32-11,7177815,-426
32-12,7181721,-559
32-13,7185627,-453
32-14,7189533,-261
32-15,7193439,89
32-16,7197345,1541
32-17,7201251,2090
32-18,7205157,388
32-19,7209063,-632
32-20,7212969,-437
32-21,7216875,-289
32-22,7220781,-182
32-23,7224687,762
32-24,7228593,2743
32-25,7232499,2361
32-26,7236405,-87
32-27,7240311,-596
32-28,7244217,-218
32-29,7248123,-394
32-30,7252029,-437
32-31,7255935,-202
32-32,7259841,213
32-1,7263753,65
32-2,7267659,-336
32-3,7271565,-377
32-4,7275471,-430
32-5,7279377,-472
32-6,7283283,-421
32-7,7287189,-181
32-8,7291095,36
32-9,7295001,-87
32-10,7298907,-254
32-11,7302813,-364
32-12,7306719,-305
32-13,7310625,-228
32-14,7314531,342
32-15,7318437,1742
32-16,7322343,1594
32-17,7326249,-18
32-18,7330155,-463
32-19,7334061,-286
32-20,7337967,-297
32-21,7341873,-180
32-22,7345779,726
32-23,7349685,1979
32-24,7353591,1208
32-25,7357497,-313
32-26,7361403,-400
32-27,7365309,-255
32-28,7369215,-312
32-29,7373121,-310
32-30,7377027,-49
32-31,7380933,347
32-32,7384839,65
32-1,7389147,-291
32-2,7393053,-263
32-3,7396959,-338
32-4,7400865,-400
32-5,7404771,-365
32-6,7408677,-251
32-7,7412583,-152
32-8,7416489,-231
32-9,7420395,-413
32-10,7424301,-453
32-11,7428207,-266
32-12,7432113,-155
32-13,7436019,697
32-14,7439925,1881
32-15,7443831,1112
32-16,7447737,-253
32-17,7451643,-349
32-18,7455549,-256
32-19,7459455,-301
32-20,7463361,-73
32-21,7467267,946
32-22,7471173,1632
32-23,7475079,541
32-24,7478985,-395
32-25,7482891,-286
32-26,7486797,-235
32-27,7490703,-178
32-28,7494609,-101
32-29,7498515,-169
32-30,7502421,-276
32-31,7506327,-280
32-32,7510233,-202
32-1,7513748,-268
32-2,7517654,-354
32-3,7521560,-377
32-4,7525466,-345
32-5,7529372,-207
32-6,7533278,-133
32-7,7537184,-178
32-8,7541090,-316
32-9,7544996,-313
32-10,7548902,-202
32-11,7552808,-49
32-12,7556714,990
32-13,7560620,1781
32-14,7564526,717
32-15,7568432,-256
32-16,7572338,-166
32-17,7576244,-176
32-18,7580150,-207
32-19,7584056,214
32-20,7587962,956
32-21,7591868,1007
32-22,7595774,161
32-23,7599680,-202
32-24,7603586,-111
32-25,7607492,-229
32-26,7611398,294
32-27,7615304,1021
32-28,7619210,511
32-29,7623116,-137
32-30,7627022,31
32-31,7630928,9
32-32,7634834,-191
32-1,7638746,-216
32-2,7642652,-286
32-3,7646558,-149
32-4,7650464,86
32-5,7654370,56
32-6,7658276,-97
32-7,7662182,-227
32-8,7666088,-219
32-9,7669994,-189
32-10,7673900,46
32-11,7677806,1025
32-12,7681712,1319
32-13,7685618,268
32-14,7689524,-274
32-15,7693430,-157
32-16,7697336,-87
32-17,7701242,-57
32-18,7705148,738
32-19,7709054,2268
32-20,7712960,1776
32-21,7716866,-25
32-22,7720772,-386
32-23,7724678,-125
32-24,7728584,-60
32-25,7732490,217
32-26,7736396,1869
32-27,7740302,3162
32-28,7744208,1267
32-29,7748114,-482
32-30,7752020,-247
32-31,7755926,-312
32-32,7759832,-489
32-1,7763743,-272
32-2,7767649,271
32-3,7771555,524
32-4,7775461,-45
32-5,7779367,-363
32-6,7783273,-324
32-7,7787179,-376
32-8,7791085,-399
32-9,7794991,-72
32-10,7798897,626
32-11,7802803,541
32-12,7806709,-163
32-13,7810615,-366
32-14,7814521,-257
32-15,7818427,-144
32-16,7822333,-45
32-17,7826239,913
32-18,7830145,1950
32-19,7834051,897
32-20,7837957,-420
32-21,7841863,-420
32-22,7845769,-222
32-23,7849675,-170
32-24,7853581,290
32-25,7857487,2128
32-26,7861393,2767
32-27,7865299,519
32-28,7869205,-641
32-29,7873111,-180
32-30,7877017,-309
32-31,7880923,-545
32-32,7884829,-154
32-1,7888741,717
32-2,7892647,623
32-3,7896553,-284
32-4,7900459,-399
32-5,7904365,-349
32-6,7908271,-546
32-7,7912177,-527
32-8,7916083,-403
32-9,7919989,-227
32-10,7923895,-179
32-11,7927801,-299
32-12,7931707,-451
32-13,7935613,-433
32-14,7939519,-343
32-15,7943425,-120
32-16,7947331,933
32-17,7951237,1402
32-18,7955143,252
32-19,7959049,-492
32-20,7962955,-390
32-21,7966861,-296
32-22,7970767,-245
32-23,7974673,393
32-24,7978579,1820
32-25,7982485,1581
32-26,7986391,-169
32-27,7990297,-574
32-28,7994203,-315
32-29,7998109,-413
32-30,8002015,-454
32-31,8005921,-201
32-32,8009827,259
32-1,8013739,79
32-2,8017645,-356
32-3,8021551,-356
32-4,8025457,-379
32-5,8029363,-449
32-6,8033269,-453
32-7,8037175,-392
32-8,8041081,-272
32-9,8044987,-262
32-10,8048893,-343
32-11,8052799,-437
32-12,8056705,-407
32-13,8060611,-397
32-14,8064517,-65
32-15,8068423,826
32-16,8072329,754
32-17,8076235,-180
32-18,8080141,-423
32-19,8084047,-307
32-20,8087953,-270
32-21,8091859,-162
32-22,8095765,746
32-23,8099671,1885
32-24,8103577,1047
32-25,8107483,-343
32-26,8111389,-358
32-27,8115295,-297
32-28,8119201,-425
32-29,8123107,-348
32-30,8127013,-325
32-31,8130919,-280
32-32,8134825,-241
32-1,8138797,-226
32-2,8142703,-275
32-3,8146609,-351
32-4,8150515,-368
32-5,8154421,-343
32-6,8158327,-204
32-7,8162233,-89
32-8,8166139,-120
32-9,8170045,-226
32-10,8173951,-294
32-11,8177857,-246
32-12,8181763,-220
32-13,8185669,284
32-14,8189575,1023
32-15,8193481,612
32-16,8197387,-162
32-17,8201293,-232
32-18,8205199,-220
32-19,8209105,-275
32-20,8213011,-115
32-21,8216917,644
32-22,8220823,1125
32-23,8224729,332
32-24,8228635,-351
32-25,8232541,-288
32-26,8236447,-146
32-27,8240353,-1
32-28,8244259,68
32-29,8248165,41
32-30,8252071,-82
32-31,8255977,-160
32-32,8259883,-100
32-1,8263734,-182
32-2,8267640,-283
32-3,8271546,-274
32-4,8275452,-276
32-5,8279358,-212
32-6,8283264,-112
32-7,8287170,-130
32-8,8291076,-294
32-9,8294982,-314
32-10,8298888,-216
32-11,8302794,-110
32-12,8306700,642
32-13,8310606,1213
32-14,8314512,478
32-15,8318418,-185
32-16,8322324,-185
32-17,8326230,-205
32-18,8330136,-235
32-19,8334042,63
32-20,8337948,941
32-21,8341854,1139
32-22,8345760,137
32-23,8349666,-311
32-24,8353572,-141
32-25,8357478,-213
32-26,8361384,335
32-27,8365290,1083
32-28,8369196,572
32-29,8373102,-122
32-30,8377008,2
32-31,8380914,-9
32-32,8384820,-203
32-1,8388732,-223
32-2,8392638,-269
32-3,8396544,-238
32-4,8400450,-135
32-5,8404356,-64
32-6,8408262,-94
32-7,8412168,-223
32-8,8416074,-233
32-9,8419980,-234
32-10,8423886,-118
32-11,8427792,477
32-12,8431698,674
32-13,8435604,120
32-14,8439510,-192
32-15,8443416,-211
32-16,8447322,-226
32-17,8451228,-223
32-18,8455134,300
32-19,8459040,1261
32-20,8462946,948
32-21,8466852,-116
32-22,8470758,-354
32-23,8474664,-253
32-24,8478570,-230
32-25,8482476,-45
32-26,8486382,1116
32-27,8490288,2014
32-28,8494194,787
32-29,8498100,-296
32-30,8502006,-156
32-31,8505912,-266
32-32,8509818,-407
32-1,8513729,-286
32-2,8517635,51
32-3,8521541,251
32-4,8525447,-51
32-5,8529353,-266
32-6,8533259,-309
32-7,8537165,-359
32-8,8541071,-371
32-9,8544977,-172
32-10,8548883,302
32-11,8552789,315
32-12,8556695,-109
32-13,8560601,-301
32-14,8564507,-301
32-15,8568413,-261
32-16,8572319,-189
32-17,8576225,502
32-18,8580131,1271
32-19,8584037,654
32-20,8587943,-184
32-21,8591849,-212
32-22,8595755,-135
32-23,8599661,-117
32-24,8603567,203
32-25,8607473,1398
32-26,8611379,1826
32-27,8615285,367
32-28,8619191,-441
32-29,8623097,-178
32-30,8627003,-266
32-31,8630909,-432
32-32,8634815,-189
32-1,8638727,381
32-2,8642633,358
32-3,8646539,-188
32-4,8650445,-255
32-5,8654351,-221
32-6,8658257,-352
32-7,8662163,-361
32-8,8666069,-276
32-9,8669975,-130
32-10,8673881,-83
32-11,8677787,-184
32-12,8681693,-340
32-13,8685599,-350
32-14,8689505,-289
32-15,8693411,-135
32-16,8697317,695
32-17,8701223,1131
32-18,8705129,260
32-19,8709035,-377
32-20,8712941,-318
32-21,8716847,-241
32-22,8720753,-246
32-23,8724659,239
32-24,8728565,1426
32-25,8732471,1322
32-26,8736377,-46
32-27,8740283,-378
32-28,8744189,-135
32-29,8748095,-230
32-30,8752001,-341
32-31,8755907,-212
32-32,8759813,107
32-1,8763724,30
32-2,8767630,-220
32-3,8771536,-234
32-4,8775442,-339
32-5,8779348,-436
32-6,8783254,-391
32-7,8787160,-322
32-8,8791066,-199
32-9,8794972,-108
32-10,8798878,-189
32-11,8802784,-344
32-12,8806690,-339
32-13,8810596,-310
32-14,8814502,-102
32-15,8818408,499
32-16,8822314,538
32-17,8826220,-77
32-18,8830126,-370
32-19,8834032,-369
32-20,8837938,-347
32-21,8841844,-288
32-22,8845750,371
32-23,8849656,1243
32-24,8853562,704
32-25,8857468,-293
32-26,8861374,-348
32-27,8865280,-303
32-28,8869186,-370
32-29,8873092,-310
32-30,8876998,-302
32-31,8880904,-233
32-32,8884810,-160
32-1,8888783,-189
32-2,8892689,-278
32-3,8896595,-347
32-4,8900501,-337
32-5,8904407,-302
32-6,8908313,-264
32-7,8912219,-206
32-8,8916125,-185
32-9,8920031,-268
32-10,8923937,-327
32-11,8927843,-305
32-12,8931749,-315
32-13,8935655,60
32-14,8939561,627
32-15,8943467,388
32-16,8947373,-131
32-17,8951279,-231
32-18,8955185,-232
32-19,8959091,-237
32-20,8962997,-91
32-21,8966903,675
32-22,8970809,1200
32-23,8974715,432
32-24,8978621,-240
32-25,8982527,-214
32-26,8986433,-230
32-27,8990339,-170
32-28,8994245,-86
32-29,8998151,-151
32-30,9002057,-187
32-31,9005963,-118
32-32,9009869,-72
32-1,9013903,-174
32-2,9017809,-277
32-3,9021715,-305
32-4,9025621,-321
32-5,9029527,-294
32-6,9033433,-197
32-7,9037339,-141
32-8,9041245,-242
32-9,9045151,-297
32-10,9049057,-250
32-11,9052963,-208
32-12,9056869,188
32-13,9060775,542
32-14,9064681,193
32-15,9068587,-182
32-16,9072493,-202
32-17,9076399,-176
32-18,9080305,-195
32-19,9084211,58
32-20,9088117,823
32-21,9092023,937
32-22,9095929,125
32-23,9099835,-165
32-24,9103741,-99
32-25,9107647,-277
32-26,9111553,16
32-27,9115459,398
32-28,9119365,71
32-29,9123271,-176
32-30,9127177,-4
32-31,9131083,-68
32-32,9134989,-230
32-1,9138717,-231
32-2,9142623,-215
32-3,9146529,-183
32-4,9150435,-114
32-5,9154341,-29
32-6,9158247,-70
32-7,9162153,-198
32-8,9166059,-188
32-9,9169965,-187
32-10,9173871,-86
32-11,9177777,397
32-12,9181683,548
32-13,9185589,134
32-14,9189495,-87
32-15,9193401,-112
32-16,9197307,-141
32-17,9201213,-143
32-18,9205119,105
32-19,9209025,627
32-20,9212931,543
32-21,9216837,39
32-22,9220743,-110
32-23,9224649,-67
32-24,9228555,-46
32-25,9232461,81
32-26,9236367,1067
32-27,9240273,1792
32-28,9244179,694
32-29,9248085,-247
32-30,9251991,-152
32-31,9255897,-280
32-32,9259803,-373
32-1,9263715,-268
32-2,9267621,-134
32-3,9271527,14
32-4,9275433,-39
32-5,9279339,-139
32-6,9283245,-215
32-7,9287151,-257
32-8,9291057,-261
32-9,9294963,-216
32-10,9298869,-45
32-11,9302775,14
32-12,9306681,-83
32-13,9310587,-186
32-14,9314493,-229
32-15,9318399,-194
32-16,9322305,-118
32-17,9326211,468
32-18,9330117,1049
32-19,9334023,534
32-20,9337929,-112
32-21,9341835,-148
32-22,9345741,-154
32-23,9349647,-232
32-24,9353553,-93
32-25,9357459,577
32-26,9361365,869
32-27,9365271,187
32-28,9369177,-185
32-29,9373083,-78
32-30,9376989,-170
32-31,9380895,-301
32-32,9384801,-234
32-1,9388713,35
32-2,9392619,94
32-3,9396525,-97
32-4,9400431,-152
32-5,9404337,-210
32-6,9408243,-312
32-7,9412149,-324
32-8,9416055,-320
32-9,9419961,-265
32-10,9423867,-168
32-11,9427773,-165
32-12,9431679,-279
32-13,9435585,-288
32-14,9439491,-267
32-15,9443397,-162
32-16,9447303,502
32-17,9451209,805
32-18,9455115,131
32-19,9459021,-299
32-20,9462927,-287
32-21,9466833,-317
32-22,9470739,-301
32-23,9474645,-5
32-24,9478551,639
32-25,9482457,646
32-26,9486363,-4
32-27,9490269,-208
32-28,9494175,-156
32-29,9498081,-207
32-30,9501987,-300
32-31,9505893,-310
32-32,9509799,-121
32-1,9513710,-56
32-2,9517616,-137
32-3,9521522,-186
32-4,9525428,-277
32-5,9529334,-322
32-6,9533240,-302
32-7,9537146,-299
32-8,9541052,-238
32-9,9544958,-116
32-10,9548864,-156
32-11,9552770,-314
32-12,9556676,-300
32-13,9560582,-258
32-14,9564488,-112
32-15,9568394,305
32-16,9572300,335
32-17,9576206,-47
32-18,9580112,-208
32-19,9584018,-215
32-20,9587924,-195
32-21,9591830,-131
32-22,9595736,255
32-23,9599642,795
32-24,9603548,506
32-25,9607454,-98
32-26,9611360,-174
32-27,9615266,-63
32-28,9619172,26
32-29,9623078,-136
32-30,9626984,248
32-31,9630890,1086
32-32,9634796,657
32-1,9638738,-70
32-2,9642644,-95
32-3,9646550,-36
32-4,9650456,-96
32-5,9654362,501
32-6,9658268,2996
32-7,9662174,3462
32-8,9666080,656
32-9,9669986,-564
32-10,9673892,284
32-11,9677798,2273
32-12,9681704,4458
32-13,9685610,12290
32-14,9689516,22031
32-15,9693422,13661
32-16,9697328,-1057
32-17,9701234,-1982
32-18,9705140,805
32-19,9709046,1896
32-20,9712952,5791
32-21,9716858,16627
32-22,9720764,21725
32-23,9724670,7348
32-24,9728576,-3909
32-25,9732482,-1833
32-26,9736388,-820
32-27,9740294,-451
32-28,9744200,22
32-29,9748106,-1144
32-30,9752012,-1828
32-31,9755918,-2299
32-32,9759824,-2416
32-1,9763919,-2502
32-2,9767825,-2601
32-3,9771731,-2608
32-4,9775637,-2271
32-5,9779543,-1417
32-6,9783449,-1535
32-7,9787355,-2252
32-8,9791261,-2446
32-9,9795167,-2295
32-10,9799073,-2067
32-11,9802979,-1715
32-12,9806885,-10
32-13,9810791,1231
32-14,9814697,-691
32-15,9818603,-2434
32-16,9822509,-2210
32-17,9826415,-2060
32-18,9830321,-2069
32-19,9834227,-1518
32-20,9838133,-190
32-21,9842039,-16
32-22,9845945,-1631
32-23,9849851,-2231
32-24,9853757,-1951
32-25,9857663,-2101
32-26,9861569,-1789
32-27,9865475,-1322
32-28,9869381,-1500
32-29,9873287,-1723
32-30,9877193,-1673
32-31,9881099,-1704
32-32,9885005,-1831
32-1,9888703,-1861
32-2,9892609,-1818
32-3,9896515,-1809
32-4,9900421,-1746
32-5,9904327,-1585
32-6,9908233,-1515
32-7,9912139,-1681
32-8,9916045,-1502
32-9,9919951,-1365
32-10,9923857,-802
32-11,9927763,2507
32-12,9931669,3780
32-13,9935575,135
32-14,9939481,-1904
32-15,9943387,-1252
32-16,9947293,25
32-17,9951199,1123
32-18,9955105,6214
32-19,9959011,15194
32-20,9962917,11193
32-21,9966823,-1084
32-22,9970729,-3090
32-23,9974635,-514
32-24,9978541,391
32-25,9982447,3025
32-26,9986353,12488
32-27,9990259,18498
32-28,9994165,6634
32-29,9998071,-4013
32-30,10001977,-2481
32-31,10005883,-2094
32-32,10009789,-2865
32-1,10013701,-1523
32-2,10017607,1787
32-3,10021513,2943
32-4,10025419,-1200
32-5,10029325,-3370
32-6,10033231,-2717
32-7,10037137,-2604
32-8,10041043,-2430
32-9,10044949,-588
32-10,10048855,3126
32-11,10052761,2200
32-12,10056667,-2376
32-13,10060573,-3314
32-14,10064479,-2355
32-15,10068385,-1692
32-16,10072291,-576
32-17,10076197,4058
32-18,10080103,8232
32-19,10084009,2721
32-20,10087915,-3692
32-21,10091821,-3268
32-22,10095727,-2377
32-23,10099633,-2278
32-24,10103539,-667
32-25,10107445,3641
32-26,10111351,4817
32-27,10115257,-796
32-28,10119163,-3767
32-29,10123069,-2709
32-30,10126975,-2941
32-31,10130881,-3192
32-32,10134787,-2579
32-1,10138698,-1727
32-2,10142604,-1804
32-3,10146510,-2691
32-4,10150416,-2813
32-5,10154322,-2757
32-6,10158228,-2887
32-7,10162134,-2814
32-8,10166040,-2630
32-9,10169946,-2427
32-10,10173852,-2393
32-11,10177758,-2453
32-12,10181664,-2520
32-13,10185570,-2502
32-14,10189476,-2422
32-15,10193382,-2337
32-16,10197288,-1938
32-17,10201194,-1673
32-18,10205100,-1955
32-19,10209006,-2186
32-20,10212912,-2200
32-21,10216818,-2135
32-22,10220724,-2085
32-23,10224630,-1852
32-24,10228536,-1228
32-25,10232442,-1193
32-26,10236348,-1786
32-27,10240254,-1948
32-28,10244160,-1838
32-29,10248066,-1802
32-30,10251972,-1822
32-31,10255878,-1706
32-32,10259784,-1379
32-1,10263696,-1360
32-2,10267602,-1518
32-3,10271508,-1515
32-4,10275414,-1575
32-5,10279320,-1604
32-6,10283226,-1547
32-7,10287132,-1503
32-8,10291038,-1408
32-9,10294944,-1321
32-10,10298850,-1345
32-11,10302756,-1407
32-12,10306662,-1331
32-13,10310568,-1295
32-14,10314474,-1051
32-15,10318380,-368
32-16,10322286,-340
32-17,10326192,-963
32-18,10330098,-1151
32-19,10334004,-1128
32-20,10337910,-1174
32-21,10341816,-1136
32-22,10345722,-715
32-23,10349628,-143
32-24,10353534,-401
32-25,10357440,-959
32-26,10361346,-1015
32-27,10365252,-995
32-28,10369158,-947
32-29,10373064,-869
32-30,10376970,-918
32-31,10380876,-908
32-32,10384782,-769
32-1,10388816,-647
32-2,10392722,-685
32-3,10396628,-785
32-4,10400534,-792
32-5,10404440,-766
32-6,10408346,-724
32-7,10412252,-605
32-8,10416158,-494
32-9,10420064,-554
32-10,10423970,-655
32-11,10427876,-637
32-12,10431782,-630
32-13,10435688,-336
32-14,10439594,143
32-15,10443500,-33
32-16,10447406,-481
32-17,10451312,-530
32-18,10455218,-497
32-19,10459124,-530
32-20,10463030,-475
32-21,10466936,-97
32-22,10470842,223
32-23,10474748,-66
32-24,10478654,-398
32-25,10482560,-415
32-26,10486466,-413
32-27,10490372,-395
32-28,10494278,-317
32-29,10498184,-273
32-30,10502090,-276
32-31,10505996,-175
32-32,10509902,-93
32-1,10513691,-207
32-2,10517597,-297
32-3,10521503,-281
32-4,10525409,-278
32-5,10529315,-258
32-6,10533221,-144
32-7,10537127,-52
32-8,10541033,-125
32-9,10544939,-215
32-10,10548845,-237
32-11,10552751,-229
32-12,10556657,-41
32-13,10560563,166
32-14,10564469,105
32-15,10568375,-66
32-16,10572281,-164
32-17,10576187,-142
32-18,10580093,-117
32-19,10583999,-18
32-20,10587905,375
32-21,10591811,516
32-22,10595717,139
32-23,10599623,-94
32-24,10603529,-109
32-25,10607435,-151
32-26,10611341,17
32-27,10615247,199
32-28,10619153,54
32-29,10623059,7
32-30,10626965,168
32-31,10630871,105
32-32,10634777,-57
32-1,10638689,-91
32-2,10642595,-100
32-3,10646501,-147
32-4,10650407,-128
32-5,10654313,17
32-6,10658219,55
32-7,10662125,-64
32-8,10666031,-75
32-9,10669937,-29
32-10,10673843,-4
32-11,10677749,178
32-12,10681655,305
32-13,10685561,161
32-14,10689467,3
32-15,10693373,-63
32-16,10697279,-58
32-17,10701185,-30
32-18,10705091,128
32-19,10708997,490
32-20,10712903,508
32-21,10716809,167
32-22,10720715,12
32-23,10724621,27
32-24,10728527,27
32-25,10732433,56
32-26,10736339,469
32-27,10740245,837
32-28,10744151,504
32-29,10748057,190
32-30,10751963,173
32-31,10755869,40
32-32,10759775,-10
32-1,10763687,-6
32-2,10767593,-44
32-3,10771499,35
32-4,10775405,128
32-5,10779311,72
32-6,10783217,-43
32-7,10787123,-63
32-8,10791029,-72
32-9,10794935,-56
32-10,10798841,73
32-11,10802747,182
32-12,10806653,191
32-13,10810559,112
32-14,10814465,45
32-15,10818371,47
32-16,10822277,40
32-17,10826183,194
32-18,10830089,424
32-19,10833995,344
32-20,10837901,149
32-21,10841807,60
32-22,10845713,30
32-23,10849619,16
32-24,10853525,82
32-25,10857431,463
32-26,10861337,635
32-27,10865243,228
32-28,10869149,10
32-29,10873055,77
32-30,10876961,-5
32-31,10880867,-97
32-32,10884773,-42
32-1,10888684,94
32-2,10892590,165
32-3,10896496,161
32-4,10900402,149
32-5,10904308,95
32-6,10908214,55
32-7,10912120,65
32-8,10916026,56
32-9,10919932,92
32-10,10923838,206
32-11,10927744,213
32-12,10931650,93
32-13,10935556,54
32-14,10939462,66
32-15,10943368,79
32-16,10947274,227
32-17,10951180,337
32-18,10955086,256
32-19,10958992,155
32-20,10962898,88
32-21,10966804,77
32-22,10970710,93
32-23,10974616,200
32-24,10978522,497
32-25,10982428,563
32-26,10986334,317
32-27,10990240,185
32-28,10994146,180
32-29,10998052,163
32-30,11001958,85
32-31,11005864,20
32-32,11009770,86
32-1,11013682,193
32-2,11017588,259
32-3,11021494,236
32-4,11025400,132
32-5,11029306,82
32-6,11033212,77
32-7,11037118,44
32-8,11041024,79
32-9,11044930,178
32-10,11048836,141
32-11,11052742,35
32-12,11056648,18
32-13,11060554,4
32-14,11064460,26
32-15,11068366,138
32-16,11072272,207
32-17,11076178,201
32-18,11080084,140
32-19,11083990,47
32-20,11087896,2
32-21,11091802,9
32-22,11095708,115
32-23,11099614,297
32-24,11103520,346
32-25,11107426,230
32-26,11111332,112
32-27,11115238,62
32-28,11119144,104
32-29,11123050,167
32-30,11126956,113
32-31,11130862,69
32-32,11134768,181
32-1,11138710,253
32-2,11142616,159
32-3,11146522,47
32-4,11150428,12
32-5,11154334,0
32-6,11158240,-34
32-7,11162146,36
32-8,11166052,152
32-9,11169958,91
32-10,11173864,-5
32-11,11177770,-6
32-12,11181676,-18
32-13,11185582,42
32-14,11189488,159
32-15,11193394,173
32-16,11197300,114
32-17,11201206,31
32-18,11205112,10
32-19,11209018,28
32-20,11212924,38
32-21,11216830,267
32-22,11220736,480
32-23,11224642,353
32-24,11228548,221
32-25,11232454,176
32-26,11236360,66
32-27,11240266,27
32-28,11244172,86
32-29,11248078,95
32-30,11251984,91
32-31,11255890,186
32-32,11259796,208
32-1,11263677,67
32-2,11267583,8
32-3,11271489,33
32-4,11275395,-15
32-5,11279301,-33
32-6,11283207,107
32-7,11287113,214
32-8,11291019,145
32-9,11294925,82
32-10,11298831,103
32-11,11302737,138
32-12,11306643,120
32-13,11310549,107
32-14,11314455,207
32-15,11318361,216
32-16,11322267,87
32-17,11326173,49
32-18,11330079,77
32-19,11333985,98
32-20,11337891,132
32-21,11341797,167
32-22,11345703,168
32-23,11349609,108
32-24,11353515,36
32-25,11357421,1
32-26,11361327,42
32-27,11365233,89
32-28,11369139,53
32-29,11373045,115
32-30,11376951,238
32-31,11380857,161
32-32,11384763,43
32-1,11388675,50
32-2,11392581,66
32-3,11396487,27
32-4,11400393,45
32-5,11404299,181
32-6,11408205,210
32-7,11412111,77
32-8,11416017,16
32-9,11419923,43
32-10,11423829,54
32-11,11427735,38
32-12,11431641,87
32-13,11435547,179
32-14,11439453,121
32-15,11443359,-2
32-16,11447265,-29
32-17,11451171,-34
32-18,11455077,4
32-19,11458983,89
32-20,11462889,153
32-21,11466795,165
32-22,11470701,82
32-23,11474607,-18
32-24,11478513,-67
32-25,11482419,-54
32-26,11486325,70
32-27,11490231,148
32-28,11494137,128
32-29,11498043,134
32-30,11501949,70
32-31,11505855,-47
32-32,11509761,-72
32-1,11513672,-59
32-2,11517578,-54
32-3,11521484,1
32-4,11525390,110
32-5,11529296,119
32-6,11533202,32
32-7,11537108,-4
32-8,11541014,-1
32-9,11544920,-21
32-10,11548826,-30
32-11,11552732,62
32-12,11556638,143
32-13,11560544,50
32-14,11564450,-41
32-15,11568356,-18
32-16,11572262,20
32-17,11576168,48
32-18,11580074,98
32-19,11583980,180
32-20,11587886,179
32-21,11591792,72
32-22,11595698,5
32-23,11599604,-23
32-24,11603510,-14
32-25,11607416,96
32-26,11611322,220
32-27,11615228,226
32-28,11619134,184
32-29,11623040,194
32-30,11626946,134
32-31,11630852,16
32-32,11634758,-11
32-1,11638670,17
32-2,11642576,90
32-3,11646482,192
32-4,11650388,200
32-5,11654294,103
32-6,11658200,-1
32-7,11662106,-12
32-8,11666012,-18
32-9,11669918,-63
32-10,11673824,11
32-11,11677730,83
32-12,11681636,-15
32-13,11685542,-95
32-14,11689448,-60
32-15,11693354,-24
32-16,11697260,-28
32-17,11701166,4
32-18,11705072,71
32-19,11708978,39
32-20,11712884,-45
32-21,11716790,-62
32-22,11720696,-60
32-23,11724602,-48
32-24,11728508,9
32-25,11732414,79
32-26,11736320,97
32-27,11740226,14
32-28,11744132,-25
32-29,11748038,42
32-30,11751944,39
32-31,11755850,-24
32-32,11759756,-2
32-1,11763668,92
32-2,11767574,160
32-3,11771480,126
32-4,11775386,52
32-5,11779292,31
32-6,11783198,8
32-7,11787104,-30
32-8,11791010,34
32-9,11794916,132
32-10,11798822,94
32-11,11802728,42
32-12,11806634,39
32-13,11810540,16
32-14,11814446,15
32-15,11818352,19
32-16,11822258,64
32-17,11826164,134
32-18,11830070,94
32-19,11833976,23
32-20,11837882,-32
32-21,11841788,-75
32-22,11845694,-54
32-23,11849600,-17
32-24,11853506,58
32-25,11857412,95
32-26,11861318,-1
32-27,11865224,-56
32-28,11869130,18
32-29,11873036,70
32-30,11876942,-15
32-31,11880848,-63
32-32,11884754,84
32-1,11888696,196
32-2,11892602,126
32-3,11896508,43
32-4,11900414,25
32-5,11904320,-31
32-6,11908226,-127
32-7,11912132,-51
32-8,11916038,83
32-9,11919944,-6
32-10,11923850,-131
32-11,11927756,-122
32-12,11931662,-96
32-13,11935568,-98
32-14,11939474,-66
32-15,11943380,43
32-16,11947286,63
32-17,11951192,-64
32-18,11955098,-127
32-19,11959004,-121
32-20,11962910,-103
32-21,11966816,-73
32-22,11970722,-26
32-23,11974628,56
32-24,11978534,54
32-25,11982440,-32
32-26,11986346,-65
32-27,11990252,-64
32-28,11994158,-48
32-29,11998064,-9
32-30,12001970,11
32-31,12005876,37
32-32,12009782,54
32-1,12013663,0
32-2,12017569,-55
32-3,12021475,-39
32-4,12025381,-39
32-5,12029287,-22
32-6,12033193,77
32-7,12037099,123
32-8,12041005,-34
32-9,12044911,-92
32-10,12048817,-1
32-11,12052723,92
32-12,12056629,1155
32-13,12060535,2110
32-14,12064441,1066
32-15,12068347,1
32-16,12072253,-20
32-17,12076159,158
32-18,12080065,272
32-19,12083971,1014
32-20,12087877,3588
32-21,12091783,4175
32-22,12095689,912
32-23,12099595,-551
32-24,12103501,174
32-25,12107407,198
32-26,12111313,1716
32-27,12115219,3954
32-28,12119125,3108
32-29,12123031,687
32-30,12126937,-183
32-31,12130843,-217
32-32,12134749,-397
32-1,12138660,-468
32-2,12142566,-520
32-3,12146472,-270
32-4,12150378,100
32-5,12154284,-112
32-6,12158190,-515
32-7,12162096,-637
32-8,12166002,-399
32-9,12169908,-178
32-10,12173814,441
32-11,12177720,2549
32-12,12181626,2958
32-13,12185532,343
32-14,12189438,-860
32-15,12193344,-481
32-16,12197250,-575
32-17,12201156,-578
32-18,12205062,191
32-19,12208968,1436
32-20,12212874,987
32-21,12216780,-542
32-22,12220686,-799
32-23,12224592,-625
32-24,12228498,-673
32-25,12232404,-458
32-26,12236310,546
32-27,12240216,1243
32-28,12244122,217
32-29,12248028,-631
32-30,12251934,-506
32-31,12255840,-652
32-32,12259746,-768
32-1,12263719,-668
32-2,12267625,-620
32-3,12271531,-577
32-4,12275437,-557
32-5,12279343,-551
32-6,12283249,-595
32-7,12287155,-631
32-8,12291061,-631
32-9,12294967,-624
32-10,12298873,-604
32-11,12302779,-529
32-12,12306685,-449
32-13,12310591,-511
32-14,12314497,-638
32-15,12318403,-673
32-16,12322309,-656
32-17,12326215,-653
32-18,12330121,-627
32-19,12334027,-554
32-20,12337933,-484
32-21,12341839,-604
32-22,12345745,-547
32-23,12349651,-437
32-24,12353557,-212
32-25,12357463,1906
32-26,12361369,3186
32-27,12365275,868
32-28,12369181,-766
32-29,12373087,-471
32-30,12376993,-36
32-31,12380899,78
32-32,12384805,2129
32-1,12388656,7495
32-2,12392562,7017
32-3,12396468,372
32-4,12400374,-1270
32-5,12404280,-184
32-6,12408186,-772
32-7,12412092,-764
32-8,12415998,367
32-9,12419904,1744
32-10,12423810,843
32-11,12427716,-879
32-12,12431622,-1004
32-13,12435528,-452
32-14,12439434,128
32-15,12443340,1279
32-16,12447246,5760
32-17,12451152,7763
32-18,12455058,2006
32-19,12458964,-1832
32-20,12462870,-954
32-21,12466776,-395
32-22,12470682,-34
32-23,12474588,2176
32-24,12478494,6760
32-25,12482400,6039
32-26,12486306,-284
32-27,12490212,-2003
32-28,12494118,-946
32-29,12498024,-1388
32-30,12501930,-1505
32-31,12505836,-915
32-32,12509742,-26
32-1,12513653,-375
32-2,12517559,-1380
32-3,12521465,-1435
32-4,12525371,-1474
32-5,12529277,-1617
32-6,12533183,-1519
32-7,12537089,-1287
32-8,12540995,-1040
32-9,12544901,-1081
32-10,12548807,-1266
32-11,12552713,-1373
32-12,12556619,-1323
32-13,12560525,-1279
32-14,12564431,-1075
32-15,12568337,-428
32-16,12572243,-344
32-17,12576149,-1006
32-18,12580055,-1272
32-19,12583961,-1210
32-20,12587867,-1242
32-21,12591773,-1228
32-22,12595679,-940
32-23,12599585,-554
32-24,12603491,-719
32-25,12607397,-1096
32-26,12611303,-1117
32-27,12615209,-1097
32-28,12619115,-1064
32-29,12623021,-961
32-30,12626927,-1002
32-31,12630833,-1044
32-32,12634739,-918
32-1,12638712,-798
32-2,12642618,-814
32-3,12646524,-894
32-4,12650430,-947
32-5,12654336,-946
32-6,12658242,-917
32-7,12662148,-812
32-8,12666054,-739
32-9,12669960,-834
32-10,12673866,-909
32-11,12677772,-896
32-12,12681678,-897
32-13,12685584,-859
32-14,12689490,-764
32-15,12693396,-672
32-16,12697302,-658
32-17,12701208,-747
32-18,12705114,-816
32-19,12709020,-809
32-20,12712926,-772
32-21,12716832,-638
32-22,12720738,-460
32-23,12724644,-437
32-24,12728550,-543
32-25,12732456,-632
32-26,12736362,-660
32-27,12740268,-615
32-28,12744174,-525
32-29,12748080,-462
32-30,12751986,-433
32-31,12755892,-372
32-32,12759798,-332
32-1,12763649,-384
32-2,12767555,-453
32-3,12771461,-483
32-4,12775367,-521
32-5,12779273,-524
32-6,12783179,-381
32-7,12787085,-277
32-8,12790991,-389
32-9,12794897,-460
32-10,12798803,-400
32-11,12802709,-389
32-12,12806615,-401
32-13,12810521,-354
32-14,12814427,-297
32-15,12818333,-323
32-16,12822239,-397
32-17,12826145,-417
32-18,12830051,-409
32-19,12833957,-382
32-20,12837863,-296
32-21,12841769,-194
32-22,12845675,-154
32-23,12849581,-223
32-24,12853487,-320
32-25,12857393,-320
32-26,12861299,-243
32-27,12865205,-216
32-28,12869111,-211
32-29,12873017,-94
32-30,12876923,25
32-31,12880829,-22
32-32,12884735,-137
32-1,12888768,-181
32-2,12892674,-178
32-3,12896580,-221
32-4,12900486,-212
32-5,12904392,-103
32-6,12908298,-112
32-7,12912204,-212
32-8,12916110,-244
32-9,12920016,-234
32-10,12923922,-219
32-11,12927828,-218
32-12,12931734,-137
32-13,12935640,-15
32-14,12939546,-71
32-15,12943452,-154
32-16,12947358,-134
32-17,12951264,-124
32-18,12955170,-95
32-19,12959076,-33
32-20,12962982,20
32-21,12966888,10
32-22,12970794,-119
32-23,12974700,-204
32-24,12978606,-180
32-25,12982512,-160
32-26,12986418,-97
32-27,12990324,-18
32-28,12994230,43
32-29,12998136,106
32-30,13002042,18
32-31,13005948,-126
32-32,13009854,-134
32-1,13013644,-131
32-2,13017550,-154
32-3,13021456,-81
32-4,13025362,38
32-5,13029268,6
32-6,13033174,-123
32-7,13037080,-151
32-8,13040986,-139
32-9,13044892,-180
32-10,13048798,-178
32-11,13052704,-56
32-12,13056610,25
32-13,13060516,-44
32-14,13064422,-98
32-15,13068328,-108
32-16,13072234,-129
32-17,13076140,-115
32-18,13080046,-61
32-19,13083952,36
32-20,13087858,81
32-21,13091764,20
32-22,13095670,-39
32-23,13099576,-58
32-24,13103482,-47
32-25,13107388,-13
32-26,13111294,54
32-27,13115200,112
32-28,13119106,82
32-29,13123012,62
32-30,13126918,26
32-31,13130824,-76
32-32,13134730,-96
32-1,13138642,-68
32-2,13142548,-22
32-3,13146454,102
32-4,13150360,133
32-5,13154266,10
32-6,13158172,-55
32-7,13162078,-1
32-8,13165984,11
32-9,13169890,41
32-10,13173796,190
32-11,13177702,208
32-12,13181608,80
32-13,13185514,25
32-14,13189420,21
32-15,13193326,37
32-16,13197232,55
32-17,13201138,94
32-18,13205044,208
32-19,13208950,221
32-20,13212856,122
32-21,13216762,82
32-22,13220668,67
32-23,13224574,33
32-24,13228480,13
32-25,13232386,70
32-26,13236292,158
32-27,13240198,124
32-28,13244104,60
32-29,13248010,67
32-30,13251916,42
32-31,13255822,-31
32-32,13259728,-57
32-1,13263639,32
32-2,13267545,152
32-3,13271451,136
32-4,13275357,28
32-5,13279263,-1
32-6,13283169,15
32-7,13287075,-23
32-8,13290981,31
32-9,13294887,166
32-10,13298793,144
32-11,13302699,52
32-12,13306605,28
32-13,13310511,-2
32-14,13314417,-17
32-15,13318323,-9
32-16,13322229,69
32-17,13326135,202
32-18,13330041,197
32-19,13333947,97
32-20,13337853,35
32-21,13341759,4
32-22,13345665,-31
32-23,13349571,-45
32-24,13353477,88
32-25,13357383,188
32-26,13361289,74
32-27,13365195,-33
32-28,13369101,1
32-29,13373007,59
32-30,13376913,43
32-31,13380819,39
32-32,13384725,157
32-1,13388728,219
32-2,13392634,132
32-3,13396540,38
32-4,13400446,2
32-5,13404352,-28
32-6,13408258,-74
32-7,13412164,-7
32-8,13416070,98
32-9,13419976,57
32-10,13423882,-17
32-11,13427788,-65
32-12,13431694,-100
32-13,13435600,-117
32-14,13439506,-113
32-15,13443412,23
32-16,13447318,110
32-17,13451224,14
32-18,13455130,-32
32-19,13459036,-14
32-20,13462942,-13
32-21,13466848,-31
32-22,13470754,4
32-23,13474660,133
32-24,13478566,117
32-25,13482472,-12
32-26,13486378,-33
32-27,13490284,-23
32-28,13494190,5
32-29,13498096,69
32-30,13502002,102
32-31,13505908,164
32-32,13509814,212
32-1,13513970,136
32-2,13517876,51
32-3,13521782,75
32-4,13525688,56
32-5,13529594,5
32-6,13533500,116
32-7,13537406,181
32-8,13541312,74
32-9,13545218,15
32-10,13549124,-2
32-11,13553030,-29
32-12,13556936,-31
32-13,13560842,16
32-14,13564748,138
32-15,13568654,160
32-16,13572560,64
32-17,13576466,20
32-18,13580372,40
32-19,13584278,66
32-20,13588184,41
32-21,13592090,72
32-22,13595996,148
32-23,13599902,67
32-24,13603808,-32
32-25,13607714,-39
32-26,13611620,-55
32-27,13615526,-64
32-28,13619432,-38
32-29,13623338,66
32-30,13627244,168
32-31,13631150,117
32-32,13635056,-7
32-1,13638632,-43
32-2,13642538,-10
32-3,13646444,-37
32-4,13650350,-16
32-5,13654256,125
32-6,13658162,115
32-7,13662068,5
32-8,13665974,14
32-9,13669880,34
32-10,13673786,10
32-11,13677692,-16
32-12,13681598,51
32-13,13685504,197
32-14,13689410,178
32-15,13693316,51
32-16,13697222,8
32-17,13701128,11
32-18,13705034,16
32-19,13708940,49
32-20,13712846,164
32-21,13716752,216
32-22,13720658,71
32-23,13724564,-46
32-24,13728470,-51
32-25,13732376,-53
32-26,13736282,-58
32-27,13740188,-28
32-28,13744094,111
32-29,13748000,221
32-30,13751906,115
32-31,13755812,-7
32-32,13759718,18
32-1,13763630,19
32-2,13767536,-69
32-3,13771442,-51
32-4,13775348,94
32-5,13779254,135
32-6,13783160,47
32-7,13787066,12
32-8,13790972,12
32-9,13794878,-53
32-10,13798784,-106
32-11,13802690,-24
32-12,13806596,51
32-13,13810502,-16
32-14,13814408,-95
32-15,13818314,-104
32-16,13822220,-71
32-17,13826126,-78
32-18,13830032,-94
32-19,13833938,17
32-20,13837844,84
32-21,13841750,16
32-22,13845656,-64
32-23,13849562,-117
32-24,13853468,-107
32-25,13857374,-101
32-26,13861280,-73
32-27,13865186,37
32-28,13869092,47
32-29,13872998,-30
32-30,13876904,-91
32-31,13880810,-135
32-32,13884716,-132
32-1,13888627,-110
32-2,13892533,-26
32-3,13896439,134
32-4,13900345,190
32-5,13904251,81
32-6,13908157,-4
32-7,13912063,12
32-8,13915969,-30
32-9,13919875,-44
32-10,13923781,98
32-11,13927687,118
32-12,13931593,-6
32-13,13935499,-29
32-14,13939405,-30
32-15,13943311,-57
32-16,13947217,-69
32-17,13951123,-26
32-18,13955029,101
32-19,13958935,85
32-20,13962841,-48
32-21,13966747,-79
32-22,13970653,-69
32-23,13974559,-67
32-24,13978465,-52
32-25,13982371,38
32-26,13986277,142
32-27,13990183,92
32-28,13994089,58
32-29,13997995,133
32-30,14001901,124
32-31,14005807,3
32-32,14009713,-58
32-1,14013625,62
32-2,14017531,188
32-3,14021437,152
32-4,14025343,49
32-5,14029249,-22
32-6,14033155,-50
32-7,14037061,-78
32-8,14040967,-39
32-9,14044873,74
32-10,14048779,56
32-11,14052685,-38
32-12,14056591,-46
32-13,14060497,-33
32-14,14064403,-43
32-15,14068309,-58
32-16,14072215,-8
32-17,14076121,75
32-18,14080027,27
32-19,14083933,-54
32-20,14087839,-71
32-21,14091745,-80
32-22,14095651,-79
32-23,14099557,-38
32-24,14103463,100
32-25,14107369,172
32-26,14111275,57
32-27,14115181,-27
32-28,14119087,26
32-29,14122993,100
32-30,14126899,50
32-31,14130805,-8
32-32,14134711,128
33-1,14135022,218
33-2,14138928,99
33-3,14142834,-22
33-4,14146740,-33
33-5,14150646,-31
33-6,14154552,-96
33-7,14158458,-58
33-8,14162364,74
33-9,14166270,31
33-10,14170176,-73
33-11,14174082,-62
33-12,14177988,-62
33-13,14181894,-109
33-14,14185800,-107
33-15,14189706,-6
33-16,14193612,41
33-17,14197518,-50
33-18,14201424,-80
33-19,14205330,-42
33-20,14209236,-36
33-21,14213142,-44
33-22,14217048,-6
33-23,14220954,121
33-24,14224860,151
33-25,14228766,55
33-26,14232672,7
33-27,14236578,-11
33-28,14240484,0
33-29,14244390,13
33-30,14248296,4
33-31,14252202,73
33-32,14256108,106
33-33,14260014,8
32-1,14267526,-69
32-2,14271432,-42
32-3,14275338,-23
32-4,14279244,-53
32-5,14283150,13
32-6,14287056,84
32-7,14290962,-21
32-8,14294868,-124
32-9,14298774,-116
32-10,14302680,-118
32-11,14306586,-153
32-12,14310492,-110
32-13,14314398,49
32-14,14318304,83
32-15,14322210,-57
32-16,14326116,-103
32-17,14330022,-56
32-18,14333928,-45
32-19,14337834,-41
32-20,14341740,33
32-21,14345646,116
32-22,14349552,61
32-23,14353458,-32
32-24,14357364,-52
32-25,14361270,-55
32-26,14365176,-31
32-27,14369082,14
32-28,14372988,73
32-29,14376894,125
32-30,14380800,111
32-31,14384706,56
32-32,14388612,-2
32-1,14392524,-1
32-2,14396430,32
32-3,14400336,50
32-4,14404242,105
32-5,14408148,83
32-6,14412054,-49
32-7,14415960,-79
32-8,14419866,-35
32-9,14423772,-73
32-10,14427678,-126
32-11,14431584,-46
32-12,14435490,76
32-13,14439396,34
32-14,14443302,-48
32-15,14447208,-48
32-16,14451114,-80
32-17,14455020,-130
32-18,14458926,-124
32-19,14462832,-26
32-20,14466738,64
32-21,14470644,18
32-22,14474550,-43
32-23,14478456,-36
32-24,14482362,-43
32-25,14486268,-80
32-26,14490174,-79
32-27,14494080,20
32-28,14497986,127
32-29,14501892,123
32-30,14505798,14
32-31,14509704,-59
32-32,14513610,-62
32-1,14517522,-106
32-2,14521428,-83
32-3,14525334,47
32-4,14529240,69
32-5,14533146,-31
32-6,14537052,-96
32-7,14540958,-83
32-8,14544864,-100
32-9,14548770,-154
32-10,14552676,-65
32-11,14556582,52
32-12,14560488,-2
32-13,14564394,-49
32-14,14568300,-22
32-15,14572206,-27
32-16,14576112,-74
32-17,14580018,-91
32-18,14583924,25
32-19,14587830,108
32-20,14591736,4
32-21,14595642,-82
32-22,14599548,-72
32-23,14603454,-40
32-24,14607360,-43
32-25,14611266,-22
32-26,14615172,112
32-27,14619078,131
32-28,14622984,20
32-29,14626890,27
32-30,14630796,41
32-31,14634702,-48
32-32,14638608,-94
32-1,14642519,0
32-2,14646425,145
32-3,14650331,163
32-4,14654237,65
32-5,14658143,-39
32-6,14662049,-75
32-7,14665955,-74
32-8,14669861,-80
32-9,14673767,-1
32-10,14677673,43
32-11,14681579,-72
32-12,14685485,-139
32-13,14689391,-120
32-14,14693297,-133
32-15,14697203,-184
32-16,14701109,-147
32-17,14705015,19
32-18,14708921,37
32-19,14712827,-81
32-20,14716733,-108
32-21,14720639,-115
32-22,14724545,-147
32-23,14728451,-140
32-24,14732357,-75
32-25,14736263,7
32-26,14740169,8
32-27,14744075,-64
32-28,14747981,-65
32-29,14751887,34
32-30,14755793,22
32-31,14759699,-56
32-32,14763605,62
32-1,14767517,199
32-2,14771423,136
32-3,14775329,-2
32-4,14779235,-40
32-5,14783141,0
32-6,14787047,-41
32-7,14790953,-37
32-8,14794859,77
32-9,14798765,50
32-10,14802671,-56
32-11,14806577,-59
32-12,14810483,-64
32-13,14814389,-101
32-14,14818295,-118
32-15,14822201,-57
32-16,14826107,43
32-17,14830013,23
32-18,14833919,-50
32-19,14837825,-51
32-20,14841731,-33
32-21,14845637,-38
32-22,14849543,-31
32-23,14853449,74
32-24,14857355,131
32-25,14861261,7
32-26,14865167,-42
32-27,14869073,-10
32-28,14872979,-45
32-29,14876885,-26
32-30,14880791,20
32-31,14884697,42
32-32,14888603,92
32-1,14892576,82
32-2,14896482,-22
32-3,14900388,-79
32-4,14904294,-37
32-5,14908200,-22
32-6,14912106,-1
32-7,14916012,65
32-8,14919918,-7
32-9,14923824,-125
32-10,14927730,-103
32-11,14931636,-85
32-12,14935542,-121
32-13,14939448,-77
32-14,14943354,57
32-15,14947260,91
32-16,14951166,-36
32-17,14955072,-94
32-18,14958978,-34
32-19,14962884,-28
32-20,14966790,-69
32-21,14970696,13
32-22,14974602,140
32-23,14978508,107
32-24,14982414,-12
32-25,14986320,-73
32-26,14990226,-24
32-27,14994132,9
32-28,14998038,-47
32-29,15001944,22
32-30,15005850,130
32-31,15009756,95
32-32,15013662,41
32-1,15017512,-47
32-2,15021418,-118
32-3,15025324,-100
32-4,15029230,-87
32-5,15033136,-18
32-6,15037042,30
32-7,15040948,-69
32-8,15044854,-137
32-9,15048760,-109
32-10,15052666,-85
32-11,15056572,-84
32-12,15060478,-44
32-13,15064384,104
32-14,15068290,160
32-15,15072196,13
32-16,15076102,-92
32-17,15080008,-111
32-18,15083914,-132
32-19,15087820,-130
32-20,15091726,-38
32-21,15095632,89
32-22,15099538,31
32-23,15103444,-89
32-24,15107350,-92
32-25,15111256,-121
32-26,15115162,-126
32-27,15119068,-69
32-28,15122974,11
32-29,15126880,133
32-30,15130786,73
32-31,15134692,-124
32-32,15138598,-135
32-1,15142510,-46
32-2,15146416,-72
32-3,15150322,-110
32-4,15154228,2
32-5,15158134,90
32-6,15162040,-12
32-7,15165946,-115
32-8,15169852,-83
32-9,15173758,-51
32-10,15177664,-119
32-11,15181570,-100
32-12,15185476,35
32-13,15189382,0
32-14,15193288,-114
32-15,15197194,-108
32-16,15201100,-97
32-17,15205006,-128
32-18,15208912,-124
32-19,15212818,1
32-20,15216724,133
32-21,15220630,79
32-22,15224536,-30
32-23,15228442,-42
32-24,15232348,-42
32-25,15236254,-98
32-26,15240160,-100
32-27,15244066,0
32-28,15247972,87
32-29,15251878,104
32-30,15255784,-13
32-31,15259690,-150
32-32,15263596,-113
32-1,15267507,-93
32-2,15271413,-126
32-3,15275319,-36
32-4,15279225,7
32-5,15283131,-95
32-6,15287037,-163
32-7,15290943,-128
32-8,15294849,-111
32-9,15298755,-147
32-10,15302661,-69
32-11,15306567,43
32-12,15310473,-15
32-13,15314379,-84
32-14,15318285,-60
32-15,15322191,-56
32-16,15326097,-81
32-17,15330003,-46
32-18,15333909,98
32-19,15337815,134
32-20,15341721,-20
32-21,15345627,-84
32-22,15349533,-63
32-23,15353439,-81
32-24,15357345,-125
32-25,15361251,-127
32-26,15365157,15
32-27,15369063,69
32-28,15372969,-51
32-29,15376875,-49
32-30,15380781,-1
32-31,15384687,-73
32-32,15388593,-117
32-1,15392505,-17
32-2,15396411,133
32-3,15400317,164
32-4,15404223,86
32-5,15408129,-11
32-6,15412035,-58
32-7,15415941,-50
32-8,15419847,-55
32-9,15423753,-10
32-10,15427659,32
32-11,15431565,-33
32-12,15435471,-65
32-13,15439377,-43
32-14,15443283,-69
32-15,15447189,-129
32-16,15451095,-92
32-17,15455001,69
32-18,15458907,95
32-19,15462813,-27
32-20,15466719,-67
32-21,15470625,-48
32-22,15474531,-58
32-23,15478437,-78
32-24,15482343,-28
32-25,15486249,53
32-26,15490155,46
32-27,15494061,-39
32-28,15497967,-77
32-29,15501873,4
32-30,15505779,16
32-31,15509685,-76
32-32,15513591,-24
32-1,15517594,91
32-2,15521500,85
32-3,15525406,-12
32-4,15529312,-102
32-5,15533218,-100
32-6,15537124,-90
32-7,15541030,-59
32-8,15544936,32
32-9,15548842,20
32-10,15552748,-81
32-11,15556654,-111
32-12,15560560,-109
32-13,15564466,-136
32-14,15568372,-158
32-15,15572278,-94
32-16,15576184,4
32-17,15580090,-38
32-18,15583996,-105
32-19,15587902,-71
32-20,15591808,-74
32-21,15595714,-131
32-22,15599620,-167
32-23,15603526,-77
32-24,15607432,48
32-25,15611338,-11
32-26,15615244,-65
32-27,15619150,-35
32-28,15623056,-74
32-29,15626962,-80
32-30,15630868,-26
32-31,15634774,30
32-32,15638680,92
32-1,15642500,102
32-2,15646406,37
32-3,15650312,-21
32-4,15654218,-16
32-5,15658124,-17
32-6,15662030,29
32-7,15665936,115
32-8,15669842,53
32-9,15673748,-54
32-10,15677654,-61
32-11,15681560,-41
32-12,15685466,-54
32-13,15689372,-56
32-14,15693278,58
32-15,15697184,142
32-16,15701090,39
32-17,15704996,-54
32-18,15708902,-46
32-19,15712808,-39
32-20,15716714,-75
32-21,15720620,-68
32-22,15724526,34
32-23,15728432,59
32-24,15732338,-26
32-25,15736244,-48
32-26,15740150,4
32-27,15744056,-27
32-28,15747962,-89
32-29,15751868,22
32-30,15755774,142
32-31,15759680,102
32-32,15763586,49
32-1,15767498,2
32-2,15771404,-23
32-3,15775310,-15
32-4,15779216,-42
32-5,15783122,9
32-6,15787028,76
32-7,15790934,7
32-8,15794840,-55
32-9,15798746,-20
32-10,15802652,-22
32-11,15806558,-108
32-12,15810464,-89
32-13,15814370,79
32-14,15818276,121
32-15,15822182,1
32-16,15826088,-47
32-17,15829994,-51
32-18,15833900,-122
32-19,15837806,-166
32-20,15841712,-71
32-21,15845618,77
32-22,15849524,44
32-23,15853430,-98
32-24,15857336,-113
32-25,15861242,-72
32-26,15865148,-80
32-27,15869054,-79
32-28,15872960,-13
32-29,15876866,112
32-30,15880772,106
32-31,15884678,-41
32-32,15888584,-89
32-1,15892496,-73
32-2,15896402,-123
32-3,15900308,-124
32-4,15904214,-27
32-5,15908120,34
32-6,15912026,-25
32-7,15915932,-131
32-8,15919838,-143
32-9,15923744,-100
32-10,15927650,-114
32-11,15931556,-56
32-12,15935462,53
32-13,15939368,-19
32-14,15943274,-130
32-15,15947180,-71
32-16,15951086,11
32-17,15954992,-21
32-18,15958898,-38
32-19,15962804,97
32-20,15966710,220
32-21,15970616,140
32-22,15974522,6
32-23,15978428,-13
32-24,15982334,-30
32-25,15986240,-104
32-26,15990146,-61
32-27,15994052,56
32-28,15997958,95
32-29,16001864,101
32-30,16005770,29
32-31,16009676,-87
32-32,16013582,-82
32-1,16017493,-34
32-2,16021399,7
32-3,16025305,100
32-4,16029211,151
32-5,16033117,97
32-6,16037023,28
32-7,16040929,20
32-8,16044835,-2
32-9,16048741,-39
32-10,16052647,49
32-11,16056553,138
32-12,16060459,52
32-13,16064365,-64
32-14,16068271,-90
32-15,16072177,-75
32-16,16076083,-94
32-17,16079989,-91
32-18,16083895,48
32-19,16087801,110
32-20,16091707,-24
32-21,16095613,-99
32-22,16099519,-69
32-23,16103425,-60
32-24,16107331,-101
32-25,16111237,-82
32-26,16115143,79
32-27,16119049,116
32-28,16122955,8
32-29,16126861,1
32-30,16130767,10
32-31,16134673,-32
32-32,16138579,-68
32-1,16142613,-29
32-2,16146519,92
32-3,16150425,124
32-4,16154331,35
32-5,16158237,-51
32-6,16162143,-70
32-7,16166049,-55
32-8,16169955,-58
32-9,16173861,-9
32-10,16177767,8
32-11,16181673,-74
32-12,16185579,-101
32-13,16189485,-75
32-14,16193391,-104
32-15,16197297,-170
32-16,16201203,-128
32-17,16205109,26
32-18,16209015,44
32-19,16212921,-89
32-20,16216827,-158
32-21,16220733,-125
32-22,16224639,-138
32-23,16228545,-185
32-24,16232451,-76
32-25,16236357,57
32-26,16240263,34
32-27,16244169,-35
32-28,16248075,-35
32-29,16251981,21
32-30,16255887,-10
32-31,16259793,-67
32-32,16263699,16
32-1,16267489,64
32-2,16271395,19
32-3,16275301,-32
32-4,16279207,-114
32-5,16283113,-147
32-6,16287019,-126
32-7,16290925,-78
32-8,16294831,33
32-9,16298737,49
32-10,16302643,-90
32-11,16306549,-148
32-12,16310455,-89
32-13,16314361,-114
32-14,16318267,-188
32-15,16322173,-86
32-16,16326079,66
32-17,16329985,-11
32-18,16333891,-125
32-19,16337797,-103
32-20,16341703,-97
32-21,16345609,-135
32-22,16349515,-136
32-23,16353421,-12
32-24,16357327,80
32-25,16361233,-35
32-26,16365139,-82
32-27,16369045,-24
32-28,16372951,-48
32-29,16376857,-41
32-30,16380763,-30
32-31,16384669,-27
32-32,16388575,44
32-1,16392486,31
32-2,16396392,-92
32-3,16400298,-182
32-4,16404204,-190
32-5,16408110,-171
32-6,16412016,-104
32-7,16415922,23
32-8,16419828,8
32-9,16423734,-111
32-10,16427640,-131
32-11,16431546,-95
32-12,16435452,-98
32-13,16439358,-116
32-14,16443264,-22
32-15,16447170,73
32-16,16451076,-20
32-17,16454982,-105
32-18,16458888,-63
32-19,16462794,-33
32-20,16466700,-86
32-21,16470606,-78
32-22,16474512,57
32-23,16478418,68
32-24,16482324,-53
32-25,16486230,-90
32-26,16490136,-57
32-27,16494042,-47
32-28,16497948,-63
32-29,16501854,16
32-30,16505760,147
32-31,16509666,133
32-32,16513572,7
32-1,16517484,-79
32-2,16521390,-81
32-3,16525296,-88
32-4,16529202,-91
32-5,16533108,58
32-6,16537014,158
32-7,16540920,28
32-8,16544826,-104
32-9,16548732,-119
32-10,16552638,-92
32-11,16556544,-33
32-12,16560450,48
32-13,16564356,110
32-14,16568262,33
32-15,16572168,-124
32-16,16576074,-146
32-17,16579980,-116
32-18,16583886,-102
32-19,16587792,-8
32-20,16591698,79
32-21,16595604,72
32-22,16599510,-12
32-23,16603416,-95
32-24,16607322,-107
32-25,16611228,-84
32-26,16615134,-22
32-27,16619040,15
32-28,16622946,20
32-29,16626852,95
32-30,16630758,76
32-31,16634664,-59
32-32,16638570,-93
32-1,16642481,-84
32-2,16646387,-137
32-3,16650293,-153
32-4,16654199,-29
32-5,16658105,52
32-6,16662011,-67
32-7,16665917,-133
32-8,16669823,-78
32-9,16673729,-96
32-10,16677635,-125
32-11,16681541,-21
32-12,16685447,94
32-13,16689353,47
32-14,16693259,-45
32-15,16697165,-78
32-16,16701071,-107
32-17,16704977,-128
32-18,16708883,-119
32-19,16712789,-14
32-20,16716695,84
32-21,16720601,-3
32-22,16724507,-110
32-23,16728413,-107
32-24,16732319,-127
32-25,16736225,-178
32-26,16740131,-106
32-27,16744037,38
32-28,16747943,108
32-29,16751849,130
32-30,16755755,69
32-31,16759661,-35
32-32,16763567,-41
32-1,16767571,-24
32-2,16771477,6
32-3,16775383,87
32-4,16779289,78
32-5,16783195,-31
32-6,16787101,-74
32-7,16791007,-40
32-8,16794913,-48
32-9,16798819,-45
32-10,16802725,77
32-11,16806631,165
32-12,16810537,95
32-13,16814443,16
32-14,16818349,-10
32-15,16822255,-57
32-16,16826161,7
32-17,16830067,154
32-18,16833973,169
32-19,16837879,106
32-20,16841785,12
32-21,16845691,-49
32-22,16849597,-81
32-23,16853503,-58
32-24,16857409,280
32-25,16861315,493
32-26,16865221,269
32-27,16869127,80
32-28,16873033,-28
32-29,16876939,-95
32-30,16880845,-136
32-31,16884751,-175
32-32,16888657,12
32-1,16892477,148
32-2,16896383,87
32-3,16900289,76
32-4,16904195,-3
32-5,16908101,-124
32-6,16912007,-128
32-7,16915913,-143
32-8,16919819,-137
32-9,16923725,-1
32-10,16927631,17
32-11,16931537,-134
32-12,16935443,-169
32-13,16939349,-137
32-14,16943255,-147
32-15,16947161,-111
32-16,16951067,-24
32-17,16954973,41
32-18,16958879,-13
32-19,16962785,-115
32-20,16966691,-151
32-21,16970597,-152
32-22,16974503,-157
32-23,16978409,-156
32-24,16982315,-80
32-25,16986221,4
32-26,16990127,-22
32-27,16994033,-107
32-28,16997939,-134
32-29,17001845,-54
32-30,17005751,-70
32-31,17009657,-183
32-32,17013563,-79
32-1,17017474,86
32-2,17021380,48
32-3,17025286,-46
32-4,17029192,-70
32-5,17033098,-62
32-6,17037004,-125
32-7,17040910,-133
32-8,17044816,23
32-9,17048722,56
32-10,17052628,-76
32-11,17056534,-123
32-12,17060440,-114
32-13,17064346,-149
32-14,17068252,-185
32-15,17072158,-124
32-16,17076064,-9
32-17,17079970,-30
32-18,17083876,-126
32-19,17087782,-147
32-20,17091688,-122
32-21,17095594,-127
32-22,17099500,-146
32-23,17103406,-50
32-24,17107312,33
32-25,17111218,-56
32-26,17115124,-82
32-27,17119030,-35
32-28,17122936,-38
32-29,17126842,-7
32-30,17130748,13
32-31,17134654,31
32-32,17138560,95
32-1,17142472,72
32-2,17146378,-53
32-3,17150284,-133
32-4,17154190,-133
32-5,17158096,-146
32-6,17162002,-117
32-7,17165908,-20
32-8,17169814,-32
32-9,17173720,-118
32-10,17177626,-123
32-11,17181532,-86
32-12,17185438,-125
32-13,17189344,-184
32-14,17193250,-91
32-15,17197156,18
32-16,17201062,-54
32-17,17204968,-126
32-18,17208874,-121
32-19,17212780,-167
32-20,17216686,-232
32-21,17220592,-177
32-22,17224498,-39
32-23,17228404,-17
32-24,17232310,-114
32-25,17236216,-170
32-26,17240122,-127
32-27,17244028,-84
32-28,17247934,-104
32-29,17251840,-43
32-30,17255746,46
32-31,17259652,36
32-32,17263558,1
32-1,17267470,-71
32-2,17271376,-116
32-3,17275282,-103
32-4,17279188,-123
32-5,17283094,-71
32-6,17287000,-18
32-7,17290906,-106
32-8,17294812,-177
32-9,17298718,-133
32-10,17302624,-87
32-11,17306530,-139
32-12,17310436,-156
32-13,17314342,-29
32-14,17318248,3
32-15,17322154,-111
32-16,17326060,-141
32-17,17329966,-89
32-18,17333872,-92
32-19,17337778,-135
32-20,17341684,-61
32-21,17345590,72
32-22,17349496,33
32-23,17353402,-82
32-24,17357308,-97
32-25,17361214,-76
32-26,17365120,-69
32-27,17369026,-107
32-28,17372932,-85
32-29,17376838,54
32-30,17380744,51
32-31,17384650,-106
32-32,17388556,-127
32-1,17392467,-51
32-2,17396373,-60
32-3,17400279,-93
32-4,17404185,-36
32-5,17408091,48
32-6,17411997,10
32-7,17415903,-117
32-8,17419809,-158
32-9,17423715,-103
32-10,17427621,-82
32-11,17431527,-31
32-12,17435433,87
32-13,17439339,62
32-14,17443245,-69
32-15,17447151,-89
32-16,17451057,-38
32-17,17454963,-60
32-18,17458869,-112
32-19,17462775,-35
32-20,17466681,72
32-21,17470587,17
32-22,17474493,-70
32-23,17478399,-47
32-24,17482305,-10
32-25,17486211,-71
32-26,17490117,-99
32-27,17494023,8
32-28,17497929,77
32-29,17501835,72
32-30,17505741,24
32-31,17509647,-55
32-32,17513553,-57
32-1,17517465,-42
32-2,17521371,-7
32-3,17525277,112
32-4,17529183,135
32-5,17533089,46
32-6,17536995,1
32-7,17540901,-4
32-8,17544807,-39
32-9,17548713,-67
32-10,17552619,22
32-11,17556525,125
32-12,17560431,59
32-13,17564337,-44
32-14,17568243,-35
32-15,17572149,-7
32-16,17576055,-50
32-17,17579961,-72
32-18,17583867,44
32-19,17587773,123
32-20,17591679,15
32-21,17595585,-61
32-22,17599491,-18
32-23,17603397,-17
32-24,17607303,-69
32-25,17611209,-25
32-26,17615115,89
32-27,17619021,47
32-28,17622927,-62
32-29,17626833,-40
32-30,17630739,-49
32-31,17634645,-133
32-32,17638551,-122
32-1,17642462,-31
32-2,17646368,33
32-3,17650274,33
32-4,17654180,32
32-5,17658086,27
32-6,17661992,-4
32-7,17665898,0
32-8,17669804,20
32-9,17673710,52
32-10,17677616,79
32-11,17681522,9
32-12,17685428,-72
32-13,17689334,-58
32-14,17693240,-35
32-15,17697146,-87
32-16,17701052,-93
32-17,17704958,22
32-18,17708864,37
32-19,17712770,-95
32-20,17716676,-158
32-21,17720582,-121
32-22,17724488,-113
32-23,17728394,-119
32-24,17732300,-42
32-25,17736206,56
32-26,17740112,77
32-27,17744018,18
32-28,17747924,2
32-29,17751830,88
32-30,17755736,55
32-31,17759642,-41
32-32,17763548,57
32-1,17767460,181
32-2,17771366,186
32-3,17775272,138
32-4,17779178,69
32-5,17783084,20
32-6,17786990,-18
32-7,17790896,17
32-8,17794802,139
32-9,17798708,146
32-10,17802614,45
32-11,17806520,7
32-12,17810426,3
32-13,17814332,-11
32-14,17818238,13
32-15,17822144,80
32-16,17826050,133
32-17,17829956,86
32-18,17833862,-30
32-19,17837768,-101
32-20,17841674,-97
32-21,17845580,-89
32-22,17849486,-99
32-23,17853392,-8
32-24,17857298,61
32-25,17861204,-56
32-26,17865110,-104
32-27,17869016,-73
32-28,17872922,-96
32-29,17876828,-70
32-30,17880734,-74
32-31,17884640,-52
32-32,17888546,40
32-1,17892458,-18
32-2,17896364,-150
32-3,17900270,-183
32-4,17904176,-173
32-5,17908082,-178
32-6,17911988,-110
32-7,17915894,9
32-8,17919800,-42
32-9,17923706,-174
32-10,17927612,-146
32-11,17931518,-37
32-12,17935424,-22
32-13,17939330,-61
32-14,17943236,-11
32-15,17947142,58
32-16,17951048,15
32-17,17954954,-64
32-18,17958860,-71
32-19,17962766,-36
32-20,17966672,-37
32-21,17970578,0
32-22,17974484,113
32-23,17978390,129
32-24,17982296,11
32-25,17986202,-47
32-26,17990108,31
32-27,17994014,34
32-28,17997920,-53
32-29,18001826,24
32-30,18005732,123
32-31,18009638,78
32-32,18013544,53
32-1,18017455,25
32-2,18021361,-55
32-3,18025267,-106
32-4,18029173,-116
32-5,18033079,-54
32-6,18036985,-3
32-7,18040891,-61
32-8,18044797,-131
32-9,18048703,-126
32-10,18052609,-104
32-11,18056515,-120
32-12,18060421,-112
32-13,18064327,-30
32-14,18068233,9
32-15,18072139,-63
32-16,18076045,-128
32-17,18079951,-112
32-18,18083857,-88
32-19,18087763,-116
32-20,18091669,-97
32-21,18095575,1
32-22,18099481,9
32-23,18103387,-65
32-24,18107293,-97
32-25,18111199,-95
32-26,18115105,-62
32-27,18119011,-32
32-28,18122917,12
32-29,18126823,104
32-30,18130729,87
32-31,18134635,-44
32-32,18138541,-91
32-1,18142453,-57
32-2,18146359,-81
32-3,18150265,-93
32-4,18154171,11
32-5,18158077,93
32-6,18161983,48
32-7,18165889,-28
32-8,18169795,-74
32-9,18173701,-82
32-10,18177607,-103
32-11,18181513,-100
32-12,18185419,-7
32-13,18189325,30
32-14,18193231,-46
32-15,18197137,-96
32-16,18201043,-91
32-17,18204949,-77
32-18,18208855,-78
32-19,18212761,-29
32-20,18216667,54
32-21,18220573,34
32-22,18224479,-36
32-23,18228385,-41
32-24,18232291,-26
32-25,18236197,-34
32-26,18240103,-18
32-27,18244009,39
32-28,18247915,76
32-29,18251821,47
32-30,18255727,-57
32-31,18259633,-156
32-32,18263539,-163
32-1,18267451,-158
32-2,18271357,-121
32-3,18275263,9
32-4,18279169,70
32-5,18283075,8
32-6,18286981,-74
32-7,18290887,-112
32-8,18294793,-109
32-9,18298699,-124
32-10,18302605,-81
32-11,18306511,33
32-12,18310417,26
32-13,18314323,-65
32-14,18318229,-61
32-15,18322135,9
32-16,18326041,16
32-17,18329947,-3
32-18,18333853,59
32-19,18337759,72
32-20,18341665,-42
32-21,18345571,-121
32-22,18349477,-116
32-23,18353383,-83
32-24,18357289,-85
32-25,18361195,-79
32-26,18365101,40
32-27,18369007,101
32-28,18372913,31
32-29,18376819,15
32-30,18380725,2
32-31,18384631,-49
32-32,18388537,-38
32-1,18392448,12
32-2,18396354,32
32-3,18400260,29
32-4,18404166,36
32-5,18408072,5
32-6,18411978,-49
32-7,18415884,-42
32-8,18419790,-13
32-9,18423696,66
32-10,18427602,128
32-11,18431508,25
32-12,18435414,-94
32-13,18439320,-81
32-14,18443226,-49
32-15,18447132,-61
32-16,18451038,-24
32-17,18454944,1
32-18,18458850,-54
32-19,18462756,-67
32-20,18466662,-64
32-21,18470568,-90
32-22,18474474,-84
32-23,18478380,-70
32-24,18482286,1
32-25,18486192,109
32-26,18490098,126
32-27,18494004,53
32-28,18497910,21
32-29,18501816,67
32-30,18505722,-9
32-31,18509628,-130
32-32,18513534,-47
32-1,18517446,30
32-2,18521352,-19
32-3,18525258,-44
32-4,18529164,-89
32-5,18533070,-171
32-6,18536976,-205
32-7,18540882,-163
32-8,18544788,-83
32-9,18548694,-72
32-10,18552600,-143
32-11,18556506,-199
32-12,18560412,-181
32-13,18564318,-140
32-14,18568224,-111
32-15,18572130,-24
32-16,18576036,101
32-17,18579942,111
32-18,18583848,5
32-19,18587754,-52
32-20,18591660,-20
32-21,18595566,-16
32-22,18599472,-39
32-23,18603378,44
32-24,18607284,108
32-25,18611190,27
32-26,18615096,-21
32-27,18619002,-36
32-28,18622908,-54
32-29,18626814,-4
32-30,18630720,8
32-31,18634626,22
32-32,18638532,66
32-1,18642474,23
32-2,18646380,-24
32-3,18650286,-49
32-4,18654192,-96
32-5,18658098,-105
32-6,18662004,-35
32-7,18665910,67
32-8,18669816,72
32-9,18673722,-14
32-10,18677628,-95
32-11,18681534,-133
32-12,18685440,-140
32-13,18689346,-130
32-14,18693252,-46
32-15,18697158,34
32-16,18701064,-18
32-17,18704970,-114
32-18,18708876,-113
32-19,18712782,-74
32-20,18716688,-92
32-21,18720594,-83
32-22,18724500,8
32-23,18728406,69
32-24,18732312,8
32-25,18736218,-96
32-26,18740124,-54
32-27,18744030,1
32-28,18747936,-50
32-29,18751842,23
32-30,18755748,129
32-31,18759654,94
32-32,18763560,65
32-1,18767441,40
32-2,18771347,-18
32-3,18775253,-87
32-4,18779159,-121
32-5,18783065,-11
32-6,18786971,123
32-7,18790877,105
32-8,18794783,-6
32-9,18798689,-65
32-10,18802595,-35
32-11,18806501,-44
32-12,18810407,-58
32-13,18814313,46
32-14,18818219,114
32-15,18822125,37
32-16,18826031,-47
32-17,18829937,-86
32-18,18833843,-109
32-19,18837749,-96
32-20,18841655,-31
32-21,18845561,54
32-22,18849467,47
32-23,18853373,-41
32-24,18857279,-91
32-25,18861185,-88
32-26,18865091,-44
32-27,18868997,-18
32-28,18872903,30
32-29,18876809,137
32-30,18880715,99
32-31,18884621,-22
32-32,18888527,-41
32-1,18892439,-73
32-2,18896345,-123
32-3,18900251,-84
32-4,18904157,19
32-5,18908063,84
32-6,18911969,83
32-7,18915875,56
32-8,18919781,-12
32-9,18923687,-59
32-10,18927593,-75
32-11,18931499,-58
32-12,18935405,35
32-13,18939311,52
32-14,18943217,-33
32-15,18947123,-103
32-16,18951029,-136
32-17,18954935,-131
32-18,18958841,-114
32-19,18962747,-25
32-20,18966653,87
32-21,18970559,47
32-22,18974465,-45
32-23,18978371,-63
32-24,18982277,-83
32-25,18986183,-135
32-26,18990089,-118
32-27,18993995,-23
32-28,18997901,22
32-29,19001807,37
32-30,19005713,13
32-31,19009619,-81
32-32,19013525,-119
32-1,19017436,-113
32-2,19021342,-57
32-3,19025248,50
32-4,19029154,65
32-5,19033060,26
32-6,19036966,-8
32-7,19040872,-36
32-8,19044778,-30
32-9,19048684,-37
32-10,19052590,16
32-11,19056496,122
32-12,19060402,102
32-13,19064308,4
32-14,19068214,-29
32-15,19072120,-17
32-16,19076026,-51
32-17,19079932,-66
32-18,19083838,40
32-19,19087744,104
32-20,19091650,33
32-21,19095556,-44
32-22,19099462,-87
32-23,19103368,-101
32-24,19107274,-104
32-25,19111180,-58
32-26,19115086,49
32-27,19118992,48
32-28,19122898,-17
32-29,19126804,-11
32-30,19130710,-40
32-31,19134616,-100
32-32,19138522,-108
32-1,19142434,-36
32-2,19146340,105
32-3,19150246,152
32-4,19154152,84
32-5,19158058,32
32-6,19161964,-34
32-7,19165870,-98
32-8,19169776,-48
32-9,19173682,66
32-10,19177588,108
32-11,19181494,51
32-12,19185400,-59
32-13,19189306,-106
32-14,19193212,-76
32-15,19197118,-104
32-16,19201024,-96
32-17,19204930,5
32-18,19208836,22
32-19,19212742,-57
32-20,19216648,-143
32-21,19220554,-159
32-22,19224460,-119
32-23,19228366,-126
32-24,19232272,-115
32-25,19236178,-45
32-26,19240084,-4
32-27,19243990,-38
32-28,19247896,-75
32-29,19251802,-36
32-30,19255708,-71
32-31,19259614,-136
32-32,19263520,-42
32-1,19267432,30
32-2,19271338,-7
32-3,19275244,-7
32-4,19279150,11
32-5,19283056,-29
32-6,19286962,-105
32-7,19290868,-91
32-8,19294774,-8
32-9,19298680,1
32-10,19302586,-42
32-11,19306492,-90
32-12,19310398,-137
32-13,19314304,-146
32-14,19318210,-140
32-15,19322116,-79
32-16,19326022,35
32-17,19329928,62
32-18,19333834,-17
32-19,19337740,-100
32-20,19341646,-118
32-21,19345552,-102
32-22,19349458,-90
32-23,19353364,3
32-24,19357270,88
32-25,19361176,8
32-26,19365082,-71
32-27,19368988,-90
32-28,19372894,-127
32-29,19376800,-103
32-30,19380706,-66
32-31,19384612,-32
32-32,19388518,28
32-1,19392490,10
32-2,19396396,-22
32-3,19400302,-6
32-4,19404208,-60
32-5,19408114,-118
32-6,19412020,-39
32-7,19415926,63
32-8,19419832,50
32-9,19423738,-22
32-10,19427644,-98
32-11,19431550,-119
32-12,19435456,-99
32-13,19439362,-115
32-14,19443268,-80
32-15,19447174,-15
32-16,19451080,-43
32-17,19454986,-139
32-18,19458892,-203
32-19,19462798,-197
32-20,19466704,-201
32-21,19470610,-158
32-22,19474516,-48
32-23,19478422,-18
32-24,19482328,-69
32-25,19486234,-115
32-26,19490140,-66
32-27,19494046,2
32-28,19497952,-17
32-29,19501858,28
32-30,19505764,111
32-31,19509670,130
32-32,19513576,110
32-1,19517427,43
32-2,19521333,-8
32-3,19525239,-72
32-4,19529145,-113
32-5,19533051,-23
32-6,19536957,18
32-7,19540863,-38
32-8,19544769,-77
32-9,19548675,-138
32-10,19552581,-206
32-11,19556487,-221
32-12,19560393,-154
32-13,19564299,-27
32-14,19568205,51
32-15,19572111,51
32-16,19576017,-11
32-17,19579923,-80
32-18,19583829,-98
32-19,19587735,-109
32-20,19591641,-62
32-21,19595547,42
32-22,19599453,44
32-23,19603359,-25
32-24,19607265,-92
32-25,19611171,-135
32-26,19615077,-90
32-27,19618983,-56
32-28,19622889,-22
32-29,19626795,119
32-30,19630701,173
32-31,19634607,64
32-32,19638513,-36
32-1,19642425,-73
32-2,19646331,-88
32-3,19650237,-52
32-4,19654143,75
32-5,19658049,133
32-6,19661955,45
32-7,19665861,-8
32-8,19669767,-2
32-9,19673673,-39
32-10,19677579,-75
32-11,19681485,-24
32-12,19685391,49
32-13,19689297,36
32-14,19693203,-8
32-15,19697109,-23
32-16,19701015,-19
32-17,19704921,-34
32-18,19708827,-55
32-19,19712733,27
32-20,19716639,118
32-21,19720545,92
32-22,19724451,35
32-23,19728357,5
32-24,19732263,-9
32-25,19736169,-15
32-26,19740075,20
32-27,19743981,102
32-28,19747887,129
32-29,19751793,96
32-30,19755699,65
32-31,19759605,21
32-32,19763511,-20
32-1,19767422,-68
32-2,19771328,-61
32-3,19775234,31
32-4,19779140,39
32-5,19783046,-9
32-6,19786952,1
32-7,19790858,-30
32-8,19794764,-106
32-9,19798670,-110
32-10,19802576,-25
32-11,19806482,33
32-12,19810388,-6
32-13,19814294,-81
32-14,19818200,-135
32-15,19822106,-136
32-16,19826012,-123
32-17,19829918,-104
32-18,19833824,1
32-19,19837730,72
32-20,19841636,17
32-21,19845542,-32
32-22,19849448,-57
32-23,19853354,-73
32-24,19857260,-71
32-25,19861166,-39
32-26,19865072,28
32-27,19868978,4
32-28,19872884,-44
32-29,19876790,4
32-30,19880696,-2
32-31,19884602,-58
32-32,19888508,-62
32-1,19892420,-16
32-2,19896326,65
32-3,19900232,102
32-4,19904138,60
32-5,19908044,28
32-6,19911950,54
32-7,19915856,28
32-8,19919762,-56
32-9,19923668,-23
32-10,19927574,26
32-11,19931480,-13
32-12,19935386,-22
32-13,19939292,-39
32-14,19943198,-82
32-15,19947104,-100
32-16,19951010,-72
32-17,19954916,12
32-18,19958822,5
32-19,19962728,-110
32-20,19966634,-152
32-21,19970540,-125
32-22,19974446,-134
32-23,19978352,-143
32-24,19982258,-66
32-25,19986164,38
32-26,19990070,54
32-27,19993976,-24
32-28,19997882,-66
32-29,20001788,-4
32-30,20005694,-29
32-31,20009600,-128
32-32,20013506,-88
32-1,20017417,9
32-2,20021323,12
32-3,20025229,-55
32-4,20029135,-98
32-5,20033041,-127
32-6,20036947,-194
32-7,20040853,-146
32-8,20044759,-20
32-9,20048665,-42
32-10,20052571,-90
32-11,20056477,-54
32-12,20060383,-53
32-13,20064289,-84
32-14,20068195,-93
32-15,20072101,-47
32-16,20076007,51
32-17,20079913,65
32-18,20083819,-19
32-19,20087725,-84
32-20,20091631,-107
32-21,20095537,-140
32-22,20099443,-154
32-23,20103349,-52
32-24,20107255,36
32-25,20111161,-14
32-26,20115067,-25
32-27,20118973,-13
32-28,20122879,-47
32-29,20126785,-10
32-30,20130691,26
32-31,20134597,17
32-32,20138503,29
32-1,20142507,-9
32-2,20146413,-72
32-3,20150319,-74
32-4,20154225,-83
32-5,20158131,-146
32-6,20162037,-143
32-7,20165943,-64
32-8,20169849,-40
32-9,20173755,-66
32-10,20177661,-99
32-11,20181567,-139
32-12,20185473,-161
32-13,20189379,-150
32-14,20193285,-77
32-15,20197191,-5
32-16,20201097,-5
32-17,20205003,-69
32-18,20208909,-165
32-19,20212815,-199
32-20,20216721,-158
32-21,20220627,-75
32-22,20224533,5
32-23,20228439,17
32-24,20232345,-17
32-25,20236251,-60
32-26,20240157,-38
32-27,20244063,-11
32-28,20247969,-34
32-29,20251875,29
32-30,20255781,111
32-31,20259687,110
32-32,20263593,84
32-1,20267413,49
32-2,20271319,30
32-3,20275225,-41
32-4,20279131,-133
32-5,20283037,-105
32-6,20286943,-61
32-7,20290849,-84
32-8,20294755,-117
32-9,20298661,-120
32-10,20302567,-118
32-11,20306473,-155
32-12,20310379,-146
32-13,20314285,-31
32-14,20318191,39
32-15,20322097,11
32-16,20326003,-6
32-17,20329909,-23
32-18,20333815,-49
32-19,20337721,-34
32-20,20341627,21
32-21,20345533,78
32-22,20349439,73
32-23,20353345,19
32-24,20357251,-63
32-25,20361157,-141
32-26,20365063,-111
32-27,20368969,-48
32-28,20372875,-3
32-29,20376781,52
32-30,20380687,-4
32-31,20384593,-112
32-32,20388499,-106
32-1,20392410,-121
32-2,20396316,-200
32-3,20400222,-154
32-4,20404128,-17
32-5,20408034,27
32-6,20411940,-3
32-7,20415846,-37
32-8,20419752,-74
32-9,20423658,-100
32-10,20427564,-114
32-11,20431470,-50
32-12,20435376,50
32-13,20439282,32
32-14,20443188,-33
32-15,20447094,-60
32-16,20451000,-87
32-17,20454906,-97
32-18,20458812,-87
32-19,20462718,-35
32-20,20466624,33
32-21,20470530,-4
32-22,20474436,-95
32-23,20478342,-121
32-24,20482248,-146
32-25,20486154,-174
32-26,20490060,-112
32-27,20493966,-31
32-28,20497872,18
32-29,20501778,66
32-30,20505684,39
32-31,20509590,-21
32-32,20513496,-57
32-1,20517408,-105
32-2,20521314,-57
32-3,20525220,53
32-4,20529126,69
32-5,20533032,45
32-6,20536938,40
32-7,20540844,14
32-8,20544750,-57
32-9,20548656,-90
32-10,20552562,15
32-11,20556468,106
32-12,20560374,61
32-13,20564280,11
32-14,20568186,-31
32-15,20572092,-102
32-16,20575998,-138
32-17,20579904,-100
32-18,20583810,16
32-19,20587716,85
32-20,20591622,16
32-21,20595528,-70
32-22,20599434,-112
32-23,20603340,-137
32-24,20607246,-165
32-25,20611152,-123
32-26,20615058,25
32-27,20618964,65
32-28,20622870,-11
32-29,20626776,-3
32-30,20630682,16
32-31,20634588,-46
32-32,20638494,-96
32-1,20642406,-48
32-2,20646312,38
32-3,20650218,51
32-4,20654124,20
32-5,20658030,17
32-6,20661936,14
32-7,20665842,-53
32-8,20669748,-87
32-9,20673654,7
32-10,20677560,65
32-11,20681466,30
32-12,20685372,1
32-13,20689278,-43
32-14,20693184,-114
32-15,20697090,-157
32-16,20700996,-99
32-17,20704902,9
32-18,20708808,11
32-19,20712714,-27
32-20,20716620,-28
32-21,20720526,-43
32-22,20724432,-77
32-23,20728338,-93
32-24,20732244,-15
32-25,20736150,69
32-26,20740056,50
32-27,20743962,0
32-28,20747868,-16
32-29,20751774,25
32-30,20755680,15
32-31,20759586,-54
32-32,20763492,16
32-1,20767403,134
32-2,20771309,143
32-3,20775215,124
32-4,20779121,107
32-5,20783027,77
32-6,20786933,36
32-7,20790839,46
32-8,20794745,124
32-9,20798651,119
32-10,20802557,39
32-11,20806463,9
32-12,20810369,-19
32-13,20814275,-80
32-14,20818181,-108
32-15,20822087,-49
32-16,20825993,39
32-17,20829899,56
32-18,20833805,17
32-19,20837711,-60
32-20,20841617,-137
32-21,20845523,-179
32-22,20849429,-179
32-23,20853335,-68
32-24,20857241,20
32-25,20861147,-33
32-26,20865053,-19
32-27,20868959,36
32-28,20872865,11
32-29,20876771,27
32-30,20880677,72
32-31,20884583,100
32-32,20888489,120
32-1,20892492,117
32-2,20896398,95
32-3,20900304,53
32-4,20904210,9
32-5,20908116,-42
32-6,20912022,-54
32-7,20915928,1
32-8,20919834,-7
32-9,20923740,-57
32-10,20927646,-86
32-11,20931552,-115
32-12,20935458,-113
32-13,20939364,-110
32-14,20943270,-69
32-15,20947176,17
32-16,20951082,21
32-17,20954988,-27
32-18,20958894,-36
32-19,20962800,-48
32-20,20966706,-115
32-21,20970612,-111
32-22,20974518,25
32-23,20978424,91
32-24,20982330,29
32-25,20986236,-43
32-26,20990142,-40
32-27,20994048,-29
32-28,20997954,-60
32-29,21001860,-9
32-30,21005766,69
32-31,21009672,89
32-32,21013578,92
32-1,21017399,57
32-2,21021305,23
32-3,21025211,-20
32-4,21029117,-76
32-5,21033023,-43
32-6,21036929,-5
32-7,21040835,-37
32-8,21044741,-71
32-9,21048647,-96
32-10,21052553,-131
32-11,21056459,-136
32-12,21060365,-73
32-13,21064271,20
32-14,21068177,71
32-15,21072083,63
32-16,21075989,17
32-17,21079895,-23
32-18,21083801,-21
32-19,21087707,-14
32-20,21091613,13
32-21,21095519,67
32-22,21099425,44
32-23,21103331,-20
32-24,21107237,-60
32-25,21111143,-118
32-26,21115049,-138
32-27,21118955,-122
32-28,21122861,-75
32-29,21126767,-7
32-30,21130673,-46
32-31,21134579,-119
32-32,21138485,-120
32-1,21142396,-123
32-2,21146302,-158
32-3,21150208,-151
32-4,21154114,-55
32-5,21158020,18
32-6,21161926,-19
32-7,21165832,-65
32-8,21169738,-73
32-9,21173644,-89
32-10,21177550,-111
32-11,21181456,-57
32-12,21185362,28
32-13,21189268,6
32-14,21193174,-50
32-15,21197080,-74
32-16,21200986,-112
32-17,21204892,-143
32-18,21208798,-134
32-19,21212704,-77
32-20,21216610,-33
32-21,21220516,-38
32-22,21224422,-61
32-23,21228328,-86
32-24,21232234,-106
32-25,21236140,-120
32-26,21240046,-71
32-27,21243952,44
32-28,21247858,134
32-29,21251764,176
32-30,21255670,126
32-31,21259576,28
32-32,21263482,-12
32-1,21267394,-32
32-2,21271300,-11
32-3,21275206,42
32-4,21279112,-9
32-5,21283018,-107
32-6,21286924,-122
32-7,21290830,-139
32-8,21294736,-223
32-9,21298642,-210
32-10,21302548,-92
32-11,21306454,-46
32-12,21310360,-61
32-13,21314266,-78
32-14,21318172,-113
32-15,21322078,-147
32-16,21325984,-174
32-17,21329890,-136
32-18,21333796,-21
32-19,21337702,14
32-20,21341608,-45
32-21,21345514,-89
32-22,21349420,-118
32-23,21353326,-109
32-24,21357232,-62
32-25,21361138,6
32-26,21365044,82
32-27,21368950,53
32-28,21372856,-18
32-29,21376762,2
32-30,21380668,9
32-31,21384574,-50
32-32,21388480,-59
32-1,21392391,18
32-2,21396297,104
32-3,21400203,116
32-4,21404109,77
32-5,21408015,53
32-6,21411921,42
32-7,21415827,-6
32-8,21419733,-22
32-9,21423639,66
32-10,21427545,98
32-11,21431451,32
32-12,21435357,-18
32-13,21439263,-68
32-14,21443169,-110
32-15,21447075,-99
32-16,21450981,-14
32-17,21454887,100
32-18,21458793,120
32-19,21462699,79
32-20,21466605,37
32-21,21470511,-12
32-22,21474417,-73
32-23,21478323,-96
32-24,21482229,-2
32-25,21486135,60
32-26,21490041,13
32-27,21493947,-6
32-28,21497853,22
32-29,21501759,64
32-30,21505665,2
32-31,21509571,-102
32-32,21513477,-29
32-1,21517389,77
32-2,21521295,80
32-3,21525201,53
32-4,21529107,28
32-5,21533013,23
32-6,21536919,-5
32-7,21540825,-11
32-8,21544731,55
32-9,21548637,69
32-10,21552543,9
32-11,21556449,-17
32-12,21560355,-18
32-13,21564261,-77
32-14,21568167,-129
32-15,21572073,-67
32-16,21575979,15
32-17,21579885,-6
32-18,21583791,-72
32-19,21587697,-107
32-20,21591603,-119
32-21,21595509,-156
32-22,21599415,-170
32-23,21603321,-73
32-24,21607227,-8
32-25,21611133,-41
32-26,21615039,-26
32-27,21618945,-34
32-28,21622851,-96
32-29,21626757,-61
32-30,21630663,-9
32-31,21634569,5
32-32,21638475,32
32-1,21642661,14
32-2,21646567,-26
32-3,21650473,-34
32-4,21654379,-45
32-5,21658285,-57
32-6,21662191,-11
32-7,21666097,59
32-8,21670003,65
32-9,21673909,25
32-10,21677815,-8
32-11,21681721,-43
32-12,21685627,-91
32-13,21689533,-85
32-14,21693439,21
32-15,21697345,80
32-16,21701251,32
32-17,21705157,-20
32-18,21709063,-70
32-19,21712969,-109
32-20,21716875,-140
32-21,21720781,-126
32-22,21724687,-26
32-23,21728593,16
32-24,21732499,-63
32-25,21736405,-141
32-26,21740311,-118
32-27,21744217,-80
32-28,21748123,-95
32-29,21752029,-24
32-30,21755935,37
32-31,21759841,-40
32-32,21763747,-87
32-1,21767384,-82
32-2,21771290,-72
32-3,21775196,-53
32-4,21779102,-59
32-5,21783008,-16
32-6,21786914,21
32-7,21790820,-31
32-8,21794726,-57
32-9,21798632,-60
32-10,21802538,-123
32-11,21806444,-169
32-12,21810350,-132
32-13,21814256,-23
32-14,21818162,61
32-15,21822068,62
32-16,21825974,29
32-17,21829880,-17
32-18,21833786,-67
32-19,21837692,-112
32-20,21841598,-93
32-21,21845504,-11
32-22,21849410,-2
32-23,21853316,-55
32-24,21857222,-109
32-25,21861128,-162
32-26,21865034,-124
32-27,21868940,-63
32-28,21872846,-31
32-29,21876752,40
32-30,21880658,21
32-31,21884564,-76
32-32,21888470,-80
32-1,21892382,-88
32-2,21896288,-139
32-3,21900194,-104
32-4,21904100,-2
32-5,21908006,66
32-6,21911912,65
32-7,21915818,13
32-8,21919724,-40
32-9,21923630,-118
32-10,21927536,-190
32-11,21931442,-122
32-12,21935348,-12
32-13,21939254,-16
32-14,21943160,-49
32-15,21947066,-85
32-16,21950972,-120
32-17,21954878,-109
32-18,21958784,-105
32-19,21962690,-32
32-20,21966596,81
32-21,21970502,29
32-22,21974408,-104
32-23,21978314,-96
32-24,21982220,-23
32-25,21986126,-54
32-26,21990032,-33
32-27,21993938,119
32-28,21997844,208
32-29,22001750,206
32-30,22005656,115
32-31,22009562,-12
32-32,22013468,-20
32-1,22017380,5
32-2,22021286,40
32-3,22025192,151
32-4,22029098,188
32-5,22033004,87
32-6,22036910,-11
32-7,22040816,-19
32-8,22044722,5
32-9,22048628,17
32-10,22052534,80
32-11,22056440,151
32-12,22060346,86
32-13,22064252,-20
32-14,22068158,-27
32-15,22072064,-12
32-16,22075970,-43
32-17,22079876,-53
32-18,22083782,33
32-19,22087688,116
32-20,22091594,62
32-21,22095500,-15
32-22,22099406,-12
32-23,22103312,18
32-24,22107218,0
32-25,22111124,-37
32-26,22115030,45
32-27,22118936,111
32-28,22122842,38
32-29,22126748,-1
32-30,22130654,-27
32-31,22134560,-109
32-32,22138466,-120
32-1,22142377,-49
32-2,22146283,39
32-3,22150189,85
32-4,22154095,53
32-5,22158001,-10
32-6,22161907,-91
32-7,22165813,-172
32-8,22169719,-156
32-9,22173625,-49
32-10,22177531,-12
32-11,22181437,-38
32-12,22185343,-66
32-13,22189249,-113
32-14,22193155,-112
32-15,22197061,-118
32-16,22200967,-158
32-17,22204873,-110
32-18,22208779,-69
32-19,22212685,-119
32-20,22216591,-162
32-21,22220497,-190
32-22,22224403,-230
32-23,22228309,-215
32-24,22232215,-115
32-25,22236121,-56
32-26,22240027,-62
32-27,22243933,-73
32-28,22247839,-97
32-29,22251745,-82
32-30,22255651,-96
32-31,22259557,-138
32-32,22263463,-72
32-1,22267527,-7
32-2,22271433,-18
32-3,22275339,-65
32-4,22279245,-140
32-5,22283151,-174
32-6,22287057,-190
32-7,22290963,-146
32-8,22294869,11
32-9,22298775,59
32-10,22302681,-56
32-11,22306587,-117
32-12,22310493,-40
32-13,22314399,-10
32-14,22318305,-86
32-15,22322211,-51
32-16,22326117,4
32-17,22330023,-75
32-18,22333929,-109
32-19,22337835,-124
32-20,22341741,-168
32-21,22345647,-179
32-22,22349553,-182
32-23,22353459,-61
32-24,22357365,76
32-25,22361271,49
32-26,22365177,45
32-27,22369083,50
32-28,22372989,-6
32-29,22376895,-7
32-30,22380801,27
32-31,22384707,65
32-32,22388613,104
32-1,22392525,86
32-2,22396431,17
32-3,22400337,-54
32-4,22404243,-82
32-5,22408149,-89
32-6,22412055,-48
32-7,22415961,58
32-8,22419867,61
32-9,22423773,-35
32-10,22427679,-98
32-11,22431585,-130
32-12,22435491,-168
32-13,22439397,-168
32-14,22443303,-64
32-15,22447209,25
32-16,22451115,-48
32-17,22455021,-175
32-18,22458927,-213
32-19,22462833,-200
32-20,22466739,-192
32-21,22470645,-119
32-22,22474551,-2
32-23,22478457,30
32-24,22482363,-37
32-25,22486269,-119
32-26,22490175,-83
32-27,22494081,-34
32-28,22497987,-75
32-29,22501893,2
32-30,22505799,118
32-31,22509705,112
32-32,22513611,84
32-1,22517370,49
32-2,22521276,10
32-3,22525182,-49
32-4,22529088,-83
32-5,22532994,-17
32-6,22536900,-28
32-7,22540806,-106
32-8,22544712,-126
32-9,22548618,-158
32-10,22552524,-168
32-11,22556430,-152
32-12,22560336,-120
32-13,22564242,-2
32-14,22568148,67
32-15,22572054,9
32-16,22575960,-65
32-17,22579866,-127
32-18,22583772,-164
32-19,22587678,-151
32-20,22591584,-70
32-21,22595490,23
32-22,22599396,13
32-23,22603302,-59
32-24,22607208,-109
32-25,22611114,-112
32-26,22615020,-46
32-27,22618926,-18
32-28,22622832,-18
32-29,22626738,67
32-30,22630644,79
32-31,22634550,1
32-32,22638456,-12
32-1,22642368,-61
32-2,22646274,-177
32-3,22650180,-178
32-4,22654086,-52
32-5,22657992,28
32-6,22661898,-3
32-7,22665804,-50
32-8,22669710,-77
32-9,22673616,-115
32-10,22677522,-158
32-11,22681428,-126
32-12,22685334,-20
32-13,22689240,32
32-14,22693146,5
32-15,22697052,-64
32-16,22700958,-115
32-17,22704864,-102
32-18,22708770,-72
32-19,22712676,-9
32-20,22716582,42
32-21,22720488,5
32-22,22724394,-19
32-23,22728300,-22
32-24,22732206,-72
32-25,22736112,-141
32-26,22740018,-132
32-27,22743924,-22
32-28,22747830,56
32-29,22751736,70
32-30,22755642,55
32-31,22759548,13
32-32,22763454,-11
32-1,22767365,-61
32-2,22771271,-81
32-3,22775177,-2
32-4,22779083,59
32-5,22782989,54
32-6,22786895,37
32-7,22790801,38
32-8,22794707,-4
32-9,22798613,-76
32-10,22802519,-26
32-11,22806425,31
32-12,22810331,-37
32-13,22814237,-62
32-14,22818143,-37
32-15,22822049,-74
32-16,22825955,-115
32-17,22829861,-69
32-18,22833767,48
32-19,22837673,112
32-20,22841579,80
32-21,22845485,24
32-22,22849391,-29
32-23,22853297,-62
32-24,22857203,-81
32-25,22861109,-47
32-26,22865015,67
32-27,22868921,97
32-28,22872827,49
32-29,22876733,64
32-30,22880639,43
32-31,22884545,-61
32-32,22888451,-96
32-1,22892516,-3
32-2,22896422,106
32-3,22900328,106
32-4,22904234,39
32-5,22908140,-2
32-6,22912046,-33
32-7,22915952,-89
32-8,22919858,-101
32-9,22923764,-44
32-10,22927670,-24
32-11,22931576,-52
32-12,22935482,-79
32-13,22939388,-110
32-14,22943294,-142
32-15,22947200,-158
32-16,22951106,-89
32-17,22955012,26
32-18,22958918,32
32-19,22962824,-21
32-20,22966730,-53
32-21,22970636,-84
32-22,22974542,-99
32-23,22978448,-55
32-24,22982354,45
32-25,22986260,106
32-26,22990166,110
32-27,22994072,81
32-28,22997978,43
32-29,23001884,58
32-30,23005790,36
32-31,23009696,-18
32-32,23013602,44
32-1,23017361,108
32-2,23021267,76
32-3,23025173,26
32-4,23029079,-1
32-5,23032985,-4
32-6,23036891,-63
32-7,23040797,-116
32-8,23044703,-66
32-9,23048609,-56
32-10,23052515,-114
32-11,23056421,-127
32-12,23060327,-142
32-13,23064233,-179
32-14,23068139,-173
32-15,23072045,-100
32-16,23075951,-22
32-17,23079857,-18
32-18,23083763,-44
32-19,23087669,-77
32-20,23091575,-131
32-21,23095481,-145
32-22,23099387,-122
32-23,23103293,-55
32-24,23107199,13
32-25,23111105,-2
32-26,23115011,-2
32-27,23118917,16
32-28,23122823,-10
32-29,23126729,22
32-30,23130635,88
32-31,23134541,104
32-32,23138447,68
32-1,23142541,20
32-2,23146447,2
32-3,23150353,-13
32-4,23154259,-49
32-5,23158165,-100
32-6,23162071,-99
32-7,23165977,-24
32-8,23169883,-15
32-9,23173789,-58
32-10,23177695,-64
32-11,23181601,-80
32-12,23185507,-133
32-13,23189413,-139
32-14,23193319,-44
32-15,23197225,28
32-16,23201131,16
32-17,23205037,12
32-18,23208943,30
32-19,23212849,17
32-20,23216755,-29
32-21,23220661,-25
32-22,23224567,54
32-23,23228473,81
32-24,23232379,18
32-25,23236285,-26
32-26,23240191,10
32-27,23244097,-9
32-28,23248003,-87
32-29,23251909,-16
32-30,23255815,70
32-31,23259721,11
32-32,23263627,-35
32-1,23267356,-41
32-2,23271262,-35
32-3,23275168,-19
32-4,23279074,-40
32-5,23282980,-32
32-6,23286886,5
32-7,23290792,14
32-8,23294698,8
32-9,23298604,-7
32-10,23302510,-39
32-11,23306416,-107
32-12,23310322,-113
32-13,23314228,1
32-14,23318134,27
32-15,23322040,-53
32-16,23325946,-52
32-17,23329852,-30
32-18,23333758,-75
32-19,23337664,-98
32-20,23341570,-19
32-21,23345476,76
32-22,23349382,45
32-23,23353288,-13
32-24,23357194,-13
32-25,23361100,-60
32-26,23365006,-71
32-27,23368912,-3
32-28,23372818,62
32-29,23376724,136
32-30,23380630,141
32-31,23384536,77
32-32,23388442,55
32-1,23392354,28
32-2,23396260,-24
32-3,23400166,-41
32-4,23404072,-7
32-5,23407978,44
32-6,23411884,71
32-7,23415790,46
32-8,23419696,1
32-9,23423602,-37
32-10,23427508,-112
32-11,23431414,-118
32-12,23435320,-22
32-13,23439226,10
32-14,23443132,-10
32-15,23447038,-24
32-16,23450944,-60
32-17,23454850,-134
32-18,23458756,-189
32-19,23462662,-108
32-20,23466568,-25
32-21,23470474,-53
32-22,23474380,-68
32-23,23478286,-64
32-24,23482192,-92
32-25,23486098,-115
32-26,23490004,-96
32-27,23493910,-16
32-28,23497816,83
32-29,23501722,95
32-30,23505628,22
32-31,23509534,-33
32-32,23513440,-59
32-1,23517351,-92
32-2,23521257,-107
32-3,23525163,-75
32-4,23529069,-15
32-5,23532975,0
32-6,23536881,-26
32-7,23540787,-34
32-8,23544693,-59
32-9,23548599,-101
32-10,23552505,-41
32-11,23556411,36
32-12,23560317,3
32-13,23564223,-60
32-14,23568129,-94
32-15,23572035,-111
32-16,23575941,-146
32-17,23579847,-157
32-18,23583753,-68
32-19,23587659,9
32-20,23591565,1
32-21,23595471,-20
32-22,23599377,-16
32-23,23603283,-15
32-24,23607189,-63
32-25,23611095,-59
32-26,23615001,15
32-27,23618907,0
32-28,23622813,-42
32-29,23626719,-30
32-30,23630625,-40
32-31,23634531,-86
32-32,23638437,-138
32-1,23642349,-113
32-2,23646255,-15
32-3,23650161,5
32-4,23654067,-57
32-5,23657973,-104
32-6,23661879,-108
32-7,23665785,-101
32-8,23669691,-102
32-9,23673597,-77
32-10,23677503,-56
32-11,23681409,-68
32-12,23685315,-75
32-13,23689221,-54
32-14,23693127,-40
32-15,23697033,-77
32-16,23700939,-46
32-17,23704845,68
32-18,23708751,63
32-19,23712657,30
32-20,23716563,55
32-21,23720469,-3
32-22,23724375,-90
32-23,23728281,-123
32-24,23732187,-94
32-25,23736093,1
32-26,23739999,56
32-27,23743905,-7
32-28,23747811,-73
32-29,23751717,-36
32-30,23755623,-36
32-31,23759529,-124
32-32,23763435,-84
32-1,23767346,7
32-2,23771252,-19
32-3,23775158,-54
32-4,23779064,-67
32-5,23782970,-110
32-6,23786876,-133
32-7,23790782,-92
32-8,23794688,-20
32-9,23798594,-10
32-10,23802500,-60
32-11,23806406,-82
32-12,23810312,-77
32-13,23814218,-86
32-14,23818124,-74
32-15,23822030,-14
32-16,23825936,36
32-17,23829842,34
32-18,23833748,29
32-19,23837654,78
32-20,23841560,111
32-21,23845466,31
32-22,23849372,-28
32-23,23853278,61
32-24,23857184,109
32-25,23861090,36
32-26,23864996,21
32-27,23868902,25
32-28,23872808,1
32-29,23876714,52
32-30,23880620,73
32-31,23884526,37
32-32,23888432,73
32-1,23892558,116
32-2,23896464,85
32-3,23900370,50
32-4,23904276,30
32-5,23908182,-5
32-6,23912088,2
32-7,23915994,39
32-8,23919900,22
32-9,23923806,0
32-10,23927712,-10
32-11,23931618,-38
32-12,23935524,-61
32-13,23939430,-71
32-14,23943336,-17
32-15,23947242,69
32-16,23951148,77
32-17,23955054,46
32-18,23958960,44
32-19,23962866,21
32-20,23966772,-69
32-21,23970678,-100
32-22,23974584,-21
32-23,23978490,-4
32-24,23982396,-72
32-25,23986302,-110
32-26,23990208,-72
32-27,23994114,-52
32-28,23998020,-82
32-29,24001926,-16
32-30,24005832,56
32-31,24009738,24
32-32,24013644,11
32-1,24017342,12
32-2,24021248,-4
32-3,24025154,-3
32-4,24029060,-18
32-5,24032966,-16
32-6,24036872,12
32-7,24040778,18
32-8,24044684,11
32-9,24048590,1
32-10,24052496,-26
32-11,24056402,-96
32-12,24060308,-113
32-13,24064214,-17
32-14,24068120,-14
32-15,24072026,-110
32-16,24075932,-134
32-17,24079838,-136
32-18,24083744,-177
32-19,24087650,-214
32-20,24091556,-174
32-21,24095462,-72
32-22,24099368,-59
32-23,24103274,-89
32-24,24107180,-64
32-25,24111086,-49
32-26,24114992,-45
32-27,24118898,-40
32-28,24122804,-24
32-29,24126710,47
32-30,24130616,58
32-31,24134522,-43
32-32,24138428,-73
32-1,24142339,-38
32-2,24146245,-82
32-3,24150151,-81
32-4,24154057,39
32-5,24157963,75
32-6,24161869,-6
32-7,24165775,-59
32-8,24169681,-60
32-9,24173587,-61
32-10,24177493,-79
32-11,24181399,-53
32-12,24185305,20
32-13,24189211,46
32-14,24193117,10
32-15,24197023,-32
32-16,24200929,-45
32-17,24204835,-92
32-18,24208741,-142
32-19,24212647,-58
32-20,24216553,16
32-21,24220459,-33
32-22,24224365,-79
32-23,24228271,-75
32-24,24232177,-59
32-25,24236083,-82
32-26,24239989,-91
32-27,24243895,1
32-28,24247801,97
32-29,24251707,111
32-30,24255613,71
32-31,24259519,48
32-32,24263425,26
32-1,24267337,-49
32-2,24271243,-61
32-3,24275149,0
32-4,24279055,22
32-5,24282961,19
32-6,24286867,18
32-7,24290773,35
32-8,24294679,28
32-9,24298585,-7
32-10,24302491,41
32-11,24306397,73
32-12,24310303,5
32-13,24314209,-34
32-14,24318115,-40
32-15,24322021,-62
32-16,24325927,-98
32-17,24329833,-108
32-18,24333739,-56
32-19,24337645,-32
32-20,24341551,-52
32-21,24345457,-49
32-22,24349363,-32
32-23,24353269,-55
32-24,24357175,-129
32-25,24361081,-111
32-26,24364987,-13
32-27,24368893,-41
32-28,24372799,-80
32-29,24376705,-14
32-30,24380611,-25
32-31,24384517,-111
32-32,24388423,-117
32-1,24392335,-59
32-2,24396241,-4
32-3,24400147,20
32-4,24404053,-1
32-5,24407959,-25
32-6,24411865,-3
32-7,24415771,5
32-8,24419677,-15
32-9,24423583,14
32-10,24427489,39
32-11,24431395,18
32-12,24435301,10
32-13,24439207,-1
32-14,24443113,-49
32-15,24447019,-104
32-16,24450925,-79
32-17,24454831,29
32-18,24458737,95
32-19,24462643,78
32-20,24466549,4
32-21,24470455,-60
32-22,24474361,-102
32-23,24478267,-147
32-24,24482173,-110
32-25,24486079,-27
32-26,24489985,4
32-27,24493891,-5
32-28,24497797,-34
32-29,24501703,-26
32-30,24505609,-28
32-31,24509515,-66
32-32,24513421,-25
32-1,24517332,21
32-2,24521238,-10
32-3,24525144,-16
32-4,24529050,13
32-5,24532956,3
32-6,24536862,-45
32-7,24540768,-33
32-8,24544674,26
32-9,24548580,-8
32-10,24552486,-83
32-11,24556392,-94
32-12,24560298,-84
32-13,24564204,-85
32-14,24568110,-99
32-15,24572016,-71
32-16,24575922,24
32-17,24579828,80
32-18,24583734,65
32-19,24587640,37
32-20,24591546,3
32-21,24595452,-46
32-22,24599358,-81
32-23,24603264,-36
32-24,24607170,28
32-25,24611076,14
32-26,24614982,-6
32-27,24618888,-17
32-28,24622794,-48
32-29,24626700,-60
32-30,24630606,-92
32-31,24634512,-94
32-32,24638418,-44
32-1,24642543,-67
32-2,24646449,-118
32-3,24650355,-111
32-4,24654261,-112
32-5,24658167,-120
32-6,24662073,-83
32-7,24665979,-45
32-8,24669885,-38
32-9,24673791,-14
32-10,24677697,1
32-11,24681603,-20
32-12,24685509,-40
32-13,24689415,-58
32-14,24693321,-42
32-15,24697227,-15
32-16,24701133,-35
32-17,24705039,-47
32-18,24708945,-50
32-19,24712851,-68
32-20,24716757,-89
32-21,24720663,-79
32-22,24724569,-13
32-23,24728475,39
32-24,24732381,17
32-25,24736287,-31
32-26,24740193,-33
32-27,24744099,-39
32-28,24748005,-72
32-29,24751911,-30
32-30,24755817,12
32-31,24759723,-19
32-32,24763629,-35
32-1,24767328,-56
32-2,24771234,-87
32-3,24775140,-107
32-4,24779046,-128
32-5,24782952,-70
32-6,24786858,-2
32-7,24790764,-37
32-8,24794670,-61
32-9,24798576,-33
32-10,24802482,-47
32-11,24806388,-92
32-12,24810294,-92
32-13,24814200,-34
32-14,24818106,9
32-15,24822012,-1
32-16,24825918,-25
32-17,24829824,-47
32-18,24833730,-71
32-19,24837636,-108
32-20,24841542,-99
32-21,24845448,-45
32-22,24849354,-47
32-23,24853260,-52
32-24,24857166,-30
32-25,24861072,-46
32-26,24864978,-66
32-27,24868884,-88
32-28,24872790,-59
32-29,24876696,3
32-30,24880602,-44
32-31,24884508,-95
32-32,24888414,-66
32-1,24892325,-77
32-2,24896231,-118
32-3,24900137,-106
32-4,24904043,-22
32-5,24907949,37
32-6,24911855,24
32-7,24915761,0
32-8,24919667,-37
32-9,24923573,-77
32-10,24927479,-85
32-11,24931385,-53
32-12,24935291,3
32-13,24939197,11
32-14,24943103,-40
32-15,24947009,-90
32-16,24950915,-96
32-17,24954821,-89
32-18,24958727,-111
32-19,24962633,-95
32-20,24966539,-27
32-21,24970445,-6
32-22,24974351,-69
32-23,24978257,-122
32-24,24982163,-115
32-25,24986069,-123
32-26,24989975,-118
32-27,24993881,-53
32-28,24997787,-8
32-29,25001693,-12
32-30,25005599,-32
32-31,25009505,-60
32-32,25013411,-65
32-1,25017323,-62
32-2,25021229,-44
32-3,25025135,39
32-4,25029041,117
32-5,25032947,105
32-6,25036853,59
32-7,25040759,26
32-8,25044665,-7
32-9,25048571,-13
32-10,25052477,30
32-11,25056383,64
32-12,25060289,53
32-13,25064195,38
32-14,25068101,23
32-15,25072007,-3
32-16,25075913,-40
32-17,25079819,-76
32-18,25083725,-49
32-19,25087631,10
32-20,25091537,13
32-21,25095443,-19
32-22,25099349,-41
32-23,25103255,-53
32-24,25107161,-99
32-25,25111067,-115
32-26,25114973,-33
32-27,25118879,10
32-28,25122785,5
32-29,25126691,51
32-30,25130597,40
32-31,25134503,-40
32-32,25138409,-61
32-1,25142320,-5
32-2,25146226,46
32-3,25150132,7
32-4,25154038,-63
32-5,25157944,-64
32-6,25161850,-30
32-7,25165756,-27
32-8,25169662,-36
32-9,25173568,18
32-10,25177474,68
32-11,25181380,41
32-12,25185286,15
32-13,25189192,15
32-14,25193098,13
32-15,25197004,-1
32-16,25200910,17
32-17,25204816,88
32-18,25208722,87
32-19,25212628,11
32-20,25216534,-24
32-21,25220440,-28
32-22,25224346,-50
32-23,25228252,-60
32-24,25232158,-11
32-25,25236064,35
32-26,25239970,4
32-27,25243876,-58
32-28,25247782,-50
32-29,25251688,32
32-30,25255594,38
32-31,25259500,-43
32-32,25263406,-62
32-1,25267318,-25
32-2,25271224,-13
32-3,25275130,-33
32-4,25279036,-32
32-5,25282942,-12
32-6,25286848,-36
32-7,25290754,-33
32-8,25294660,34
32-9,25298566,48
32-10,25302472,0
32-11,25306378,-30
32-12,25310284,-34
32-13,25314190,-36
32-14,25318096,-58
32-15,25322002,-49
32-16,25325908,20
32-17,25329814,31
32-18,25333720,11
32-19,25337626,25
32-20,25341532,10
32-21,25345438,-47
32-22,25349344,-90
32-23,25353250,-69
32-24,25357156,-27
32-25,25361062,-47
32-26,25364968,-76
32-27,25368874,-89
32-28,25372780,-94
32-29,25376686,-95
32-30,25380592,-119
32-31,25384498,-101
32-32,25388404,-62
32-1,25392651,-71
32-2,25396557,-57
32-3,25400463,-28
32-4,25404369,-41
32-5,25408275,-57
32-6,25412181,-48
32-7,25416087,-45
32-8,25419993,-69
32-9,25423899,-87
32-10,25427805,-101
32-11,25431711,-125
32-12,25435617,-149
32-13,25439523,-164
32-14,25443429,-142
32-15,25447335,-123
32-16,25451241,-138
32-17,25455147,-133
32-18,25459053,-103
32-19,25462959,-111
32-20,25466865,-148
32-21,25470771,-118
32-22,25474677,-45
32-23,25478583,-32
32-24,25482489,-60
32-25,25486395,-79
32-26,25490301,-77
32-27,25494207,-84
32-28,25498113,-82
32-29,25502019,-15
32-30,25505925,40
32-31,25509831,47
32-32,25513737,42
32-1,25517313,20
32-2,25521219,-2
32-3,25525125,-31
32-4,25529031,-48
32-5,25532937,6
32-6,25536843,66
32-7,25540749,56
32-8,25544655,29
32-9,25548561,40
32-10,25552467,43
32-11,25556373,22
32-12,25560279,29
32-13,25564185,110
32-14,25568091,170
32-15,25571997,97
32-16,25575903,3
32-17,25579809,-11
32-18,25583715,-35
32-19,25587621,-102
32-20,25591527,-91
32-21,25595433,-14
32-22,25599339,-17
32-23,25603245,-58
32-24,25607151,-88
32-25,25611057,-117
32-26,25614963,-83
32-27,25618869,-51
32-28,25622775,-10
32-29,25626681,67
32-30,25630587,31
32-31,25634493,-70
32-32,25638399,-90
32-1,25642311,-79
32-2,25646217,-98
32-3,25650123,-94
32-4,25654029,-16
32-5,25657935,32
32-6,25661841,-32
32-7,25665747,-93
32-8,25669653,-81
32-9,25673559,-62
32-10,25677465,-58
32-11,25681371,-10
32-12,25685277,69
32-13,25689183,81
32-14,25693089,0
32-15,25696995,-94
32-16,25700901,-128
32-17,25704807,-117
32-18,25708713,-102
32-19,25712619,-67
32-20,25716525,-11
32-21,25720431,32
32-22,25724337,4
32-23,25728243,-47
32-24,25732149,-44
32-25,25736055,-63
32-26,25739961,-91
32-27,25743867,-43
32-28,25747773,-9
32-29,25751679,-29
32-30,25755585,-32
32-31,25759491,-19
32-32,25763397,-23
32-1,25767309,-65
32-2,25771215,-106
32-3,25775121,-78
32-4,25779027,-31
32-5,25782933,-27
32-6,25786839,-41
32-7,25790745,-35
32-8,25794651,-30
32-9,25798557,-42
32-10,25802463,-20
32-11,25806369,25
32-12,25810275,8
32-13,25814181,-40
32-14,25818087,-72
32-15,25821993,-93
32-16,25825899,-98
32-17,25829805,-80
32-18,25833711,-36
32-19,25837617,-11
32-20,25841523,-31
32-21,25845429,-62
32-22,25849335,-76
32-23,25853241,-71
32-24,25857147,-97
32-25,25861053,-98
32-26,25864959,-6
32-27,25868865,43
32-28,25872771,36
32-29,25876677,47
32-30,25880583,17
32-31,25884489,-53
32-32,25888395,-95
32-1,25892306,-63
32-2,25896212,5
32-3,25900118,-8
32-4,25904024,-61
32-5,25907930,-76
32-6,25911836,-94
32-7,25915742,-108
32-8,25919648,-103
32-9,25923554,-84
32-10,25927460,-54
32-11,25931366,-37
32-12,25935272,-39
32-13,25939178,-71
32-14,25943084,-97
32-15,25946990,-95
32-16,25950896,-83
32-17,25954802,-29
32-18,25958708,6
32-19,25962614,-24
32-20,25966520,-37
32-21,25970426,-31
32-22,25974332,-54
32-23,25978238,-86
32-24,25982144,-63
32-25,25986050,-18
32-26,25989956,-19
32-27,25993862,-38
32-28,25997768,-13
32-29,26001674,51
32-30,26005580,67
32-31,26009486,17
32-32,26013392,20
32-1,26017304,75
32-2,26021210,69
32-3,26025116,33
32-4,26029022,32
32-5,26032928,47
32-6,26036834,57
32-7,26040740,55
32-8,26044646,48
32-9,26048552,29
32-10,26052458,14
32-11,26056364,27
32-12,26060270,33
32-13,26064176,14
32-14,26068082,-6
32-15,26071988,21
32-16,26075894,72
32-17,26079800,27
32-18,26083706,-58
32-19,26087612,-67
32-20,26091518,-58
32-21,26095424,-82
32-22,26099330,-102
32-23,26103236,-77
32-24,26107142,-65
32-25,26111048,-95
32-26,26114954,-95
32-27,26118860,-90
32-28,26122766,-89
32-29,26126672,-63
32-30,26130578,-61
32-31,26134484,-69
32-32,26138390,-82
32-1,26142485,-103
32-2,26146391,-95
32-3,26150297,-72
32-4,26154203,-75
32-5,26158109,-107
32-6,26162015,-131
32-7,26165921,-97
32-8,26169827,-46
32-9,26173733,-40
32-10,26177639,-71
32-11,26181545,-91
32-12,26185451,-110
32-13,26189357,-122
32-14,26193263,-67
32-15,26197169,5
32-16,26201075,7
32-17,26204981,-18
32-18,26208887,-38
32-19,26212793,-75
32-20,26216699,-92
32-21,26220605,-78
32-22,26224511,-36
32-23,26228417,43
32-24,26232323,63
32-25,26236229,4
32-26,26240135,-10
32-27,26244041,-17
32-28,26247947,-42
32-29,26251853,22
32-30,26255759,84
32-31,26259665,32
32-32,26263571,-30
32-1,26267299,-26
32-2,26271205,-1
32-3,26275111,-1
32-4,26279017,-8
32-5,26282923,-1
32-6,26286829,1
32-7,26290735,0
32-8,26294641,4
32-9,26298547,8
32-10,26302453,6
32-11,26306359,-4
32-12,26310265,12
32-13,26314171,56
32-14,26318077,71
32-15,26321983,73
32-16,26325889,72
32-17,26329795,47
32-18,26333701,41
32-19,26337607,33
32-20,26341513,15
32-21,26345419,65
32-22,26349325,119
32-23,26353231,119
32-24,26357137,97
32-25,26361043,88
32-26,26364949,121
32-27,26368855,112
32-28,26372761,100
32-29,26376667,156
32-30,26380573,109
32-31,26384479,4
32-32,26388385,8
32-1,26392297,9
32-2,26396203,-28
32-3,26400109,-20
32-4,26404015,9
32-5,26407921,-1
32-6,26411827,-23
32-7,26415733,-11
32-8,26419639,-2
32-9,26423545,-19
32-10,26427451,-18
32-11,26431357,37
32-12,26435263,103
32-13,26439169,109
32-14,26443075,90
32-15,26446981,92
32-16,26450887,108
32-17,26454793,94
32-18,26458699,52
32-19,26462605,80
32-20,26466511,134
32-21,26470417,97
32-22,26474323,39
32-23,26478229,31
32-24,26482135,23
32-25,26486041,1
32-26,26489947,17
32-27,26493853,79
32-28,26497759,143
32-29,26501665,180
32-30,26505571,159
32-31,26509477,113
32-32,26513383,109
32-1,26517294,97
32-2,26521200,86
32-3,26525106,152
32-4,26529012,185
32-5,26532918,124
32-6,26536824,90
32-7,26540730,127
32-8,26544636,152
32-9,26548542,113
32-10,26552448,90
32-11,26556354,107
32-12,26560260,71
32-13,26564166,11
32-14,26568072,2
32-15,26571978,16
32-16,26575884,16
32-17,26579790,23
32-18,26583696,47
32-19,26587602,46
32-20,26591508,25
32-21,26595414,25
32-22,26599320,27
32-23,26603226,23
32-24,26607132,13
32-25,26611038,35
32-26,26614944,117
32-27,26618850,150
32-28,26622756,127
32-29,26626662,128
32-30,26630568,111
32-31,26634474,58
32-32,26638380,33
32-1,26642292,84
32-2,26646198,166
32-3,26650104,156
32-4,26654010,76
32-5,26657916,31
32-6,26661822,18
32-7,26665728,-2
32-8,26669634,-5
32-9,26673540,18
32-10,26677446,19
32-11,26681352,17
32-12,26685258,32
32-13,26689164,25
32-14,26693070,21
32-15,26696976,-4
32-16,26700882,-4
32-17,26704788,84
32-18,26708694,91
32-19,26712600,7
32-20,26716506,-16
32-21,26720412,-4
32-22,26724318,-1
32-23,26728224,13
32-24,26732130,69
32-25,26736036,105
32-26,26739942,61
32-27,26743848,44
32-28,26747754,90
32-29,26751660,101
32-30,26755566,68
32-31,26759472,64
32-32,26763378,79
32-1,26767290,82
32-2,26771196,89
32-3,26775102,55
32-4,26779008,4
32-5,26782914,13
32-6,26786820,-11
32-7,26790726,-71
32-8,26794632,-82
32-9,26798538,-109
32-10,26802444,-137
32-11,26806350,-124
32-12,26810256,-161
32-13,26814162,-212
32-14,26818068,-199
32-15,26821974,-145
32-16,26825880,-81
32-17,26829786,-53
32-18,26833692,-73
32-19,26837598,-97
32-20,26841504,-123
32-21,26845410,-154
32-22,26849316,-150
32-23,26853222,-102
32-24,26857128,-91
32-25,26861034,-120
32-26,26864940,-107
32-27,26868846,-87
32-28,26872752,-94
32-29,26876658,-76
32-30,26880564,-91
32-31,26884470,-110
32-32,26888376,-52
32-1,26892501,-34
32-2,26896407,-93
32-3,26900313,-118
32-4,26904219,-111
32-5,26908125,-128
32-6,26912031,-150
32-7,26915937,-132
32-8,26919843,-110
32-9,26923749,-120
32-10,26927655,-142
32-11,26931561,-154
32-12,26935467,-146
32-13,26939373,-124
32-14,26943279,-91
32-15,26947185,-100
32-16,26951091,-148
32-17,26954997,-173
32-18,26958903,-176
32-19,26962809,-158
32-20,26966715,-173
32-21,26970621,-198
32-22,26974527,-149
32-23,26978433,-138
32-24,26982339,-186
32-25,26986245,-185
32-26,26990151,-170
32-27,26994057,-195
32-28,26997963,-201
32-29,27001869,-133
32-30,27005775,-110
32-31,27009681,-180
32-32,27013587,-211
32-1,27017285,-200
32-2,27021191,-177
32-3,27025097,-157
32-4,27029003,-189
32-5,27032909,-211
32-6,27036815,-193
32-7,27040721,-179
32-8,27044627,-186
32-9,27048533,-247
32-10,27052439,-310
32-11,27056345,-326
32-12,27060251,-272
32-13,27064157,-126
32-14,27068063,-8
32-15,27071969,14
32-16,27075875,8
32-17,27079781,-20
32-18,27083687,-54
32-19,27087593,-95
32-20,27091499,-125
32-21,27095405,-118
32-22,27099311,-158
32-23,27103217,-230
32-24,27107123,-272
32-25,27111029,-310
32-26,27114935,-317
32-27,27118841,-289
32-28,27122747,-258
32-29,27126653,-217
32-30,27130559,-204
32-31,27134465,-229
32-32,27138371,-227
32-1,27142283,-199
32-2,27146189,-207
32-3,27150095,-257
32-4,27154001,-253
32-5,27157907,-223
32-6,27161813,-228
32-7,27165719,-206
32-8,27169625,-177
32-9,27173531,-201
32-10,27177437,-233
32-11,27181343,-215
32-12,27185249,-164
32-13,27189155,-185
32-14,27193061,-272
32-15,27196967,-327
32-16,27200873,-313
32-17,27204779,-258
32-18,27208685,-198
32-19,27212591,-141
32-20,27216497,-106
32-21,27220403,-111
32-22,27224309,-143
32-23,27228215,-168
32-24,27232121,-162
32-25,27236027,-154
32-26,27239933,-112
32-27,27243839,-39
32-28,27247745,-37
32-29,27251651,-80
32-30,27255557,-128
32-31,27259463,-178
32-32,27263369,-176
32-1,27267275,-2760
32-2,27271181,-3356
32-3,27275087,-3120
32-4,27278993,-3153
32-5,27282899,-3236
32-6,27286805,-3196
32-7,27290711,-2472
32-8,27294617,-2290
32-9,27298523,-3075
32-10,27302429,-3058
32-11,27306335,-2888
32-12,27310241,-2964
32-13,27314147,-2893
32-14,27318053,-2850
32-15,27321959,-2824
32-16,27325865,-2784
32-17,27329771,-2751
32-18,27333677,-2715
32-19,27337583,-2687
32-20,27341489,-2649
32-21,27345395,-2619
32-22,27349301,-2585
32-23,27353207,-2553
32-24,27357113,-2521
32-25,27361019,-2488
32-26,27364925,-2459
32-27,27368831,-2429
32-28,27372737,-2398
32-29,27376643,-2369
32-30,27380549,-2339
32-31,27384455,-2310
32-32,27388361,-2281
33-1,27392267,-2253
33-2,27396173,-2225
33-3,27400079,-2197
33-4,27403985,-2170
33-5,27407891,-2143
33-6,27411797,-2116
33-7,27415703,-2090
33-8,27419609,-2064
33-9,27423515,-2038
33-10,27427421,-2013
33-11,27431327,-1988
33-12,27435233,-1963
33-13,27439139,-1939
33-14,27443045,-1915
33-15,27446951,-1891
33-16,27450857,-1868
33-17,27454763,-1844
33-18,27458669,-1821
33-19,27462575,-1799
33-20,27466481,-1777
33-21,27470387,-1755
33-22,27474293,-1733
33-23,27478199,-1711
33-24,27482105,-1690
33-25,27486011,-1669
33-26,27489917,-1648
33-27,27493823,-1627
33-28,27497729,-1607
33-29,27501635,-1587
33-30,27505541,-1568
33-31,27509447,-1548
33-32,27513353,-1529
33-33,27517259,-1510
32-1,27521165,-1491
32-2,27525071,-1473
32-3,27528977,-1454
32-4,27532883,-1437
32-5,27536789,-1415
32-6,27540695,-1407
32-7,27544601,-1382
32-8,27548507,-1357
32-9,27552413,-1380
32-10,27556319,-1285
32-11,27560225,-1163
32-12,27564131,-1253
32-13,27568037,-1317
32-14,27571943,-1261
32-15,27575849,-1253
32-16,27579755,-1245
32-17,27583661,-1220
32-18,27587567,-1210
32-19,27591473,-1193
32-20,27595379,-1180
32-21,27599285,-1164
32-22,27603191,-1150
32-23,27607097,-1136
32-24,27611003,-1122
32-25,27614909,-1108
32-26,27618815,-1094
32-27,27622721,-1081
32-28,27626627,-1067
32-29,27630533,-1054
32-30,27634439,-1041
32-31,27638345,-1028
32-32,27642251,-1016
32-1,27646157,-1003
32-2,27650063,-991
32-3,27653969,-978
32-4,27657875,-966
32-5,27661781,-954
32-6,27665687,-943
32-7,27669593,-931
32-8,27673499,-919
32-9,27677405,-908
32-10,27681311,-897
32-11,27685217,-886
32-12,27689123,-875
32-13,27693029,-864
32-14,27696935,-853
32-15,27700841,-843
32-16,27704747,-832
32-17,27708653,-822
32-18,27712559,-812
32-19,27716465,-802
32-20,27720371,-793
32-21,27724277,-781
32-22,27728183,-773
32-23,27732089,-762
32-24,27735995,-752
32-25,27739901,-744
32-26,27743807,-735
32-27,27747713,-724
32-28,27751619,-711
32-29,27755525,-728
32-30,27759431,-669
32-31,27763337,-706
32-32,27767243,-735
32-1,27771149,-361
32-2,27775055,-293
32-3,27778961,-657
32-4,27782867,-710
32-5,27786773,-626
32-6,27790679,-575
32-7,27794585,-686
32-8,27798491,-515
32-9,27802397,255
32-10,27806303,-129
32-11,27810209,-673
32-12,27814115,-642
32-13,27818021,-524
32-14,27821927,-579
32-15,27825833,-643
32-16,27829739,-67
32-17,27833645,600
32-18,27837551,-314
32-19,27841457,-638
32-20,27845363,-555
32-21,27849269,-414
32-22,27853175,-618
32-23,27857081,-611
32-24,27860987,927
32-25,27864893,946
32-26,27868799,-627
32-27,27872705,-246
32-28,27876611,1082
32-29,27880517,927
32-30,27884423,847
32-31,27888329,2035
32-32,27892235,2202
32-1,27896141,176
32-2,27900047,-707
32-3,27903953,-286
32-4,27907859,2086
32-5,27911765,3067
32-6,27915671,2948
32-7,27919577,4085
32-8,27923483,2233
32-9,27927389,-876
32-10,27931295,902
32-11,27935201,4326
32-12,27939107,4516
32-13,27943013,4111
32-14,27946919,5032
32-15,27950825,5651
32-16,27954731,1654
32-17,27958637,-1193
32-18,27962543,1643
32-19,27966449,5939
32-20,27970355,5666
32-21,27974261,4875
32-22,27978167,6180
32-23,27982073,5169
32-24,27985979,-608
32-25,27989885,-1540
32-26,27993791,3278
32-27,27997697,6395
32-28,28001603,5008
32-29,28005509,5103
32-30,28009415,6738
32-31,28013321,3754
32-32,28017227,-1508
32-1,28021133,-1881
32-2,28025039,11
32-3,28028945,4970
32-4,28032851,6429
32-5,28036757,6278
32-6,28040663,6521
32-7,28044569,1069
32-8,28048475,-2175
32-9,28052381,1177
32-10,28056287,6721
32-11,28060193,7033
32-12,28064099,6567
32-13,28068005,7586
32-14,28071911,5247
32-15,28075817,-1372
32-16,28079723,-2560
32-17,28083629,1857
32-18,28087535,7202
32-19,28091441,6831
32-20,28095347,6335
32-21,28099253,7600
32-22,28103159,3738
32-23,28107065,-2948
32-24,28110971,-2911
32-25,28114877,3634
32-26,28118783,7925
32-27,28122689,6369
32-28,28126595,6263
32-29,28130501,5895
32-30,28134407,89
32-31,28138313,-3253
32-32,28142219,-3212
32-1,28146125,-585
32-2,28150031,5750
32-3,28153937,7563
32-4,28157843,9384
32-5,28161749,8078
32-6,28165655,-1871
32-7,28169561,-678
32-8,28173467,9788
32-9,28177373,11376
32-10,28181279,9249
32-11,28185185,10151
32-12,28189091,12082
32-13,28192997,5507
32-14,28196903,-4246
32-15,28200809,1363
32-16,28204715,11105
32-17,28208621,11045
32-18,28212527,9446
32-19,28216433,11366
32-20,28220339,11800
32-21,28224245,1593
32-22,28228151,-4916
32-23,28232057,4334
32-24,28235963,11915
32-25,28239869,10356
32-26,28243775,10461
32-27,28247681,12005
32-28,28251587,8280
32-29,28255493,-1479
32-30,28259399,-5553
32-31,28263305,-2912
32-32,28267211,7769
32-1,28271117,11479
32-2,28275023,9794
32-3,28278929,12047
32-4,28282835,5723
32-5,28286741,-6034
32-6,28290647,-324
32-7,28294553,11200
32-8,28298459,11791
32-9,28302365,9742
32-10,28306271,10965
32-11,28310177,11212
32-12,28314083,1512
32-13,28317989,-6661
32-14,28321895,-897
32-15,28325801,10183
32-16,28329707,10794
32-17,28333613,8907
32-18,28337519,11206
32-19,28341425,9213
32-20,28345331,-3472
32-21,28349237,-7152
32-22,28353143,3314
32-23,28357049,11701
32-24,28360955,10108
32-25,28364861,9718
32-26,28368767,12052
32-27,28372673,6389
32-28,28376579,-6346
32-29,28380485,-7651
32-30,28384391,1138
32-31,28388297,11009
32-32,28392203,10727
32-1,28396109,11020
32-2,28400015,11889
32-3,28403921,1836
32-4,28407827,-8150
32-5,28411733,-8048
32-6,28415639,113
32-7,28419545,10697
32-8,28423451,11966
32-9,28427357,12379
32-10,28431263,11192
32-11,28435169,-3065
32-12,28439075,-8490
32-13,28442981,1868
32-14,28446887,11902
32-15,28450793,11244
32-16,28454699,10186
32-17,28458605,13249
32-18,28462511,7626
32-19,28466417,-7863
32-20,28470323,-8986
32-21,28474229,5749
32-22,28478135,13974
32-23,28482041,12064
32-24,28485947,12323
32-25,28489853,13776
32-26,28493759,2830
32-27,28497665,-9634
32-28,28501571,-6385
32-29,28505477,7236
32-30,28509383,11912
32-31,28513289,12129
32-32,28517195,12562
32-1,28521101,10916
32-2,28525007,10166
32-3,28528913,11877
32-4,28532819,12184
32-5,28536725,12208
32-6,28540631,11950
32-7,28544537,11354
32-8,28548443,13648
32-9,28552349,7324
32-10,28556255,-8223
32-11,28560161,-11152
32-12,28564067,-9889
32-13,28567973,-10889
32-14,28571879,-6813
32-15,28575785,8673
32-16,28579691,15273
32-17,28583597,555
32-18,28587503,-5631
32-19,28591409,8201
32-20,28595315,14052
32-21,28599221,11367
32-22,28603127,10891
32-23,28607033,12923
32-24,28610939,11838
32-25,28614845,-3536
32-26,28618751,-11729
32-27,28622657,-1115
32-28,28626563,10731
32-29,28630469,10734
32-30,28634375,10432
32-31,28638281,14038
32-32,28642187,8046
32-1,28646093,-7989
32-2,28649999,-12145
32-3,28653905,-7261
32-4,28657811,7372
32-5,28661717,12964
32-6,28665623,12191
32-7,28669529,14607
32-8,28673435,2099
32-9,28677341,-11715
32-10,28681247,758
32-11,28685153,14108
32-12,28689059,13004
32-13,28692965,11141
32-14,28696871,13537
32-15,28700777,12866
32-16,28704683,-3498
32-17,28708589,-13148
32-18,28712495,-643
32-19,28716401,13243
32-20,28720307,12537
32-21,28724213,10721
32-22,28728119,14170
32-23,28732025,8717
32-24,28735931,-10232
32-25,28739837,-12248
32-26,28743743,5914
32-27,28747649,13769
32-28,28751555,10294
32-29,28755461,10980
32-30,28759367,13057
32-31,28763273,3254
32-32,28767179,-13102
32-1,28771085,-13992
32-2,28774991,-3066
32-3,28778897,11070
32-4,28782803,12682
32-5,28786709,12725
32-6,28790615,13327
32-7,28794521,-3911
32-8,28798427,-14332
32-9,28802333,2197
32-10,28806239,14703
32-11,28810145,12776
32-12,28814051,11134
32-13,28817957,14469
32-14,28821863,9255
32-15,28825769,-10538
32-16,28829675,-13076
32-17,28833581,5906
32-18,28837487,14252
32-19,28841393,10859
32-20,28845299,10864
32-21,28849205,14119
32-22,28853111,3119
32-23,28857017,-15050
32-24,28860923,-8109
32-25,28864829,10766
32-26,28868735,13614
32-27,28872641,9991
32-28,28876547,12179
32-29,28880453,10554
32-30,28884359,-4714
32-31,28888265,-15795
32-32,28892171,-13470
32-1,28896077,3476
32-2,28899983,12958
32-3,28903889,10757
32-4,28907795,13364
32-5,28911701,10077
32-6,28915607,-10389
32-7,28919513,-12412
32-8,28923419,6794
32-9,28927325,14073
32-10,28931231,10900
32-11,28935137,11427
32-12,28939043,14742
32-13,28942949,3735
32-14,28946855,-15676
32-15,28950761,-9513
32-16,28954667,9512
32-17,28958573,13157
32-18,28962479,9945
32-19,28966385,12223
32-20,28970291,13402
32-21,28974197,-3272
32-22,28978103,-16926
32-23,28982009,-2753
32-24,28985915,12442
32-25,28989821,11249
32-26,28993727,10265
32-27,28997633,12452
32-28,29001539,6440
32-29,29005445,-10152
32-30,29009351,-17215
32-31,29013257,-11153
32-32,29017163,6154
32-1,29021069,12314
32-2,29024975,10234
32-3,29028881,13596
32-4,29032787,4064
32-5,29036693,-15539
32-6,29040599,-8576
32-7,29044505,10352
32-8,29048411,13144
32-9,29052317,9809
32-10,29056223,11659
32-11,29060129,12654
32-12,29064035,-3503
32-13,29067941,-17819
32-14,29071847,-4564
32-15,29075753,11679
32-16,29079659,11475
32-17,29083565,8905
32-18,29087471,12521
32-19,29091377,9780
32-20,29095283,-10374
32-21,29099189,-16821
32-22,29103095,2172
32-23,29107001,13023
32-24,29110907,10313
32-25,29114813,10139
