32-1,11261785,-83
32-2,11265691,-76
32-3,11269597,-85
32-4,11273503,-106
32-5,11277409,-116
32-6,11281315,-115
32-7,11285221,-107
32-8,11289127,-102
32-9,11293033,-104
32-10,11296939,-111
32-11,11300845,-114
32-12,11304751,-102
32-13,11308657,-85
32-14,11312563,-74
32-15,11316469,-74
32-16,11320375,-76
32-17,11324281,-76
32-18,11328187,-70
32-19,11332093,-64
32-20,11335999,-53
32-21,11339905,-37
32-22,11343811,-27
32-23,11347717,-23
32-24,11351623,-36
32-25,11355529,-63
32-26,11359435,-78
32-27,11363341,-79
32-28,11367247,-71
32-29,11371153,-69
32-30,11375059,-84
32-31,11378965,-111
32-32,11382871,-128
32-1,11386783,-123
32-2,11390689,-97
32-3,11394595,-76
32-4,11398501,-74
32-5,11402407,-71
32-6,11406313,-61
32-7,11410219,-52
32-8,11414125,-51
32-9,11418031,-62
32-10,11421937,-74
32-11,11425843,-77
32-12,11429749,-72
32-13,11433655,-60
32-14,11437561,-44
32-15,11441467,-24
32-16,11445373,-8
32-17,11449279,-8
32-18,11453185,-22
32-19,11457091,-49
32-20,11460997,-73
32-21,11464903,-83
32-22,11468809,-84
32-23,11472715,-72
32-24,11476621,-66
32-25,11480527,-83
32-26,11484433,-93
32-27,11488339,-85
32-28,11492245,-60
32-29,11496151,-43
32-30,11500057,-50
32-31,11503963,-68
32-32,11507869,-69
32-1,11512848,-53
32-2,11516754,-32
32-3,11520660,-25
32-4,11524566,-37
32-5,11528472,-46
32-6,11532378,-48
32-7,11536284,-45
32-8,11540190,-35
32-9,11544096,-26
32-10,11548002,-25
32-11,11551908,-29
32-12,11555814,-27
32-13,11559720,-20
32-14,11563626,-20
32-15,11567532,-36
32-16,11571438,-60
32-17,11575344,-78
32-18,11579250,-91
32-19,11583156,-106
32-20,11587062,-124
32-21,11590968,-131
32-22,11594874,-127
32-23,11598780,-109
32-24,11602686,-92
32-25,11606592,-98
32-26,11610498,-94
32-27,11614404,-62
32-28,11618310,-18
32-29,11622216,10
32-30,11626122,-9
32-31,11630028,-62
32-32,11633934,-104
32-1,11636778,-112
32-2,11640684,-95
32-3,11644590,-78
32-4,11648496,-90
32-5,11652402,-94
32-6,11656308,-78
32-7,11660214,-63
32-8,11664120,-59
32-9,11668026,-70
32-10,11671932,-82
32-11,11675838,-87
32-12,11679744,-76
32-13,11683650,-55
32-14,11687556,-31
32-15,11691462,-8
32-16,11695368,4
32-17,11699274,6
32-18,11703180,-3
32-19,11707086,-18
32-20,11710992,-41
32-21,11714898,-67
32-22,11718804,-87
32-23,11722710,-86
32-24,11726616,-74
32-25,11730522,-73
32-26,11734428,-68
32-27,11738334,-42
32-28,11742240,-3
32-29,11746146,17
32-30,11750052,-7
32-31,11753958,-63
32-32,11757864,-116
32-1,11761898,-141
32-2,11765804,-139
32-3,11769710,-126
32-4,11773616,-121
32-5,11777522,-117
32-6,11781428,-114
32-7,11785334,-115
32-8,11789240,-104
32-9,11793146,-85
32-10,11797052,-71
32-11,11800958,-75
32-12,11804864,-91
32-13,11808770,-103
32-14,11812676,-98
32-15,11816582,-74
32-16,11820488,-40
32-17,11824394,-9
32-18,11828300,9
32-19,11832206,7
32-20,11836112,-8
32-21,11840018,-19
32-22,11843924,-17
32-23,11847830,3
32-24,11851736,22
32-25,11855642,28
32-26,11859548,33
32-27,11863454,38
32-28,11867360,41
32-29,11871266,29
32-30,11875172,-10
32-31,11879078,-63
32-32,11882984,-103
32-1,11886773,-119
32-2,11890679,-112
32-3,11894585,-103
32-4,11898491,-103
32-5,11902397,-94
32-6,11906303,-74
32-7,11910209,-58
32-8,11914115,-55
32-9,11918021,-69
32-10,11921927,-82
32-11,11925833,-83
32-12,11929739,-71
32-13,11933645,-55
32-14,11937551,-42
32-15,11941457,-41
32-16,11945363,-55
32-17,11949269,-70
32-18,11953175,-77
32-19,11957081,-71
32-20,11960987,-66
32-21,11964893,-71
32-22,11968799,-81
32-23,11972705,-74
32-24,11976611,-58
32-25,11980517,-52
32-26,11984423,-49
32-27,11988329,-36
32-28,11992235,-13
32-29,11996141,6
32-30,12000047,-4
32-31,12003953,-36
32-32,12007859,-60
32-1,12011771,-63
32-2,12015677,-39
32-3,12019583,-8
32-4,12023489,10
32-5,12027395,15
32-6,12031301,9
32-7,12035207,4
32-8,12039113,10
32-9,12043019,20
32-10,12046925,17
32-11,12050831,2
32-12,12054737,-6
32-13,12058643,3
32-14,12062549,11
32-15,12066455,4
32-16,12070361,-20
32-17,12074267,-41
32-18,12078173,-49
32-19,12082079,-50
32-20,12085985,-50
32-21,12089891,-49
32-22,12093797,-46
32-23,12097703,-33
32-24,12101609,-24
32-25,12105515,-28
32-26,12109421,-27
32-27,12113327,-16
32-28,12117233,6
32-29,12121139,32
32-30,12125045,41
32-31,12128951,25
32-32,12132857,-3
32-1,12136768,-27
32-2,12140674,-34
32-3,12144580,-38
32-4,12148486,-48
32-5,12152392,-51
32-6,12156298,-50
32-7,12160204,-50
32-8,12164110,-51
32-9,12168016,-52
32-10,12171922,-46
32-11,12175828,-34
32-12,12179734,-26
32-13,12183640,-39
32-14,12187546,-70
32-15,12191452,-95
32-16,12195358,-102
32-17,12199264,-93
32-18,12203170,-80
32-19,12207076,-79
32-20,12210982,-90
32-21,12214888,-101
32-22,12218794,-102
32-23,12222700,-84
32-24,12226606,-68
32-25,12230512,-75
32-26,12234418,-76
32-27,12238324,-57
32-28,12242230,-25
32-29,12246136,-7
32-30,12250042,-34
32-31,12253948,-88
32-32,12257854,-123
32-1,12262865,-135
32-2,12266771,-129
32-3,12270677,-127
32-4,12274583,-136
32-5,12278489,-130
32-6,12282395,-119
32-7,12286301,-112
32-8,12290207,-99
32-9,12294113,-89
32-10,12298019,-76
32-11,12301925,-65
32-12,12305831,-59
32-13,12309737,-56
32-14,12313643,-57
32-15,12317549,-61
32-16,12321455,-64
32-17,12325361,-60
32-18,12329267,-50
32-19,12333173,-36
32-20,12337079,-22
32-21,12340985,-13
32-22,12344891,-14
32-23,12348797,-19
32-24,12352703,-29
32-25,12356609,-53
32-26,12360515,-59
32-27,12364421,-39
32-28,12368327,-7
32-29,12372233,13
32-30,12376139,-3
32-31,12380045,-48
32-32,12383951,-88
32-1,12386916,-102
32-2,12390822,-84
32-3,12394728,-58
32-4,12398634,-53
32-5,12402540,-55
32-6,12406446,-60
32-7,12410352,-74
32-8,12414258,-84
32-9,12418164,-79
32-10,12422070,-61
32-11,12425976,-40
32-12,12429882,-31
32-13,12433788,-33
32-14,12437694,-32
32-15,12441600,-25
32-16,12445506,-22
32-17,12449412,-30
32-18,12453318,-51
32-19,12457224,-66
32-20,12461130,-73
32-21,12465036,-74
32-22,12468942,-72
32-23,12472848,-62
32-24,12476754,-47
32-25,12480660,-47
32-26,12484566,-47
32-27,12488472,-31
32-28,12492378,-5
32-29,12496284,21
32-30,12500190,27
32-31,12504096,14
32-32,12508002,-2
32-1,12511761,-18
32-2,12515667,-32
32-3,12519573,-39
32-4,12523479,-44
32-5,12527385,-37
32-6,12531291,-28
32-7,12535197,-35
32-8,12539103,-44
32-9,12543009,-49
32-10,12546915,-50
32-11,12550821,-52
32-12,12554727,-49
32-13,12558633,-41
32-14,12562539,-33
32-15,12566445,-32
32-16,12570351,-33
32-17,12574257,-29
32-18,12578163,-21
32-19,12582069,-16
32-20,12585975,-18
32-21,12589881,-22
32-22,12593787,-27
32-23,12597693,-28
32-24,12601599,-36
32-25,12605505,-50
32-26,12609411,-45
32-27,12613317,-15
32-28,12617223,26
32-29,12621129,55
32-30,12625035,49
32-31,12628941,12
32-32,12632847,-33
32-1,12636759,-66
32-2,12640665,-77
32-3,12644571,-78
32-4,12648477,-88
32-5,12652383,-95
32-6,12656289,-101
32-7,12660195,-105
32-8,12664101,-102
32-9,12668007,-86
32-10,12671913,-60
32-11,12675819,-34
32-12,12679725,-22
32-13,12683631,-29
32-14,12687537,-40
32-15,12691443,-47
32-16,12695349,-48
32-17,12699255,-49
32-18,12703161,-52
32-19,12707067,-50
32-20,12710973,-45
32-21,12714879,-37
32-22,12718785,-27
32-23,12722691,-9
32-24,12726597,3
32-25,12730503,-5
32-26,12734409,-7
32-27,12738315,12
32-28,12742221,40
32-29,12746127,52
32-30,12750033,31
32-31,12753939,-4
32-32,12757845,-22
32-1,12761757,-25
32-2,12765663,-28
32-3,12769569,-40
32-4,12773475,-54
32-5,12777381,-49
32-6,12781287,-40
32-7,12785193,-38
32-8,12789099,-35
32-9,12793005,-23
32-10,12796911,-9
32-11,12800817,-6
32-12,12804723,-16
32-13,12808629,-28
32-14,12812535,-37
32-15,12816441,-43
32-16,12820347,-46
32-17,12824253,-47
32-18,12828159,-47
32-19,12832065,-45
32-20,12835971,-38
32-21,12839877,-25
32-22,12843783,-17
32-23,12847689,-16
32-24,12851595,-30
32-25,12855501,-53
32-26,12859407,-54
32-27,12863313,-31
32-28,12867219,1
32-29,12871125,13
32-30,12875031,-14
32-31,12878937,-60
32-32,12882843,-89
32-1,12886754,-90
32-2,12890660,-73
32-3,12894566,-66
32-4,12898472,-78
32-5,12902378,-82
32-6,12906284,-74
32-7,12910190,-64
32-8,12914096,-65
32-9,12918002,-77
32-10,12921908,-89
32-11,12925814,-92
32-12,12929720,-81
32-13,12933626,-63
32-14,12937532,-39
32-15,12941438,-14
32-16,12945344,0
32-17,12949250,-2
32-18,12953156,-17
32-19,12957062,-34
32-20,12960968,-45
32-21,12964874,-43
32-22,12968780,-35
32-23,12972686,-22
32-24,12976592,-17
32-25,12980498,-31
32-26,12984404,-35
32-27,12988310,-21
32-28,12992216,1
32-29,12996122,5
32-30,13000028,-18
32-31,13003934,-43
32-32,13007840,-41
32-1,13013125,-20
32-2,13017031,2
32-3,13020937,0
32-4,13024843,-29
32-5,13028749,-58
32-6,13032655,-78
32-7,13036561,-85
32-8,13040467,-72
32-9,13044373,-56
32-10,13048279,-52
32-11,13052185,-60
32-12,13056091,-71
32-13,13059997,-75
32-14,13063903,-76
32-15,13067809,-76
32-16,13071715,-76
32-17,13075621,-77
32-18,13079527,-82
32-19,13083433,-88
32-20,13087339,-87
32-21,13091245,-74
32-22,13095151,-59
32-23,13099057,-49
32-24,13102963,-61
32-25,13106869,-91
32-26,13110775,-102
32-27,13114681,-79
32-28,13118587,-37
32-29,13122493,-8
32-30,13126399,-25
32-31,13130305,-79
32-32,13134211,-133
32-1,13136749,-155
32-2,13140655,-145
32-3,13144561,-128
32-4,13148467,-132
32-5,13152373,-134
32-6,13156279,-135
32-7,13160185,-139
32-8,13164091,-146
32-9,13167997,-154
32-10,13171903,-151
32-11,13175809,-137
32-12,13179715,-120
32-13,13183621,-107
32-14,13187527,-103
32-15,13191433,-99
32-16,13195339,-92
32-17,13199245,-82
32-18,13203151,-69
32-19,13207057,-51
32-20,13210963,-39
32-21,13214869,-28
32-22,13218775,-21
32-23,13222681,-10
32-24,13226587,6
32-25,13230493,-1
32-26,13234399,-12
32-27,13238305,-6
32-28,13242211,15
32-29,13246117,34
32-30,13250023,15
32-31,13253929,-41
32-32,13257835,-97
32-1,13261747,-126
32-2,13265653,-122
32-3,13269559,-96
32-4,13273465,-80
32-5,13277371,-70
32-6,13281277,-59
32-7,13285183,-51
32-8,13289089,-35
32-9,13292995,-19
32-10,13296901,-15
32-11,13300807,-23
32-12,13304713,-29
32-13,13308619,-30
32-14,13312525,-27
32-15,13316431,-28
32-16,13320337,-32
32-17,13324243,-36
32-18,13328149,-40
32-19,13332055,-48
32-20,13335961,-60
32-21,13339867,-73
32-22,13343773,-85
32-23,13347679,-90
32-24,13351585,-88
32-25,13355491,-82
32-26,13359397,-57
32-27,13363303,-25
32-28,13367209,2
32-29,13371115,11
32-30,13375021,-8
32-31,13378927,-43
32-32,13382833,-65
32-1,13386745,-68
32-2,13390651,-57
32-3,13394557,-49
32-4,13398463,-61
32-5,13402369,-72
32-6,13406275,-79
32-7,13410181,-88
32-8,13414087,-92
32-9,13417993,-97
32-10,13421899,-101
32-11,13425805,-102
32-12,13429711,-94
32-13,13433617,-76
32-14,13437523,-45
32-15,13441429,-13
32-16,13445335,10
32-17,13449241,19
32-18,13453147,19
32-19,13457053,15
32-20,13460959,8
32-21,13464865,-1
32-22,13468771,-14
32-23,13472677,-23
32-24,13476583,-35
32-25,13480489,-51
32-26,13484395,-43
32-27,13488301,-11
32-28,13492207,25
32-29,13496113,37
32-30,13500019,13
32-31,13503925,-25
32-32,13507831,-47
32-1,13511742,-49
32-2,13515648,-42
32-3,13519554,-35
32-4,13523460,-28
32-5,13527366,-12
32-6,13531272,-3
32-7,13535178,-11
32-8,13539084,-23
32-9,13542990,-25
32-10,13546896,-15
32-11,13550802,-10
32-12,13554708,-11
32-13,13558614,-15
32-14,13562520,-10
32-15,13566426,-1
32-16,13570332,6
32-17,13574238,5
32-18,13578144,0
32-19,13582050,-1
32-20,13585956,2
32-21,13589862,8
32-22,13593768,9
32-23,13597674,9
32-24,13601580,3
32-25,13605486,-8
32-26,13609392,-3
32-27,13613298,15
32-28,13617204,37
32-29,13621110,50
32-30,13625016,40
32-31,13628922,17
32-32,13632828,3
32-1,13636740,3
32-2,13640646,8
32-3,13644552,3
32-4,13648458,-16
32-5,13652364,-26
32-6,13656270,-20
32-7,13660176,-6
32-8,13664082,6
32-9,13667988,7
32-10,13671894,0
32-11,13675800,-9
32-12,13679706,-27
32-13,13683612,-47
32-14,13687518,-58
32-15,13691424,-55
32-16,13695330,-42
32-17,13699236,-33
32-18,13703142,-24
32-19,13707048,-18
32-20,13710954,-17
32-21,13714860,-25
32-22,13718766,-45
32-23,13722672,-64
32-24,13726578,-75
32-25,13730484,-84
32-26,13734390,-72
32-27,13738296,-45
32-28,13742202,-15
32-29,13746108,-2
32-30,13750014,-16
32-31,13753920,-47
32-32,13757826,-66
32-1,13762989,-72
32-2,13766895,-72
32-3,13770801,-76
32-4,13774707,-86
32-5,13778613,-88
32-6,13782519,-90
32-7,13786425,-91
32-8,13790331,-81
32-9,13794237,-57
32-10,13798143,-29
32-11,13802049,-14
32-12,13805955,-21
32-13,13809861,-41
32-14,13813767,-55
32-15,13817673,-50
32-16,13821579,-34
32-17,13825485,-18
32-18,13829391,-19
32-19,13833297,-32
32-20,13837203,-48
32-21,13841109,-57
32-22,13845015,-70
32-23,13848921,-80
32-24,13852827,-89
32-25,13856733,-106
32-26,13860639,-106
32-27,13864545,-75
32-28,13868451,-25
32-29,13872357,16
32-30,13876263,11
32-31,13880169,-38
32-32,13884075,-88
32-1,13886735,-100
32-2,13890641,-69
32-3,13894547,-27
32-4,13898453,-21
32-5,13902359,-37
32-6,13906265,-57
32-7,13910171,-74
32-8,13914077,-78
32-9,13917983,-74
32-10,13921889,-68
32-11,13925795,-65
32-12,13929701,-68
32-13,13933607,-73
32-14,13937513,-72
32-15,13941419,-65
32-16,13945325,-61
32-17,13949231,-54
32-18,13953137,-46
32-19,13957043,-33
32-20,13960949,-20
32-21,13964855,-13
32-22,13968761,-9
32-23,13972667,2
32-24,13976573,10
32-25,13980479,-2
32-26,13984385,-15
32-27,13988291,-3
32-28,13992197,27
32-29,13996103,47
32-30,14000009,29
32-31,14003915,-16
32-32,14007821,-47
32-1,14011733,-46
32-2,14015639,-23
32-3,14019545,-1
32-4,14023451,-5
32-5,14027357,-14
32-6,14031263,-15
32-7,14035169,-13
32-8,14039075,-7
32-9,14042981,-3
32-10,14046887,-4
32-11,14050793,-6
32-12,14054699,-3
32-13,14058605,0
32-14,14062511,-5
32-15,14066417,-24
32-16,14070323,-49
32-17,14074229,-71
32-18,14078135,-83
32-19,14082041,-87
32-20,14085947,-86
32-21,14089853,-79
32-22,14093759,-75
32-23,14097665,-73
32-24,14101571,-77
32-25,14105477,-92
32-26,14109383,-92
32-27,14113289,-73
32-28,14117195,-36
32-29,14121101,-4
32-30,14125007,-5
32-31,14128913,-35
32-32,14132819,-67
32-1,14136731,-78
32-2,14140637,-62
32-3,14144543,-41
32-4,14148449,-37
32-5,14152355,-35
32-6,14156261,-31
32-7,14160167,-28
32-8,14164073,-31
32-9,14167979,-44
32-10,14171885,-56
32-11,14175791,-59
32-12,14179697,-52
32-13,14183603,-42
32-14,14187509,-31
32-15,14191415,-26
32-16,14195321,-33
32-17,14199227,-53
32-18,14203133,-78
32-19,14207039,-96
32-20,14210945,-99
32-21,14214851,-88
32-22,14218757,-75
32-23,14222663,-57
32-24,14226569,-50
32-25,14230475,-64
32-26,14234381,-76
32-27,14238287,-72
32-28,14242193,-52
32-29,14246099,-37
32-30,14250005,-50
32-31,14253911,-82
32-32,14257817,-102
32-1,14261728,-94
32-2,14265634,-68
32-3,14269540,-45
32-4,14273446,-47
32-5,14277352,-58
32-6,14281258,-78
32-7,14285164,-100
32-8,14289070,-111
32-9,14292976,-115
32-10,14296882,-112
32-11,14300788,-105
32-12,14304694,-91
32-13,14308600,-74
32-14,14312506,-67
32-15,14316412,-71
32-16,14320318,-77
32-17,14324224,-72
32-18,14328130,-55
32-19,14332036,-39
32-20,14335942,-40
32-21,14339848,-53
32-22,14343754,-72
32-23,14347660,-82
32-24,14351566,-84
32-25,14355472,-90
32-26,14359378,-82
32-27,14363284,-61
32-28,14367190,-42
32-29,14371096,-35
32-30,14375002,-57
32-31,14378908,-96
32-32,14382814,-120
32-1,14386726,-122
32-2,14390632,-98
32-3,14394538,-75
32-4,14398444,-72
32-5,14402350,-72
32-6,14406256,-65
32-7,14410162,-58
32-8,14414068,-49
32-9,14417974,-42
32-10,14421880,-37
32-11,14425786,-35
32-12,14429692,-36
32-13,14433598,-35
32-14,14437504,-31
32-15,14441410,-30
32-16,14445316,-42
32-17,14449222,-65
32-18,14453128,-88
32-19,14457034,-98
32-20,14460940,-93
32-21,14464846,-85
32-22,14468752,-84
32-23,14472658,-77
32-24,14476564,-71
32-25,14480470,-74
32-26,14484376,-65
32-27,14488282,-43
32-28,14492188,-13
32-29,14496094,0
32-30,14500000,-26
32-31,14503906,-71
32-32,14507812,-102
32-1,14512853,-100
32-2,14516759,-77
32-3,14520665,-57
32-4,14524571,-62
32-5,14528477,-75
32-6,14532383,-89
32-7,14536289,-98
32-8,14540195,-95
32-9,14544101,-74
32-10,14548007,-48
32-11,14551913,-28
32-12,14555819,-25
32-13,14559725,-36
32-14,14563631,-58
32-15,14567537,-76
32-16,14571443,-83
32-17,14575349,-72
32-18,14579255,-57
32-19,14583161,-46
32-20,14587067,-43
32-21,14590973,-46
32-22,14594879,-51
32-23,14598785,-44
32-24,14602691,-34
32-25,14606597,-41
32-26,14610503,-45
32-27,14614409,-27
32-28,14618315,7
32-29,14622221,37
32-30,14626127,30
32-31,14630033,-19
32-32,14633939,-76
32-1,14636721,-113
32-2,14640627,-117
32-3,14644533,-105
32-4,14648439,-108
32-5,14652345,-107
32-6,14656251,-100
32-7,14660157,-95
32-8,14664063,-87
32-9,14667969,-76
32-10,14671875,-63
32-11,14675781,-51
32-12,14679687,-48
32-13,14683593,-51
32-14,14687499,-55
32-15,14691405,-52
32-16,14695311,-43
32-17,14699217,-35
32-18,14703123,-36
32-19,14707029,-44
32-20,14710935,-54
32-21,14714841,-65
32-22,14718747,-76
32-23,14722653,-78
32-24,14726559,-82
32-25,14730465,-100
32-26,14734371,-109
32-27,14738277,-86
32-28,14742183,-42
32-29,14746089,-7
32-30,14749995,-12
32-31,14753901,-46
32-32,14757807,-74
32-1,14761719,-74
32-2,14765625,-55
32-3,14769531,-37
32-4,14773437,-38
32-5,14777343,-38
32-6,14781249,-32
32-7,14785155,-30
32-8,14789061,-27
32-9,14792967,-27
32-10,14796873,-33
32-11,14800779,-39
32-12,14804685,-41
32-13,14808591,-46
32-14,14812497,-63
32-15,14816403,-86
32-16,14820309,-99
32-17,14824215,-90
32-18,14828121,-71
32-19,14832027,-53
32-20,14835933,-51
32-21,14839839,-53
32-22,14843745,-55
32-23,14847651,-52
32-24,14851557,-49
32-25,14855463,-49
32-26,14859369,-32
32-27,14863275,4
32-28,14867181,35
32-29,14871087,39
32-30,14874993,7
32-31,14878899,-42
32-32,14882805,-75
32-1,14886716,-74
32-2,14890622,-51
32-3,14894528,-37
32-4,14898434,-52
32-5,14902340,-73
32-6,14906246,-87
32-7,14910152,-88
32-8,14914058,-75
32-9,14917964,-59
32-10,14921870,-49
32-11,14925776,-50
32-12,14929682,-64
32-13,14933588,-84
32-14,14937494,-99
32-15,14941400,-100
32-16,14945306,-91
32-17,14949212,-82
32-18,14953118,-76
32-19,14957024,-72
32-20,14960930,-72
32-21,14964836,-74
32-22,14968742,-80
32-23,14972648,-76
32-24,14976554,-71
32-25,14980460,-72
32-26,14984366,-66
32-27,14988272,-54
32-28,14992178,-44
32-29,14996084,-47
32-30,14999990,-70
32-31,15003896,-92
32-32,15007802,-87
32-1,15011714,-62
32-2,15015620,-36
32-3,15019526,-24
32-4,15023432,-26
32-5,15027338,-23
32-6,15031244,-19
32-7,15035150,-24
32-8,15039056,-30
32-9,15042962,-39
32-10,15046868,-52
32-11,15050774,-64
32-12,15054680,-66
32-13,15058586,-59
32-14,15062492,-50
32-15,15066398,-41
32-16,15070304,-34
32-17,15074210,-23
32-18,15078116,-13
32-19,15082022,-10
32-20,15085928,-12
32-21,15089834,-10
32-22,15093740,-5
32-23,15097646,-3
32-24,15101552,-15
32-25,15105458,-39
32-26,15109364,-40
32-27,15113270,-12
32-28,15117176,25
32-29,15121082,47
32-30,15124988,35
32-31,15128894,7
32-32,15132800,-9
32-1,15136712,-5
32-2,15140618,12
32-3,15144524,17
32-4,15148430,0
32-5,15152336,-11
32-6,15156242,-11
32-7,15160148,-7
32-8,15164054,-6
32-9,15167960,-14
32-10,15171866,-20
32-11,15175772,-18
32-12,15179678,-17
32-13,15183584,-27
32-14,15187490,-42
32-15,15191396,-49
32-16,15195302,-44
32-17,15199208,-34
32-18,15203114,-23
32-19,15207020,-5
32-20,15210926,12
32-21,15214832,25
32-22,15218738,21
32-23,15222644,4
32-24,15226550,-28
32-25,15230456,-65
32-26,15234362,-75
32-27,15238268,-49
32-28,15242174,-6
32-29,15246080,20
32-30,15249986,5
32-31,15253892,-36
32-32,15257798,-65
32-1,15262777,-71
32-2,15266683,-57
32-3,15270589,-37
32-4,15274495,-22
32-5,15278401,-8
32-6,15282307,-1
32-7,15286213,-4
32-8,15290119,-1
32-9,15294025,4
32-10,15297931,0
32-11,15301837,-21
32-12,15305743,-41
32-13,15309649,-44
32-14,15313555,-22
32-15,15317461,7
32-16,15321367,26
32-17,15325273,31
32-18,15329179,23
32-19,15333085,10
32-20,15336991,4
32-21,15340897,6
32-22,15344803,2
32-23,15348709,-6
32-24,15352615,-23
32-25,15356521,-47
32-26,15360427,-46
32-27,15364333,-10
32-28,15368239,45
32-29,15372145,90
32-30,15376051,88
32-31,15379957,43
32-32,15383863,-6
32-1,15386707,-28
32-2,15390613,-15
32-3,15394519,3
32-4,15398425,-12
32-5,15402331,-39
32-6,15406237,-58
32-7,15410143,-68
32-8,15414049,-63
32-9,15417955,-55
32-10,15421861,-55
32-11,15425767,-63
32-12,15429673,-78
32-13,15433579,-87
32-14,15437485,-81
32-15,15441391,-65
32-16,15445297,-53
32-17,15449203,-47
32-18,15453109,-44
32-19,15457015,-33
32-20,15460921,-21
32-21,15464827,-17
32-22,15468733,-25
32-23,15472639,-36
32-24,15476545,-46
32-25,15480451,-64
32-26,15484357,-67
32-27,15488263,-36
32-28,15492169,12
32-29,15496075,40
32-30,15499981,20
32-31,15503887,-31
32-32,15507793,-68
32-1,15511705,-71
32-2,15515611,-56
32-3,15519517,-44
32-4,15523423,-55
32-5,15527329,-68
32-6,15531235,-74
32-7,15535141,-77
32-8,15539047,-69
32-9,15542953,-54
32-10,15546859,-43
32-11,15550765,-44
32-12,15554671,-53
32-13,15558577,-62
32-14,15562483,-69
32-15,15566389,-73
32-16,15570295,-76
32-17,15574201,-73
32-18,15578107,-68
32-19,15582013,-67
32-20,15585919,-66
32-21,15589825,-60
32-22,15593731,-48
32-23,15597637,-38
32-24,15601543,-46
32-25,15605449,-78
32-26,15609355,-98
32-27,15613261,-93
32-28,15617167,-69
32-29,15621073,-55
32-30,15624979,-72
32-31,15628885,-110
32-32,15632791,-133
32-1,15636702,-119
32-2,15640608,-78
32-3,15644514,-46
32-4,15648420,-48
32-5,15652326,-56
32-6,15656232,-47
32-7,15660138,-21
32-8,15664044,6
32-9,15667950,14
32-10,15671856,3
32-11,15675762,-16
32-12,15679668,-31
32-13,15683574,-44
32-14,15687480,-52
32-15,15691386,-51
32-16,15695292,-46
32-17,15699198,-37
32-18,15703104,-33
32-19,15707010,-33
32-20,15710916,-31
32-21,15714822,-29
32-22,15718728,-34
32-23,15722634,-35
32-24,15726540,-37
32-25,15730446,-49
32-26,15734352,-47
32-27,15738258,-24
32-28,15742164,9
32-29,15746070,25
32-30,15749976,5
32-31,15753882,-25
32-32,15757788,-34
32-1,15761700,-23
32-2,15765606,-8
32-3,15769512,-6
32-4,15773418,-17
32-5,15777324,-18
32-6,15781230,-18
32-7,15785136,-29
32-8,15789042,-40
32-9,15792948,-45
32-10,15796854,-41
32-11,15800760,-41
32-12,15804666,-51
32-13,15808572,-66
32-14,15812478,-75
32-15,15816384,-75
32-16,15820290,-67
32-17,15824196,-55
32-18,15828102,-50
32-19,15832008,-50
32-20,15835914,-47
32-21,15839820,-34
32-22,15843726,-22
32-23,15847632,-12
32-24,15851538,-17
32-25,15855444,-34
32-26,15859350,-34
32-27,15863256,-11
32-28,15867162,20
32-29,15871068,33
32-30,15874974,3
32-31,15878880,-54
32-32,15882786,-100
32-1,15886697,-115
32-2,15890603,-100
32-3,15894509,-85
32-4,15898415,-95
32-5,15902321,-100
32-6,15906227,-94
32-7,15910133,-77
32-8,15914039,-63
32-9,15917945,-63
32-10,15921851,-67
32-11,15925757,-68
32-12,15929663,-65
32-13,15933569,-60
32-14,15937475,-58
32-15,15941381,-57
32-16,15945287,-59
32-17,15949193,-66
32-18,15953099,-78
32-19,15957005,-90
32-20,15960911,-94
32-21,15964817,-81
32-22,15968723,-61
32-23,15972629,-40
32-24,15976535,-42
32-25,15980441,-66
32-26,15984347,-71
32-27,15988253,-45
32-28,15992159,-8
32-29,15996065,-3
32-30,15999971,-46
32-31,16003877,-100
32-32,16007783,-126
32-1,16013007,-115
32-2,16016913,-85
32-3,16020819,-66
32-4,16024725,-67
32-5,16028631,-69
32-6,16032537,-70
32-7,16036443,-61
32-8,16040349,-35
32-9,16044255,-10
32-10,16048161,-4
32-11,16052067,-20
32-12,16055973,-40
32-13,16059879,-49
32-14,16063785,-48
32-15,16067691,-43
32-16,16071597,-31
32-17,16075503,-15
32-18,16079409,-8
32-19,16083315,-14
32-20,16087221,-32
32-21,16091127,-44
32-22,16095033,-46
32-23,16098939,-44
32-24,16102845,-53
32-25,16106751,-90
32-26,16110657,-112
32-27,16114563,-96
32-28,16118469,-52
32-29,16122375,-15
32-30,16126281,-23
32-31,16130187,-77
32-32,16134093,-127
32-1,16136693,-138
32-2,16140599,-104
32-3,16144505,-56
32-4,16148411,-35
32-5,16152317,-28
32-6,16156223,-29
32-7,16160129,-46
32-8,16164035,-64
32-9,16167941,-70
32-10,16171847,-58
32-11,16175753,-41
32-12,16179659,-30
32-13,16183565,-33
32-14,16187471,-37
32-15,16191377,-35
32-16,16195283,-35
32-17,16199189,-44
32-18,16203095,-57
32-19,16207001,-60
32-20,16210907,-52
32-21,16214813,-39
32-22,16218719,-28
32-23,16222625,-11
32-24,16226531,6
32-25,16230437,-2
32-26,16234343,-14
32-27,16238249,-4
32-28,16242155,18
32-29,16246061,33
32-30,16249967,8
32-31,16253873,-47
32-32,16257779,-99
32-1,16261690,-131
32-2,16265596,-140
32-3,16269502,-128
32-4,16273408,-108
32-5,16277314,-74
32-6,16281220,-46
32-7,16285126,-43
32-8,16289032,-56
32-9,16292938,-65
32-10,16296844,-71
32-11,16300750,-75
32-12,16304656,-80
32-13,16308562,-81
32-14,16312468,-79
32-15,16316374,-77
32-16,16320280,-76
32-17,16324186,-72
32-18,16328092,-68
32-19,16331998,-67
32-20,16335904,-71
32-21,16339810,-71
32-22,16343716,-68
32-23,16347622,-58
32-24,16351528,-51
32-25,16355434,-59
32-26,16359340,-58
32-27,16363246,-37
32-28,16367152,-4
32-29,16371058,22
32-30,16374964,16
32-31,16378870,-15
32-32,16382776,-38
32-1,16386688,-37
32-2,16390594,-18
32-3,16394500,-5
32-4,16398406,-19
32-5,16402312,-43
32-6,16406218,-61
32-7,16410124,-69
32-8,16414030,-69
32-9,16417936,-64
32-10,16421842,-57
32-11,16425748,-57
32-12,16429654,-70
32-13,16433560,-92
32-14,16437466,-107
32-15,16441372,-103
32-16,16445278,-86
32-17,16449184,-73
32-18,16453090,-71
32-19,16456996,-79
32-20,16460902,-90
32-21,16464808,-98
32-22,16468714,-101
32-23,16472620,-88
32-24,16476526,-73
32-25,16480432,-76
32-26,16484338,-76
32-27,16488244,-60
32-28,16492150,-23
32-29,16496056,12
32-30,16499962,16
32-31,16503868,-8
32-32,16507774,-32
32-1,16511686,-43
32-2,16515592,-40
32-3,16519498,-36
32-4,16523404,-39
32-5,16527310,-37
32-6,16531216,-37
32-7,16535122,-40
32-8,16539028,-39
32-9,16542934,-34
32-10,16546840,-31
32-11,16550746,-38
32-12,16554652,-41
32-13,16558558,-30
32-14,16562464,-10
32-15,16566370,4
32-16,16570276,-1
32-17,16574182,-16
32-18,16578088,-28
32-19,16581994,-31
32-20,16585900,-25
32-21,16589806,-11
32-22,16593712,-4
32-23,16597618,1
32-24,16601524,0
32-25,16605430,-10
32-26,16609336,-1
32-27,16613242,26
32-28,16617148,54
32-29,16621054,64
32-30,16624960,44
32-31,16628866,8
32-32,16632772,-22
32-1,16636683,-33
32-2,16640589,-29
32-3,16644495,-31
32-4,16648401,-52
32-5,16652307,-72
32-6,16656213,-82
32-7,16660119,-84
32-8,16664025,-84
32-9,16667931,-89
32-10,16671837,-93
32-11,16675743,-89
32-12,16679649,-79
32-13,16683555,-66
32-14,16687461,-57
32-15,16691367,-52
32-16,16695273,-55
32-17,16699179,-59
32-18,16703085,-60
32-19,16706991,-55
32-20,16710897,-46
32-21,16714803,-43
32-22,16718709,-42
32-23,16722615,-33
32-24,16726521,-34
32-25,16730427,-56
32-26,16734333,-73
32-27,16738239,-66
32-28,16742145,-36
32-29,16746051,-7
32-30,16749957,-9
32-31,16753863,-30
32-32,16757769,-43
32-1,16763024,-36
32-2,16766930,-14
32-3,16770836,5
32-4,16774742,9
32-5,16778648,11
32-6,16782554,3
32-7,16786460,-8
32-8,16790366,-11
32-9,16794272,-7
32-10,16798178,-9
32-11,16802084,-22
32-12,16805990,-33
32-13,16809896,-37
32-14,16813802,-36
32-15,16817708,-38
32-16,16821614,-39
32-17,16825520,-39
32-18,16829426,-39
32-19,16833332,-40
32-20,16837238,-42
32-21,16841144,-34
32-22,16845050,-22
32-23,16848956,-11
32-24,16852862,-12
32-25,16856768,-31
32-26,16860674,-29
32-27,16864580,3
32-28,16868486,46
32-29,16872392,67
32-30,16876298,38
32-31,16880204,-23
32-32,16884110,-73
32-1,16886678,-85
32-2,16890584,-63
32-3,16894490,-43
32-4,16898396,-50
32-5,16902302,-57
32-6,16906208,-51
32-7,16910114,-39
32-8,16914020,-26
32-9,16917926,-21
32-10,16921832,-20
32-11,16925738,-29
32-12,16929644,-45
32-13,16933550,-62
32-14,16937456,-70
32-15,16941362,-70
32-16,16945268,-69
32-17,16949174,-77
32-18,16953080,-85
32-19,16956986,-76
32-20,16960892,-55
32-21,16964798,-31
32-22,16968704,-19
32-23,16972610,-9
32-24,16976516,-1
32-25,16980422,-8
32-26,16984328,-12
32-27,16988234,5
32-28,16992140,35
32-29,16996046,57
32-30,16999952,39
32-31,17003858,-8
32-32,17007764,-41
32-1,17011676,-41
32-2,17015582,-16
32-3,17019488,2
32-4,17023394,-11
32-5,17027300,-28
32-6,17031206,-37
32-7,17035112,-43
32-8,17039018,-37
32-9,17042924,-33
32-10,17046830,-35
32-11,17050736,-35
32-12,17054642,-28
32-13,17058548,-13
32-14,17062454,-1
32-15,17066360,1
32-16,17070266,1
32-17,17074172,9
32-18,17078078,19
32-19,17081984,18
32-20,17085890,3
32-21,17089796,-14
32-22,17093702,-27
32-23,17097608,-30
32-24,17101514,-39
32-25,17105420,-60
32-26,17109326,-69
32-27,17113232,-57
32-28,17117138,-29
32-29,17121044,-4
32-30,17124950,-5
32-31,17128856,-26
32-32,17132762,-37
32-1,17136674,-24
32-2,17140580,14
32-3,17144486,45
32-4,17148392,37
32-5,17152298,12
32-6,17156204,-6
32-7,17160110,-8
32-8,17164016,2
32-9,17167922,4
32-10,17171828,-3
32-11,17175734,-12
32-12,17179640,-15
32-13,17183546,-6
32-14,17187452,15
32-15,17191358,37
32-16,17195264,51
32-17,17199170,51
32-18,17203076,42
32-19,17206982,31
32-20,17210888,24
32-21,17214794,25
32-22,17218700,24
32-23,17222606,19
32-24,17226512,-2
32-25,17230418,-40
32-26,17234324,-61
32-27,17238230,-49
32-28,17242136,-21
32-29,17246042,-18
32-30,17249948,-61
32-31,17253854,-120
32-32,17257760,-149
32-1,17261732,-140
32-2,17265638,-111
32-3,17269544,-88
32-4,17273450,-76
32-5,17277356,-59
32-6,17281262,-40
32-7,17285168,-29
32-8,17289074,-25
32-9,17292980,-33
32-10,17296886,-51
32-11,17300792,-73
32-12,17304698,-82
32-13,17308604,-75
32-14,17312510,-58
32-15,17316416,-46
32-16,17320322,-41
32-17,17324228,-36
32-18,17328134,-29
32-19,17332040,-29
32-20,17335946,-36
32-21,17339852,-44
32-22,17343758,-47
32-23,17347664,-40
32-24,17351570,-35
32-25,17355476,-46
32-26,17359382,-55
32-27,17363288,-53
32-28,17367194,-37
32-29,17371100,-19
32-30,17375006,-22
32-31,17378912,-50
32-32,17382818,-76
32-1,17386669,-82
32-2,17390575,-62
32-3,17394481,-45
32-4,17398387,-51
32-5,17402293,-59
32-6,17406199,-53
32-7,17410105,-35
32-8,17414011,-16
32-9,17417917,-16
32-10,17421823,-31
32-11,17425729,-50
32-12,17429635,-67
32-13,17433541,-77
32-14,17437447,-78
32-15,17441353,-65
32-16,17445259,-44
32-17,17449165,-32
32-18,17453071,-36
32-19,17456977,-54
32-20,17460883,-76
32-21,17464789,-84
32-22,17468695,-70
32-23,17472601,-39
32-24,17476507,-22
32-25,17480413,-41
32-26,17484319,-63
32-27,17488225,-58
32-28,17492131,-28
32-29,17496037,-6
32-30,17499943,-19
32-31,17503849,-54
32-32,17507755,-77
32-1,17512948,-72
32-2,17516854,-49
32-3,17520760,-33
32-4,17524666,-38
32-5,17528572,-46
32-6,17532478,-60
32-7,17536384,-76
32-8,17540290,-82
32-9,17544196,-76
32-10,17548102,-72
32-11,17552008,-76
32-12,17555914,-84
32-13,17559820,-86
32-14,17563726,-83
32-15,17567632,-82
32-16,17571538,-84
32-17,17575444,-88
32-18,17579350,-95
32-19,17583256,-99
32-20,17587162,-98
32-21,17591068,-94
32-22,17594974,-94
32-23,17598880,-94
32-24,17602786,-100
32-25,17606692,-116
32-26,17610598,-114
32-27,17614504,-80
32-28,17618410,-29
32-29,17622316,14
32-30,17626222,18
32-31,17630128,-14
32-32,17634034,-51
32-1,17636664,-61
32-2,17640570,-39
32-3,17644476,-8
32-4,17648382,2
32-5,17652288,6
32-6,17656194,11
32-7,17660100,6
32-8,17664006,-7
32-9,17667912,-20
32-10,17671818,-31
32-11,17675724,-33
32-12,17679630,-29
32-13,17683536,-23
32-14,17687442,-13
32-15,17691348,1
32-16,17695254,11
32-17,17699160,15
32-18,17703066,13
32-19,17706972,15
32-20,17710878,16
32-21,17714784,13
32-22,17718690,10
32-23,17722596,13
32-24,17726502,15
32-25,17730408,-5
32-26,17734314,-29
32-27,17738220,-31
32-28,17742126,-16
32-29,17746032,-7
32-30,17749938,-29
32-31,17753844,-72
32-32,17757750,-96
32-1,17761662,-88
32-2,17765568,-65
32-3,17769474,-46
32-4,17773380,-40
32-5,17777286,-32
32-6,17781192,-21
32-7,17785098,-22
32-8,17789004,-26
32-9,17792910,-30
32-10,17796816,-38
32-11,17800722,-51
32-12,17804628,-58
32-13,17808534,-51
32-14,17812440,-37
32-15,17816346,-24
32-16,17820252,-18
32-17,17824158,-18
32-18,17828064,-13
32-19,17831970,-8
32-20,17835876,-4
32-21,17839782,0
32-22,17843688,-7
32-23,17847594,-23
32-24,17851500,-55
32-25,17855406,-94
32-26,17859312,-103
32-27,17863218,-78
32-28,17867124,-34
32-29,17871030,2
32-30,17874936,2
32-31,17878842,-30
32-32,17882748,-65
32-1,17886782,-80
32-2,17890688,-67
32-3,17894594,-50
32-4,17898500,-47
32-5,17902406,-47
32-6,17906312,-52
32-7,17910218,-62
32-8,17914124,-76
32-9,17918030,-89
32-10,17921936,-92
32-11,17925842,-85
32-12,17929748,-74
32-13,17933654,-66
32-14,17937560,-58
32-15,17941466,-49
32-16,17945372,-36
32-17,17949278,-30
32-18,17953184,-31
32-19,17957090,-36
32-20,17960996,-48
32-21,17964902,-69
32-22,17968808,-92
32-23,17972714,-103
32-24,17976620,-111
32-25,17980526,-125
32-26,17984432,-130
32-27,17988338,-115
32-28,17992244,-82
32-29,17996150,-51
32-30,18000056,-48
32-31,18003962,-69
32-32,18007868,-92
32-1,18011657,-100
32-2,18015563,-87
32-3,18019469,-72
32-4,18023375,-68
32-5,18027281,-67
32-6,18031187,-76
32-7,18035093,-91
32-8,18038999,-99
32-9,18042905,-98
32-10,18046811,-94
32-11,18050717,-85
32-12,18054623,-74
32-13,18058529,-55
32-14,18062435,-38
32-15,18066341,-30
32-16,18070247,-30
32-17,18074153,-34
32-18,18078059,-37
32-19,18081965,-38
32-20,18085871,-44
32-21,18089777,-49
32-22,18093683,-57
32-23,18097589,-55
32-24,18101495,-44
32-25,18105401,-32
32-26,18109307,-11
32-27,18113213,15
32-28,18117119,36
32-29,18121025,47
32-30,18124931,34
32-31,18128837,6
32-32,18132743,-14
32-1,18136655,-16
32-2,18140561,0
32-3,18144467,10
32-4,18148373,1
32-5,18152279,-14
32-6,18156185,-27
32-7,18160091,-36
32-8,18163997,-43
32-9,18167903,-47
32-10,18171809,-44
32-11,18175715,-35
32-12,18179621,-30
32-13,18183527,-37
32-14,18187433,-49
32-15,18191339,-57
32-16,18195245,-62
32-17,18199151,-72
32-18,18203057,-85
32-19,18206963,-95
32-20,18210869,-100
32-21,18214775,-96
32-22,18218681,-85
32-23,18222587,-61
32-24,18226493,-35
32-25,18230399,-22
32-26,18234305,-5
32-27,18238211,16
32-28,18242117,36
32-29,18246023,34
32-30,18249929,-7
32-31,18253835,-66
32-32,18257741,-103
32-1,18262782,-105
32-2,18266688,-82
32-3,18270594,-60
32-4,18274500,-55
32-5,18278406,-48
32-6,18282312,-42
32-7,18286218,-39
32-8,18290124,-39
32-9,18294030,-45
32-10,18297936,-56
32-11,18301842,-67
32-12,18305748,-67
32-13,18309654,-57
32-14,18313560,-47
32-15,18317466,-44
32-16,18321372,-46
32-17,18325278,-49
32-18,18329184,-55
32-19,18333090,-64
32-20,18336996,-67
32-21,18340902,-55
32-22,18344808,-38
32-23,18348714,-28
32-24,18352620,-38
32-25,18356526,-71
32-26,18360432,-81
32-27,18364338,-49
32-28,18368244,9
32-29,18372150,48
32-30,18376056,27
32-31,18379962,-46
32-32,18383868,-114
32-1,18386650,-132
32-2,18390556,-100
32-3,18394462,-58
32-4,18398368,-49
32-5,18402274,-58
32-6,18406180,-69
32-7,18410086,-78
32-8,18413992,-86
32-9,18417898,-97
32-10,18421804,-97
32-11,18425710,-81
32-12,18429616,-62
32-13,18433522,-53
32-14,18437428,-54
32-15,18441334,-59
32-16,18445240,-59
32-17,18449146,-58
32-18,18453052,-57
32-19,18456958,-52
32-20,18460864,-44
32-21,18464770,-34
32-22,18468676,-29
32-23,18472582,-24
32-24,18476488,-20
32-25,18480394,-34
32-26,18484300,-43
32-27,18488206,-26
32-28,18492112,14
32-29,18496018,51
32-30,18499924,51
32-31,18503830,17
32-32,18507736,-13
32-1,18511800,-21
32-2,18515706,-11
32-3,18519612,-2
32-4,18523518,-9
32-5,18527424,-11
32-6,18531330,-3
32-7,18535236,5
32-8,18539142,16
32-9,18543048,18
32-10,18546954,8
32-11,18550860,-10
32-12,18554766,-23
32-13,18558672,-26
32-14,18562578,-23
32-15,18566484,-24
32-16,18570390,-27
32-17,18574296,-23
32-18,18578202,-13
32-19,18582108,-2
32-20,18586014,4
32-21,18589920,7
32-22,18593826,7
32-23,18597732,9
32-24,18601638,6
32-25,18605544,-3
32-26,18609450,0
32-27,18613356,18
32-28,18617262,40
32-29,18621168,47
32-30,18625074,33
32-31,18628980,9
32-32,18632886,-7
32-1,18636645,-10
32-2,18640551,-4
32-3,18644457,-3
32-4,18648363,-17
32-5,18652269,-22
32-6,18656175,-11
32-7,18660081,4
32-8,18663987,13
32-9,18667893,15
32-10,18671799,20
32-11,18675705,29
32-12,18679611,33
32-13,18683517,26
32-14,18687423,12
32-15,18691329,-6
32-16,18695235,-27
32-17,18699141,-48
32-18,18703047,-67
32-19,18706953,-76
32-20,18710859,-80
32-21,18714765,-82
32-22,18718671,-82
32-23,18722577,-71
32-24,18726483,-60
32-25,18730389,-70
32-26,18734295,-86
32-27,18738201,-90
32-28,18742107,-78
32-29,18746013,-69
32-30,18749919,-85
32-31,18753825,-115
32-32,18757731,-131
32-1,18761643,-124
32-2,18765549,-103
32-3,18769455,-76
32-4,18773361,-55
32-5,18777267,-33
32-6,18781173,-25
32-7,18785079,-38
32-8,18788985,-52
32-9,18792891,-53
32-10,18796797,-45
32-11,18800703,-40
32-12,18804609,-41
32-13,18808515,-43
32-14,18812421,-41
32-15,18816327,-41
32-16,18820233,-44
32-17,18824139,-40
32-18,18828045,-27
32-19,18831951,-12
32-20,18835857,-1
32-21,18839763,5
32-22,18843669,-3
32-23,18847575,-15
32-24,18851481,-31
32-25,18855387,-45
32-26,18859293,-34
32-27,18863199,-10
32-28,18867105,4
32-29,18871011,-12
32-30,18874917,-64
32-31,18878823,-122
32-32,18882729,-145
32-1,18886641,-127
32-2,18890547,-84
32-3,18894453,-47
32-4,18898359,-38
32-5,18902265,-34
32-6,18906171,-22
32-7,18910077,-1
32-8,18913983,18
32-9,18917889,22
32-10,18921795,15
32-11,18925701,2
32-12,18929607,-10
32-13,18933513,-20
32-14,18937419,-22
32-15,18941325,-13
32-16,18945231,-7
32-17,18949137,-12
32-18,18953043,-21
32-19,18956949,-29
32-20,18960855,-35
32-21,18964761,-47
32-22,18968667,-71
32-23,18972573,-85
32-24,18976479,-88
32-25,18980385,-95
32-26,18984291,-85
32-27,18988197,-59
32-28,18992103,-28
32-29,18996009,-19
32-30,18999915,-52
32-31,19003821,-102
32-32,19007727,-125
32-1,19012828,-111
32-2,19016734,-78
32-3,19020640,-55
32-4,19024546,-53
32-5,19028452,-50
32-6,19032358,-43
32-7,19036264,-36
32-8,19040170,-28
32-9,19044076,-27
32-10,19047982,-42
32-11,19051888,-69
32-12,19055794,-89
32-13,19059700,-91
32-14,19063606,-80
32-15,19067512,-74
32-16,19071418,-78
32-17,19075324,-88
32-18,19079230,-97
32-19,19083136,-101
32-20,19087042,-99
32-21,19090948,-87
32-22,19094854,-75
32-23,19098760,-59
32-24,19102666,-46
32-25,19106572,-53
32-26,19110478,-53
32-27,19114384,-31
32-28,19118290,4
32-29,19122196,34
32-30,19126102,27
32-31,19130008,-18
32-32,19133914,-64
32-1,19136788,-82
32-2,19140694,-68
32-3,19144600,-44
32-4,19148506,-38
32-5,19152412,-29
32-6,19156318,-16
32-7,19160224,-17
32-8,19164130,-32
32-9,19168036,-57
32-10,19171942,-71
32-11,19175848,-71
32-12,19179754,-68
32-13,19183660,-72
32-14,19187566,-75
32-15,19191472,-69
32-16,19195378,-58
32-17,19199284,-54
32-18,19203190,-62
32-19,19207096,-68
32-20,19211002,-71
32-21,19214908,-73
32-22,19218814,-72
32-23,19222720,-64
32-24,19226626,-53
32-25,19230532,-61
32-26,19234438,-72
32-27,19238344,-66
32-28,19242250,-42
32-29,19246156,-20
32-30,19250062,-23
32-31,19253968,-43
32-32,19257874,-55
32-1,19261633,-56
32-2,19265539,-55
32-3,19269445,-61
32-4,19273351,-68
32-5,19277257,-54
32-6,19281163,-31
32-7,19285069,-27
32-8,19288975,-33
32-9,19292881,-35
32-10,19296787,-24
32-11,19300693,-11
32-12,19304599,-10
32-13,19308505,-22
32-14,19312411,-33
32-15,19316317,-37
32-16,19320223,-26
32-17,19324129,-11
32-18,19328035,-3
32-19,19331941,-3
32-20,19335847,-3
32-21,19339753,7
32-22,19343659,21
32-23,19347565,32
32-24,19351471,23
32-25,19355377,-7
32-26,19359283,-20
32-27,19363189,-6
32-28,19367095,18
32-29,19371001,27
32-30,19374907,7
32-31,19378813,-20
32-32,19382719,-35
32-1,19386631,-31
32-2,19390537,-19
32-3,19394443,-15
32-4,19398349,-25
32-5,19402255,-28
32-6,19406161,-28
32-7,19410067,-32
32-8,19413973,-39
32-9,19417879,-47
32-10,19421785,-47
32-11,19425691,-43
32-12,19429597,-41
32-13,19433503,-40
32-14,19437409,-37
32-15,19441315,-28
32-16,19445221,-21
32-17,19449127,-27
32-18,19453033,-46
32-19,19456939,-64
32-20,19460845,-64
32-21,19464751,-42
32-22,19468657,-13
32-23,19472563,10
32-24,19476469,12
32-25,19480375,-10
32-26,19484281,-23
32-27,19488187,-11
32-28,19492093,12
32-29,19495999,17
32-30,19499905,-12
32-31,19503811,-54
32-32,19507717,-76
32-1,19511629,-72
32-2,19515535,-52
32-3,19519441,-34
32-4,19523347,-27
32-5,19527253,-25
32-6,19531159,-32
32-7,19535065,-35
32-8,19538971,-19
32-9,19542877,18
32-10,19546783,49
32-11,19550689,47
32-12,19554595,17
32-13,19558501,-21
32-14,19562407,-48
32-15,19566313,-60
32-16,19570219,-65
32-17,19574125,-57
32-18,19578031,-33
32-19,19581937,-4
32-20,19585843,15
32-21,19589749,19
32-22,19593655,11
32-23,19597561,4
32-24,19601467,-4
32-25,19605373,-27
32-26,19609279,-43
32-27,19613185,-41
32-28,19617091,-21
32-29,19620997,4
32-30,19624903,6
32-31,19628809,-16
32-32,19632715,-38
32-1,19636626,-48
32-2,19640532,-41
32-3,19644438,-32
32-4,19648344,-38
32-5,19652250,-42
32-6,19656156,-42
32-7,19660062,-41
32-8,19663968,-43
32-9,19667874,-54
32-10,19671780,-67
32-11,19675686,-74
32-12,19679592,-74
32-13,19683498,-71
32-14,19687404,-62
32-15,19691310,-52
32-16,19695216,-45
32-17,19699122,-47
32-18,19703028,-52
32-19,19706934,-54
32-20,19710840,-54
32-21,19714746,-57
32-22,19718652,-66
32-23,19722558,-71
32-24,19726464,-79
32-25,19730370,-97
32-26,19734276,-104
32-27,19738182,-84
32-28,19742088,-50
32-29,19745994,-31
32-30,19749900,-51
32-31,19753806,-91
32-32,19757712,-114
32-1,19763058,-103
32-2,19766964,-68
32-3,19770870,-39
32-4,19774776,-30
32-5,19778682,-27
32-6,19782588,-27
32-7,19786494,-33
32-8,19790400,-36
32-9,19794306,-44
32-10,19798212,-62
32-11,19802118,-81
32-12,19806024,-88
32-13,19809930,-73
32-14,19813836,-49
32-15,19817742,-37
32-16,19821648,-35
32-17,19825554,-38
32-18,19829460,-39
32-19,19833366,-36
32-20,19837272,-35
32-21,19841178,-32
32-22,19845084,-29
32-23,19848990,-31
32-24,19852896,-43
32-25,19856802,-67
32-26,19860708,-66
32-27,19864614,-27
32-28,19868520,26
32-29,19872426,53
32-30,19876332,28
32-31,19880238,-38
32-32,19884144,-100
32-1,19886622,-125
32-2,19890528,-113
32-3,19894434,-98
32-4,19898340,-110
32-5,19902246,-127
32-6,19906152,-135
32-7,19910058,-130
32-8,19913964,-114
32-9,19917870,-98
32-10,19921776,-84
32-11,19925682,-81
32-12,19929588,-90
32-13,19933494,-110
32-14,19937400,-131
32-15,19941306,-136
32-16,19945212,-132
32-17,19949118,-130
32-18,19953024,-142
32-19,19956930,-161
32-20,19960836,-173
32-21,19964742,-176
32-22,19968648,-175
32-23,19972554,-174
32-24,19976460,-182
32-25,19980366,-209
32-26,19984272,-227
32-27,19988178,-205
32-28,19992084,-155
32-29,19995990,-115
32-30,19999896,-123
32-31,20003802,-170
32-32,20007708,-213
32-1,20011619,-231
32-2,20015525,-225
32-3,20019431,-207
32-4,20023337,-195
32-5,20027243,-185
32-6,20031149,-177
32-7,20035055,-185
32-8,20038961,-191
32-9,20042867,-186
32-10,20046773,-172
32-11,20050679,-162
32-12,20054585,-156
32-13,20058491,-149
32-14,20062397,-139
32-15,20066303,-132
32-16,20070209,-123
32-17,20074115,-101
32-18,20078021,-70
32-19,20081927,-42
32-20,20085833,-26
32-21,20089739,-16
32-22,20093645,-6
32-23,20097551,12
32-24,20101457,24
32-25,20105363,26
32-26,20109269,37
32-27,20113175,60
32-28,20117081,83
32-29,20120987,94
32-30,20124893,85
32-31,20128799,60
32-32,20132705,36
32-1,20136617,26
32-2,20140523,43
32-3,20144429,65
32-4,20148335,70
32-5,20152241,63
32-6,20156147,51
32-7,20160053,43
32-8,20163959,45
32-9,20167865,53
32-10,20171771,66
32-11,20175677,81
32-12,20179583,92
32-13,20183489,89
32-14,20187395,81
32-15,20191301,81
32-16,20195207,90
32-17,20199113,97
32-18,20203019,94
32-19,20206925,89
32-20,20210831,87
32-21,20214737,86
32-22,20218643,79
32-23,20222549,79
32-24,20226455,80
32-25,20230361,68
32-26,20234267,58
32-27,20238173,60
32-28,20242079,76
32-29,20245985,79
32-30,20249891,40
32-31,20253797,-25
32-32,20257703,-71
32-1,20261615,-85
32-2,20265521,-80
32-3,20269427,-83
32-4,20273333,-101
32-5,20277239,-105
32-6,20281145,-100
32-7,20285051,-94
32-8,20288957,-85
32-9,20292863,-73
32-10,20296769,-67
32-11,20300675,-71
32-12,20304581,-70
32-13,20308487,-54
32-14,20312393,-31
32-15,20316299,-15
32-16,20320205,-6
32-17,20324111,5
32-18,20328017,17
32-19,20331923,19
32-20,20335829,10
32-21,20339735,10
32-22,20343641,23
32-23,20347547,36
32-24,20351453,23
32-25,20355359,-19
32-26,20359265,-40
32-27,20363171,-24
32-28,20367077,6
32-29,20370983,25
32-30,20374889,17
32-31,20378795,-17
32-32,20382701,-58
32-1,20386612,-81
32-2,20390518,-69
32-3,20394424,-39
32-4,20398330,-27
32-5,20402236,-30
32-6,20406142,-42
32-7,20410048,-49
32-8,20413954,-47
32-9,20417860,-46
32-10,20421766,-34
32-11,20425672,-7
32-12,20429578,18
32-13,20433484,21
32-14,20437390,3
32-15,20441296,-5
32-16,20445202,11
32-17,20449108,28
32-18,20453014,29
32-19,20456920,28
32-20,20460826,35
32-21,20464732,44
32-22,20468638,43
32-23,20472544,43
32-24,20476450,46
32-25,20480356,39
32-26,20484262,29
32-27,20488168,26
32-28,20492074,34
32-29,20495980,37
32-30,20499886,4
32-31,20503792,-54
32-32,20507698,-90
32-1,20513105,-88
32-2,20517011,-63
32-3,20520917,-42
32-4,20524823,-34
32-5,20528729,-18
32-6,20532635,-12
32-7,20536541,-25
32-8,20540447,-41
32-9,20544353,-41
32-10,20548259,-28
32-11,20552165,-20
32-12,20556071,-22
32-13,20559977,-20
32-14,20563883,-16
32-15,20567789,-23
32-16,20571695,-39
32-17,20575601,-49
32-18,20579507,-50
32-19,20583413,-56
32-20,20587319,-72
32-21,20591225,-77
32-22,20595131,-68
32-23,20599037,-50
32-24,20602943,-45
32-25,20606849,-62
32-26,20610755,-60
32-27,20614661,-30
32-28,20618567,3
32-29,20622473,8
32-30,20626379,-32
32-31,20630285,-103
32-32,20634191,-167
32-1,20636607,-193
32-2,20640513,-167
32-3,20644419,-122
32-4,20648325,-114
32-5,20652231,-131
32-6,20656137,-147
32-7,20660043,-150
32-8,20663949,-144
32-9,20667855,-142
32-10,20671761,-136
32-11,20675667,-116
32-12,20679573,-101
32-13,20683479,-107
32-14,20687385,-123
32-15,20691291,-124
32-16,20695197,-106
32-17,20699103,-95
32-18,20703009,-95
32-19,20706915,-88
32-20,20710821,-69
32-21,20714727,-56
32-22,20718633,-68
32-23,20722539,-87
32-24,20726445,-95
32-25,20730351,-106
32-26,20734257,-102
32-27,20738163,-63
32-28,20742069,8
32-29,20745975,68
32-30,20749881,61
32-31,20753787,3
32-32,20757693,-50
32-1,20761605,-67
32-2,20765511,-69
32-3,20769417,-67
32-4,20773323,-61
32-5,20777229,-25
32-6,20781135,20
32-7,20785041,45
32-8,20788947,58
32-9,20792853,72
32-10,20796759,80
32-11,20800665,70
32-12,20804571,47
32-13,20808477,35
32-14,20812383,30
32-15,20816289,16
32-16,20820195,-6
32-17,20824101,-15
32-18,20828007,-5
32-19,20831913,5
32-20,20835819,4
32-21,20839725,15
32-22,20843631,42
32-23,20847537,69
32-24,20851443,67
32-25,20855349,38
32-26,20859255,32
32-27,20863161,53
32-28,20867067,76
32-29,20870973,83
32-30,20874879,72
32-31,20878785,55
32-32,20882691,44
32-1,20886603,38
32-2,20890509,37
32-3,20894415,32
32-4,20898321,9
32-5,20902227,-6
32-6,20906133,6
32-7,20910039,48
32-8,20913945,94
32-9,20917851,116
32-10,20921757,116
32-11,20925663,115
32-12,20929569,115
32-13,20933475,109
32-14,20937381,105
32-15,20941287,115
32-16,20945193,134
32-17,20949099,144
32-18,20953005,150
32-19,20956911,165
32-20,20960817,188
32-21,20964723,192
32-22,20968629,168
32-23,20972535,146
32-24,20976441,140
32-25,20980347,135
32-26,20984253,121
32-27,20988159,114
32-28,20992065,132
32-29,20995971,154
32-30,20999877,141
32-31,21003783,93
32-32,21007689,51
32-1,21011600,43
32-2,21015506,59
32-3,21019412,64
32-4,21023318,50
32-5,21027224,37
32-6,21031130,24
32-7,21035036,12
32-8,21038942,10
32-9,21042848,21
32-10,21046754,30
32-11,21050660,31
32-12,21054566,37
32-13,21058472,60
32-14,21062378,83
32-15,21066284,80
32-16,21070190,60
32-17,21074096,51
32-18,21078002,65
32-19,21081908,84
32-20,21085814,92
32-21,21089720,96
32-22,21093626,100
32-23,21097532,97
32-24,21101438,74
32-25,21105344,40
32-26,21109250,31
32-27,21113156,50
32-28,21117062,75
32-29,21120968,85
32-30,21124874,74
32-31,21128780,45
32-32,21132686,5
32-1,21136598,-27
32-2,21140504,-32
32-3,21144410,-13
32-4,21148316,-1
32-5,21152222,5
32-6,21156128,11
32-7,21160034,21
32-8,21163940,25
32-9,21167846,14
32-10,21171752,6
32-11,21175658,18
32-12,21179564,41
32-13,21183470,58
32-14,21187376,68
32-15,21191282,83
32-16,21195188,99
32-17,21199094,96
32-18,21203000,72
32-19,21206906,46
32-20,21210812,27
32-21,21214718,4
32-22,21218624,-21
32-23,21222530,-28
32-24,21226436,-13
32-25,21230342,-8
32-26,21234248,-8
32-27,21238154,9
32-28,21242060,58
32-29,21245966,109
32-30,21249872,112
32-31,21253778,71
32-32,21257684,31
32-1,21261779,22
32-2,21265685,25
32-3,21269591,21
32-4,21273497,15
32-5,21277403,32
32-6,21281309,49
32-7,21285215,49
32-8,21289121,44
32-9,21293027,48
32-10,21296933,47
32-11,21300839,25
32-12,21304745,-3
32-13,21308651,-6
32-14,21312557,10
32-15,21316463,17
32-16,21320369,0
32-17,21324275,-20
32-18,21328181,-21
32-19,21332087,-12
32-20,21335993,-8
32-21,21339899,-3
32-22,21343805,6
32-23,21347711,13
32-24,21351617,8
32-25,21355523,-17
32-26,21359429,-23
32-27,21363335,-1
32-28,21367241,26
32-29,21371147,33
32-30,21375053,7
32-31,21378959,-38
32-32,21382865,-73
32-1,21386593,-73
32-2,21390499,-36
32-3,21394405,9
32-4,21398311,18
32-5,21402217,10
32-6,21406123,13
32-7,21410029,32
32-8,21413935,45
32-9,21417841,34
32-10,21421747,20
32-11,21425653,24
32-12,21429559,38
32-13,21433465,34
32-14,21437371,16
32-15,21441277,2
32-16,21445183,0
32-17,21449089,-3
32-18,21452995,-12
32-19,21456901,-6
32-20,21460807,17
32-21,21464713,37
32-22,21468619,33
32-23,21472525,30
32-24,21476431,48
32-25,21480337,69
32-26,21484243,84
32-27,21488149,96
32-28,21492055,112
32-29,21495961,123
32-30,21499867,108
32-31,21503773,80
32-32,21507679,69
32-1,21511591,73
32-2,21515497,71
32-3,21519403,49
32-4,21523309,14
32-5,21527215,-3
32-6,21531121,-11
32-7,21535027,-27
32-8,21538933,-36
32-9,21542839,-25
32-10,21546745,-8
32-11,21550651,-5
32-12,21554557,-10
32-13,21558463,-7
32-14,21562369,-1
32-15,21566275,-13
32-16,21570181,-38
32-17,21574087,-46
32-18,21577993,-29
32-19,21581899,-7
32-20,21585805,3
32-21,21589711,12
32-22,21593617,30
32-23,21597523,49
32-24,21601429,42
32-25,21605335,9
32-26,21609241,-7
32-27,21613147,-2
32-28,21617053,10
32-29,21620959,15
32-30,21624865,11
32-31,21628771,-4
32-32,21632677,-24
32-1,21636588,-43
32-2,21640494,-40
32-3,21644400,-24
32-4,21648306,-27
32-5,21652212,-46
32-6,21656118,-63
32-7,21660024,-60
32-8,21663930,-48
32-9,21667836,-56
32-10,21671742,-81
32-11,21675648,-99
32-12,21679554,-104
32-13,21683460,-108
32-14,21687366,-111
32-15,21691272,-97
32-16,21695178,-68
32-17,21699084,-50
32-18,21702990,-56
32-19,21706896,-72
32-20,21710802,-81
32-21,21714708,-86
32-22,21718614,-100
32-23,21722520,-106
32-24,21726426,-98
32-25,21730332,-91
32-26,21734238,-81
32-27,21738144,-60
32-28,21742050,-28
32-29,21745956,-9
32-30,21749862,-31
32-31,21753768,-82
32-32,21757674,-114
32-1,21761586,-119
32-2,21765492,-119
32-3,21769398,-132
32-4,21773304,-146
32-5,21777210,-131
32-6,21781116,-108
32-7,21785022,-102
32-8,21788928,-102
32-9,21792834,-99
32-10,21796740,-90
32-11,21800646,-91
32-12,21804552,-95
32-13,21808458,-82
32-14,21812364,-56
32-15,21816270,-40
32-16,21820176,-34
32-17,21824082,-26
32-18,21827988,-13
32-19,21831894,-11
32-20,21835800,-28
32-21,21839706,-41
32-22,21843612,-41
32-23,21847518,-38
32-24,21851424,-50
32-25,21855330,-64
32-26,21859236,-42
32-27,21863142,5
32-28,21867048,34
32-29,21870954,25
32-30,21874860,-11
32-31,21878766,-52
32-32,21882672,-86
32-1,21886584,-110
32-2,21890490,-113
32-3,21894396,-104
32-4,21898302,-112
32-5,21902208,-126
32-6,21906114,-134
32-7,21910020,-127
32-8,21913926,-120
32-9,21917832,-138
32-10,21921738,-170
32-11,21925644,-187
32-12,21929550,-184
32-13,21933456,-172
32-14,21937362,-161
32-15,21941268,-150
32-16,21945174,-140
32-17,21949080,-148
32-18,21952986,-168
32-19,21956892,-170
32-20,21960798,-151
32-21,21964704,-137
32-22,21968610,-148
32-23,21972516,-166
32-24,21976422,-176
32-25,21980328,-189
32-26,21984234,-199
32-27,21988140,-193
32-28,21992046,-164
32-29,21995952,-139
32-30,21999858,-154
32-31,22003764,-198
32-32,22007670,-230
32-1,22011795,-240
32-2,22015701,-249
32-3,22019607,-273
32-4,22023513,-293
32-5,22027419,-278
32-6,22031325,-252
32-7,22035231,-248
32-8,22039137,-260
32-9,22043043,-267
32-10,22046949,-262
32-11,22050855,-262
32-12,22054761,-263
32-13,22058667,-254
32-14,22062573,-241
32-15,22066479,-242
32-16,22070385,-259
32-17,22074291,-277
32-18,22078197,-283
32-19,22082103,-289
32-20,22086009,-294
32-21,22089915,-285
32-22,22093821,-268
32-23,22097727,-253
32-24,22101633,-260
32-25,22105539,-289
32-26,22109445,-290
32-27,22113351,-262
32-28,22117257,-232
32-29,22121163,-213
32-30,22125069,-208
32-31,22128975,-213
32-32,22132881,-228
32-1,22136579,-247
32-2,22140485,-251
32-3,22144391,-242
32-4,22148297,-252
32-5,22152203,-264
32-6,22156109,-257
32-7,22160015,-237
32-8,22163921,-221
32-9,22167827,-228
32-10,22171733,-246
32-11,22175639,-247
32-12,22179545,-241
32-13,22183451,-247
32-14,22187357,-267
32-15,22191263,-277
32-16,22195169,-271
32-17,22199075,-265
32-18,22202981,-279
32-19,22206887,-300
32-20,22210793,-305
32-21,22214699,-300
32-22,22218605,-292
32-23,22222511,-268
32-24,22226417,-238
32-25,22230323,-236
32-26,22234229,-257
32-27,22238135,-269
32-28,22242041,-243
32-29,22245947,-200
32-30,22249853,-191
32-31,22253759,-220
32-32,22257665,-248
32-1,22261577,-253
32-2,22265483,-248
32-3,22269389,-253
32-4,22273295,-263
32-5,22277201,-249
32-6,22281107,-229
32-7,22285013,-227
32-8,22288919,-233
32-9,22292825,-228
32-10,22296731,-214
32-11,22300637,-211
32-12,22304543,-211
32-13,22308449,-204
32-14,22312355,-184
32-15,22316261,-161
32-16,22320167,-141
32-17,22324073,-123
32-18,22327979,-112
32-19,22331885,-125
32-20,22335791,-154
32-21,22339697,-171
32-22,22343603,-164
32-23,22347509,-144
32-24,22351415,-138
32-25,22355321,-139
32-26,22359227,-108
32-27,22363133,-60
32-28,22367039,-33
32-29,22370945,-37
32-30,22374851,-64
32-31,22378757,-92
32-32,22382663,-114
32-1,22386574,-122
32-2,22390480,-98
32-3,22394386,-56
32-4,22398292,-28
32-5,22402198,-16
32-6,22406104,-7
32-7,22410010,15
32-8,22413916,35
32-9,22417822,31
32-10,22421728,5
32-11,22425634,-19
32-12,22429540,-39
32-13,22433446,-59
32-14,22437352,-80
32-15,22441258,-98
32-16,22445164,-109
32-17,22449070,-121
32-18,22452976,-129
32-19,22456882,-121
32-20,22460788,-102
32-21,22464694,-94
32-22,22468600,-103
32-23,22472506,-100
32-24,22476412,-75
32-25,22480318,-54
32-26,22484224,-41
32-27,22488130,-20
32-28,22492036,18
32-29,22495942,40
32-30,22499848,13
32-31,22503754,-54
32-32,22507660,-109
32-1,22511572,-124
32-2,22515478,-110
32-3,22519384,-89
32-4,22523290,-77
32-5,22527196,-64
32-6,22531102,-72
32-7,22535008,-105
32-8,22538914,-129
32-9,22542820,-119
32-10,22546726,-92
32-11,22550632,-74
32-12,22554538,-77
32-13,22558444,-88
32-14,22562350,-103
32-15,22566256,-125
32-16,22570162,-134
32-17,22574068,-118
32-18,22577974,-90
32-19,22581880,-73
32-20,22585786,-84
32-21,22589692,-102
32-22,22593598,-110
32-23,22597504,-118
32-24,22601410,-146
32-25,22605316,-199
32-26,22609222,-237
32-27,22613128,-242
32-28,22617034,-221
32-29,22620940,-195
32-30,22624846,-180
32-31,22628752,-191
32-32,22632658,-217
32-1,22636570,-228
32-2,22640476,-195
32-3,22644382,-130
32-4,22648288,-76
32-5,22652194,-37
32-6,22656100,-7
32-7,22660006,19
32-8,22663912,27
32-9,22667818,10
32-10,22671724,-11
32-11,22675630,-13
32-12,22679536,2
32-13,22683442,12
32-14,22687348,7
32-15,22691254,-5
32-16,22695160,-18
32-17,22699066,-34
32-18,22702972,-50
32-19,22706878,-46
32-20,22710784,-24
32-21,22714690,-4
32-22,22718596,-5
32-23,22722502,-11
32-24,22726408,-12
32-25,22730314,-20
32-26,22734220,-25
32-27,22738126,-8
32-28,22742032,35
32-29,22745938,73
32-30,22749844,66
32-31,22753750,30
32-32,22757656,13
32-1,22761781,33
32-2,22765687,64
32-3,22769593,83
32-4,22773499,86
32-5,22777405,96
32-6,22781311,102
32-7,22785217,95
32-8,22789123,98
32-9,22793029,115
32-10,22796935,130
32-11,22800841,128
32-12,22804747,111
32-13,22808653,100
32-14,22812559,95
32-15,22816465,82
32-16,22820371,59
32-17,22824277,43
32-18,22828183,39
32-19,22832089,51
32-20,22835995,70
32-21,22839901,91
32-22,22843807,106
32-23,22847713,100
32-24,22851619,67
32-25,22855525,22
32-26,22859431,2
32-27,22863337,8
32-28,22867243,19
32-29,22871149,14
32-30,22875055,-11
32-31,22878961,-35
32-32,22882867,-35
32-1,22886565,1
32-2,22890471,59
32-3,22894377,96
32-4,22898283,86
32-5,22902189,65
32-6,22906095,69
32-7,22910001,91
32-8,22913907,99
32-9,22917813,78
32-10,22921719,46
32-11,22925625,26
32-12,22929531,17
32-13,22933437,2
32-14,22937343,-7
32-15,22941249,11
32-16,22945155,46
32-17,22949061,65
32-18,22952967,63
32-19,22956873,61
32-20,22960779,71
32-21,22964685,83
32-22,22968591,80
32-23,22972497,76
32-24,22976403,79
32-25,22980309,65
32-26,22984215,49
32-27,22988121,52
32-28,22992027,74
32-29,22995933,89
32-30,22999839,67
32-31,23003745,19
32-32,23007651,-1
32-1,23011562,13
32-2,23015468,29
32-3,23019374,28
32-4,23023280,14
32-5,23027186,24
32-6,23031092,56
32-7,23034998,77
32-8,23038904,83
32-9,23042810,73
32-10,23046716,42
32-11,23050622,-9
32-12,23054528,-53
32-13,23058434,-67
32-14,23062340,-52
32-15,23066246,-35
32-16,23070152,-30
32-17,23074058,-25
32-18,23077964,-7
32-19,23081870,6
32-20,23085776,1
32-21,23089682,-17
32-22,23093588,-39
32-23,23097494,-55
32-24,23101400,-59
32-25,23105306,-54
32-26,23109212,-25
32-27,23113118,10
32-28,23117024,25
32-29,23120930,26
32-30,23124836,14
32-31,23128742,-4
32-32,23132648,-13
32-1,23136560,-8
32-2,23140466,16
32-3,23144372,40
32-4,23148278,35
32-5,23152184,33
32-6,23156090,53
32-7,23159996,77
32-8,23163902,84
32-9,23167808,53
32-10,23171714,11
32-11,23175620,-8
32-12,23179526,-3
32-13,23183432,2
32-14,23187338,13
32-15,23191244,36
32-16,23195150,61
32-17,23199056,67
32-18,23202962,48
32-19,23206868,34
32-20,23210774,35
32-21,23214680,32
32-22,23218586,23
32-23,23222492,29
32-24,23226398,46
32-25,23230304,58
32-26,23234210,75
32-27,23238116,107
32-28,23242022,153
32-29,23245928,167
32-30,23249834,115
32-31,23253740,32
32-32,23257646,-13
32-1,23261558,1
32-2,23265464,42
32-3,23269370,70
32-4,23273276,87
32-5,23277182,123
32-6,23281088,149
32-7,23284994,135
32-8,23288900,91
32-9,23292806,48
32-10,23296712,25
32-11,23300618,16
32-12,23304524,15
32-13,23308430,18
32-14,23312336,9
32-15,23316242,-22
32-16,23320148,-62
32-17,23324054,-82
32-18,23327960,-68
32-19,23331866,-34
32-20,23335772,-2
32-21,23339678,26
32-22,23343584,44
32-23,23347490,51
32-24,23351396,32
32-25,23355302,-12
32-26,23359208,-45
32-27,23363114,-52
32-28,23367020,-42
32-29,23370926,-20
32-30,23374832,-11
32-31,23378738,-24
32-32,23382644,-51
32-1,23386616,-68
32-2,23390522,-50
32-3,23394428,-12
32-4,23398334,5
32-5,23402240,2
32-6,23406146,-9
32-7,23410052,-13
32-8,23413958,-10
32-9,23417864,-22
32-10,23421770,-42
32-11,23425676,-60
32-12,23429582,-68
32-13,23433488,-66
32-14,23437394,-50
32-15,23441300,-22
32-16,23445206,-1
32-17,23449112,0
32-18,23453018,-3
32-19,23456924,13
32-20,23460830,44
32-21,23464736,66
32-22,23468642,66
32-23,23472548,54
32-24,23476454,38
32-25,23480360,13
32-26,23484266,-4
32-27,23488172,-1
32-28,23492078,17
32-29,23495984,14
32-30,23499890,-24
32-31,23503796,-66
32-32,23507702,-70
32-1,23623336,-50
32-2,23623642,-45
32-3,23623948,-66
32-4,23624254,-85
32-5,23624560,-75
32-6,23624866,-61
32-7,23625172,-72
32-8,23625478,-105
32-9,23625784,-135
32-10,23626090,-154
32-11,23626396,-164
32-12,23626702,-158
32-13,23627008,-137
32-14,23627314,-112
32-15,23627620,-98
32-16,23627926,-87
32-17,23628232,-71
32-18,23628538,-68
32-19,23628844,-95
32-20,23629150,-134
32-21,23629456,-139
32-22,23629762,-115
32-23,23630068,-88
32-24,23630374,-88
32-25,23630680,-110
32-26,23630986,-101
32-27,23631292,-55
32-28,23631598,-8
32-29,23631904,10
32-30,23632210,-13
32-31,23632516,-54
32-32,23632822,-92
32-1,23636551,-105
32-2,23640457,-79
32-3,23644363,-40
32-4,23648269,-26
32-5,23652175,-25
32-6,23656081,-24
32-7,23659987,-25
32-8,23663893,-39
32-9,23667799,-64
32-10,23671705,-77
32-11,23675611,-75
32-12,23679517,-75
32-13,23683423,-92
32-14,23687329,-113
32-15,23691235,-109
32-16,23695141,-92
32-17,23699047,-86
32-18,23702953,-88
32-19,23706859,-81
32-20,23710765,-64
32-21,23714671,-50
32-22,23718577,-58
32-23,23722483,-64
32-24,23726389,-62
32-25,23730295,-83
32-26,23734201,-111
32-27,23738107,-112
32-28,23742013,-57
32-29,23745919,27
32-30,23749825,69
32-31,23753731,54
32-32,23757637,28
32-1,23761548,17
32-2,23765454,18
32-3,23769360,18
32-4,23773266,11
32-5,23777172,15
32-6,23781078,26
32-7,23784984,32
32-8,23788890,37
32-9,23792796,47
32-10,23796702,47
32-11,23800608,21
32-12,23804514,-20
32-13,23808420,-44
32-14,23812326,-32
32-15,23816232,9
32-16,23820138,63
32-17,23824044,111
32-18,23827950,127
32-19,23831856,102
32-20,23835762,66
32-21,23839668,51
32-22,23843574,60
32-23,23847480,68
32-24,23851386,58
32-25,23855292,48
32-26,23859198,68
32-27,23863104,100
32-28,23867010,101
32-29,23870916,62
32-30,23874822,16
32-31,23878728,-3
32-32,23882634,5
32-1,23886546,30
32-2,23890452,62
32-3,23894358,81
32-4,23898264,77
32-5,23902170,67
32-6,23906076,66
32-7,23909982,81
32-8,23913888,90
32-9,23917794,76
32-10,23921700,52
32-11,23925606,32
32-12,23929512,25
32-13,23933418,21
32-14,23937324,25
32-15,23941230,36
32-16,23945136,39
32-17,23949042,17
32-18,23952948,-19
32-19,23956854,-43
32-20,23960760,-50
32-21,23964666,-49
32-22,23968572,-55
32-23,23972478,-50
32-24,23976384,-37
32-25,23980290,-45
32-26,23984196,-69
32-27,23988102,-78
32-28,23992008,-47
32-29,23995914,-3
32-30,23999820,8
32-31,24003726,-23
32-32,24007632,-60
32-1,24011666,-81
32-2,24015572,-87
32-3,24019478,-82
32-4,24023384,-70
32-5,24027290,-46
32-6,24031196,-30
32-7,24035102,-33
32-8,24039008,-30
32-9,24042914,-11
32-10,24046820,2
32-11,24050726,-8
32-12,24054632,-26
32-13,24058538,-29
32-14,24062444,-22
32-15,24066350,-31
32-16,24070256,-58
32-17,24074162,-72
32-18,24078068,-53
32-19,24081974,-16
32-20,24085880,16
32-21,24089786,41
32-22,24093692,49
32-23,24097598,40
32-24,24101504,15
32-25,24105410,-17
32-26,24109316,-21
32-27,24113222,5
32-28,24117128,40
32-29,24121034,72
32-30,24124940,88
32-31,24128846,81
32-32,24132752,55
32-1,24136541,26
32-2,24140447,18
32-3,24144353,30
32-4,24148259,31
32-5,24152165,22
32-6,24156071,12
32-7,24159977,5
32-8,24163883,0
32-9,24167789,-5
32-10,24171695,-3
32-11,24175601,0
32-12,24179507,-11
32-13,24183413,-42
32-14,24187319,-70
32-15,24191225,-68
32-16,24195131,-39
32-17,24199037,-11
32-18,24202943,12
32-19,24206849,36
32-20,24210755,54
32-21,24214661,42
32-22,24218567,6
32-23,24222473,-10
32-24,24226379,10
32-25,24230285,37
32-26,24234191,58
32-27,24238097,71
32-28,24242003,77
32-29,24245909,59
32-30,24249815,4
32-31,24253721,-57
32-32,24257627,-77
32-1,24261752,-52
32-2,24265658,-17
32-3,24269564,-13
32-4,24273470,-36
32-5,24277376,-53
32-6,24281282,-68
32-7,24285188,-84
32-8,24289094,-89
32-9,24293000,-61
32-10,24296906,-12
32-11,24300812,18
32-12,24304718,29
32-13,24308624,30
32-14,24312530,23
32-15,24316436,6
32-16,24320342,-11
32-17,24324248,-16
32-18,24328154,-6
32-19,24332060,3
32-20,24335966,1
32-21,24339872,4
32-22,24343778,7
32-23,24347684,9
32-24,24351590,2
32-25,24355496,-22
32-26,24359402,-18
32-27,24363308,12
32-28,24367214,37
32-29,24371120,42
32-30,24375026,17
32-31,24378932,-31
32-32,24382838,-76
32-1,24386536,-94
32-2,24390442,-77
32-3,24394348,-46
32-4,24398254,-44
32-5,24402160,-56
32-6,24406066,-57
32-7,24409972,-39
32-8,24413878,-13
32-9,24417784,3
32-10,24421690,8
32-11,24425596,14
32-12,24429502,15
32-13,24433408,-19
32-14,24437314,-73
32-15,24441220,-106
32-16,24445126,-109
32-17,24449032,-98
32-18,24452938,-88
32-19,24456844,-74
32-20,24460750,-47
32-21,24464656,-22
32-22,24468562,-21
32-23,24472468,-34
32-24,24476374,-65
32-25,24480280,-117
32-26,24484186,-146
32-27,24488092,-127
32-28,24491998,-71
32-29,24495904,-35
32-30,24499810,-64
32-31,24503716,-133
32-32,24507622,-169
32-1,24511534,-148
32-2,24515440,-109
32-3,24519346,-91
32-4,24523252,-97
32-5,24527158,-92
32-6,24531064,-88
32-7,24534970,-105
32-8,24538876,-135
32-9,24542782,-149
32-10,24546688,-140
32-11,24550594,-120
32-12,24554500,-94
32-13,24558406,-71
32-14,24562312,-63
32-15,24566218,-71
32-16,24570124,-89
32-17,24574030,-97
32-18,24577936,-93
32-19,24581842,-91
32-20,24585748,-102
32-21,24589654,-116
32-22,24593560,-136
32-23,24597466,-165
32-24,24601372,-198
32-25,24605278,-206
32-26,24609184,-166
32-27,24613090,-114
32-28,24616996,-91
32-29,24620902,-108
32-30,24624808,-146
32-31,24628714,-170
32-32,24632620,-166
32-1,24636684,-137
32-2,24640590,-92
32-3,24644496,-53
32-4,24648402,-53
32-5,24652308,-84
32-6,24656214,-123
32-7,24660120,-147
32-8,24664026,-159
32-9,24667932,-175
32-10,24671838,-188
32-11,24675744,-185
32-12,24679650,-173
32-13,24683556,-164
32-14,24687462,-153
32-15,24691368,-138
32-16,24695274,-134
32-17,24699180,-151
32-18,24703086,-178
32-19,24706992,-191
32-20,24710898,-174
32-21,24714804,-148
32-22,24718710,-140
32-23,24722616,-139
32-24,24726522,-139
32-25,24730428,-151
32-26,24734334,-161
32-27,24738240,-148
32-28,24742146,-103
32-29,24746052,-50
32-30,24749958,-41
32-31,24753864,-79
32-32,24757770,-124
32-1,24761529,-149
32-2,24765435,-147
32-3,24769341,-128
32-4,24773247,-107
32-5,24777153,-90
32-6,24781059,-97
32-7,24784965,-130
32-8,24788871,-151
32-9,24792777,-139
32-10,24796683,-112
32-11,24800589,-105
32-12,24804495,-125
32-13,24808401,-151
32-14,24812307,-170
32-15,24816213,-183
32-16,24820119,-189
32-17,24824025,-181
32-18,24827931,-166
32-19,24831837,-160
32-20,24835743,-166
32-21,24839649,-168
32-22,24843555,-160
32-23,24847461,-145
32-24,24851367,-139
32-25,24855273,-143
32-26,24859179,-136
32-27,24863085,-120
32-28,24866991,-108
32-29,24870897,-103
32-30,24874803,-97
32-31,24878709,-90
32-32,24882615,-91
32-1,24886527,-99
32-2,24890433,-107
32-3,24894339,-111
32-4,24898245,-114
32-5,24902151,-96
32-6,24906057,-57
32-7,24909963,-18
32-8,24913869,-14
32-9,24917775,-49
32-10,24921681,-95
32-11,24925587,-127
32-12,24929493,-138
32-13,24933399,-147
32-14,24937305,-155
32-15,24941211,-152
32-16,24945117,-139
32-17,24949023,-132
32-18,24952929,-124
32-19,24956835,-95
32-20,24960741,-51
32-21,24964647,-18
32-22,24968553,-29
32-23,24972459,-58
32-24,24976365,-80
32-25,24980271,-85
32-26,24984177,-66
32-27,24988083,-30
32-28,24991989,9
32-29,24995895,24
32-30,24999801,-9
32-31,25003707,-66
32-32,25007613,-108
32-1,25011525,-119
32-2,25015431,-107
32-3,25019337,-85
32-4,25023243,-64
32-5,25027149,-33
32-6,25031055,-10
32-7,25034961,3
32-8,25038867,16
32-9,25042773,30
32-10,25046679,44
32-11,25050585,57
32-12,25054491,73
32-13,25058397,89
32-14,25062303,88
32-15,25066209,64
32-16,25070115,33
32-17,25074021,20
32-18,25077927,18
32-19,25081833,2
32-20,25085739,-28
32-21,25089645,-42
32-22,25093551,-34
32-23,25097457,-18
32-24,25101363,-23
32-25,25105269,-47
32-26,25109175,-48
32-27,25113081,-20
32-28,25116987,12
32-29,25120893,30
32-30,25124799,15
32-31,25128705,-27
32-32,25132611,-71
32-1,25136522,-91
32-2,25140428,-67
32-3,25144334,-22
32-4,25148240,-3
32-5,25152146,-4
32-6,25156052,-19
32-7,25159958,-37
32-8,25163864,-51
32-9,25167770,-63
32-10,25171676,-61
32-11,25175582,-43
32-12,25179488,-21
32-13,25183394,-17
32-14,25187300,-30
32-15,25191206,-44
32-16,25195112,-56
32-17,25199018,-77
32-18,25202924,-96
32-19,25206830,-89
32-20,25210736,-60
32-21,25214642,-36
32-22,25218548,-33
32-23,25222454,-30
32-24,25226360,-18
32-25,25230266,-15
32-26,25234172,-9
32-27,25238078,16
32-28,25241984,62
32-29,25245890,99
32-30,25249796,88
32-31,25253702,48
32-32,25257608,38
32-1,25261672,70
32-2,25265578,114
32-3,25269484,138
32-4,25273390,136
32-5,25277296,135
32-6,25281202,120
32-7,25285108,82
32-8,25289014,44
32-9,25292920,28
32-10,25296826,44
32-11,25300732,74
32-12,25304638,104
32-13,25308544,130
32-14,25312450,138
32-15,25316356,114
32-16,25320262,79
32-17,25324168,66
32-18,25328074,83
32-19,25331980,105
32-20,25335886,114
32-21,25339792,126
32-22,25343698,148
32-23,25347604,178
32-24,25351510,197
32-25,25355416,195
32-26,25359322,203
32-27,25363228,218
32-28,25367134,224
32-29,25371040,211
32-30,25374946,176
32-31,25378852,134
32-32,25382758,96
32-1,25386517,75
32-2,25390423,82
32-3,25394329,102
32-4,25398235,101
32-5,25402141,92
32-6,25406047,88
32-7,25409953,91
32-8,25413859,89
32-9,25417765,74
32-10,25421671,63
32-11,25425577,70
32-12,25429483,81
32-13,25433389,71
32-14,25437295,44
32-15,25441201,25
32-16,25445107,13
32-17,25449013,-7
32-18,25452919,-45
32-19,25456825,-73
32-20,25460731,-67
32-21,25464637,-45
32-22,25468543,-30
32-23,25472449,-25
32-24,25476355,-32
32-25,25480261,-46
32-26,25484167,-47
32-27,25488073,-23
32-28,25491979,17
32-29,25495885,37
32-30,25499791,11
32-31,25503697,-41
32-32,25507603,-75
32-1,25511515,-83
32-2,25515421,-87
32-3,25519327,-97
32-4,25523233,-110
32-5,25527139,-98
32-6,25531045,-76
32-7,25534951,-58
32-8,25538857,-31
32-9,25542763,1
32-10,25546669,12
32-11,25550575,-6
32-12,25554481,-28
32-13,25558387,-26
32-14,25562293,-7
32-15,25566199,1
32-16,25570105,0
32-17,25574011,14
32-18,25577917,50
32-19,25581823,83
32-20,25585729,101
32-21,25589635,119
32-22,25593541,143
32-23,25597447,164
32-24,25601353,157
32-25,25605259,127
32-26,25609165,120
32-27,25613071,144
32-28,25616977,183
32-29,25620883,212
32-30,25624789,215
32-31,25628695,192
32-32,25632601,152
32-1,25636513,124
32-2,25640419,132
32-3,25644325,149
32-4,25648231,135
32-5,25652137,101
32-6,25656043,75
32-7,25659949,72
32-8,25663855,72
32-9,25667761,54
32-10,25671667,25
32-11,25675573,11
32-12,25679479,19
32-13,25683385,26
32-14,25687291,34
32-15,25691197,53
32-16,25695103,74
32-17,25699009,80
32-18,25702915,72
32-19,25706821,71
32-20,25710727,83
32-21,25714633,89
32-22,25718539,76
32-23,25722445,67
32-24,25726351,64
32-25,25730257,46
32-26,25734163,18
32-27,25738069,3
32-28,25741975,19
32-29,25745881,46
32-30,25749787,43
32-31,25753693,13
32-32,25757599,-8
32-1,25761510,-7
32-2,25765416,6
32-3,25769322,15
32-4,25773228,21
32-5,25777134,36
32-6,25781040,40
32-7,25784946,24
32-8,25788852,14
32-9,25792758,21
32-10,25796664,28
32-11,25800570,25
32-12,25804476,21
32-13,25808382,42
32-14,25812288,74
32-15,25816194,87
32-16,25820100,72
32-17,25824006,49
32-18,25827912,34
32-19,25831818,36
32-20,25835724,45
32-21,25839630,60
32-22,25843536,73
32-23,25847442,87
32-24,25851348,102
32-25,25855254,118
32-26,25859160,155
32-27,25863066,195
32-28,25866972,211
32-29,25870878,195
32-30,25874784,147
32-31,25878690,82
32-32,25882596,20
32-1,25886508,-13
32-2,25890414,-1
32-3,25894320,32
32-4,25898226,34
32-5,25902132,24
32-6,25906038,21
32-7,25909944,27
32-8,25913850,35
32-9,25917756,28
32-10,25921662,17
32-11,25925568,14
32-12,25929474,10
32-13,25933380,4
32-14,25937286,2
32-15,25941192,20
32-16,25945098,43
32-17,25949004,45
32-18,25952910,21
32-19,25956816,-3
32-20,25960722,-12
32-21,25964628,-14
32-22,25968534,-24
32-23,25972440,-35
32-24,25976346,-41
32-25,25980252,-46
32-26,25984158,-36
32-27,25988064,-8
32-28,25991970,22
32-29,25995876,30
32-30,25999782,-3
32-31,26003688,-47
32-32,26007594,-67
32-1,26011506,-70
32-2,26015412,-85
32-3,26019318,-128
32-4,26023224,-185
32-5,26027130,-223
32-6,26031036,-244
32-7,26034942,-254
32-8,26038848,-243
32-9,26042754,-204
32-10,26046660,-160
32-11,26050566,-135
32-12,26054472,-148
32-13,26058378,-188
32-14,26062284,-240
32-15,26066190,-287
32-16,26070096,-311
32-17,26074002,-303
32-18,26077908,-281
32-19,26081814,-263
32-20,26085720,-253
32-21,26089626,-242
32-22,26093532,-229
32-23,26097438,-221
32-24,26101344,-225
32-25,26105250,-234
32-26,26109156,-214
32-27,26113062,-174
32-28,26116968,-130
32-29,26120874,-111
32-30,26124780,-118
32-31,26128686,-143
32-32,26132592,-160
32-1,26136503,-161
32-2,26140409,-148
32-3,26144315,-143
32-4,26148221,-160
32-5,26152127,-170
32-6,26156033,-152
32-7,26159939,-113
32-8,26163845,-73
32-9,26167751,-48
32-10,26171657,-40
32-11,26175563,-53
32-12,26179469,-86
32-13,26183375,-125
32-14,26187281,-142
32-15,26191187,-131
32-16,26195093,-126
32-17,26198999,-151
32-18,26202905,-195
32-19,26206811,-214
32-20,26210717,-191
32-21,26214623,-147
32-22,26218529,-120
32-23,26222435,-108
32-24,26226341,-110
32-25,26230247,-129
32-26,26234153,-136
32-27,26238059,-122
32-28,26241965,-83
32-29,26245871,-42
32-30,26249777,-44
32-31,26253683,-81
32-32,26257589,-121
32-1,26261501,-142
32-2,26265407,-133
32-3,26269313,-105
32-4,26273219,-76
32-5,26277125,-53
32-6,26281031,-63
32-7,26284937,-98
32-8,26288843,-126
32-9,26292749,-134
32-10,26296655,-120
32-11,26300561,-92
32-12,26304467,-55
32-13,26308373,-31
32-14,26312279,-40
32-15,26316185,-76
32-16,26320091,-120
32-17,26323997,-157
32-18,26327903,-193
32-19,26331809,-236
32-20,26335715,-264
32-21,26339621,-248
32-22,26343527,-197
32-23,26347433,-139
32-24,26351339,-118
32-25,26355245,-130
32-26,26359151,-134
32-27,26363057,-122
32-28,26366963,-99
32-29,26370869,-73
32-30,26374775,-65
32-31,26378681,-92
32-32,26382587,-138
32-1,26386498,-169
32-2,26390404,-154
32-3,26394310,-110
32-4,26398216,-77
32-5,26402122,-63
32-6,26406028,-69
32-7,26409934,-89
32-8,26413840,-106
32-9,26417746,-105
32-10,26421652,-85
32-11,26425558,-54
32-12,26429464,-39
32-13,26433370,-60
32-14,26437276,-83
32-15,26441182,-74
32-16,26445088,-33
32-17,26448994,10
32-18,26452900,31
32-19,26456806,41
32-20,26460712,53
32-21,26464618,69
32-22,26468524,93
32-23,26472430,133
32-24,26476336,170
32-25,26480242,179
32-26,26484148,171
32-27,26488054,162
32-28,26491960,163
32-29,26495866,161
32-30,26499772,135
32-31,26503678,99
32-32,26507584,81
32-1,26511496,73
32-2,26515402,70
32-3,26519308,80
32-4,26523214,108
32-5,26527120,162
32-6,26531026,204
32-7,26534932,206
32-8,26538838,192
32-9,26542744,180
32-10,26546650,177
32-11,26550556,181
32-12,26554462,184
32-13,26558368,191
32-14,26562274,199
32-15,26566180,194
32-16,26570086,181
32-17,26573992,172
32-18,26577898,164
32-19,26581804,151
32-20,26585710,131
32-21,26589616,114
32-22,26593522,99
32-23,26597428,84
32-24,26601334,66
32-25,26605240,45
32-26,26609146,52
32-27,26613052,88
32-28,26616958,128
32-29,26620864,147
32-30,26624770,127
32-31,26628676,81
32-32,26632582,42
32-1,26636494,32
32-2,26640400,44
32-3,26644306,49
32-4,26648212,17
32-5,26652118,-15
32-6,26656024,-16
32-7,26659930,1
32-8,26663836,22
32-9,26667742,41
32-10,26671648,67
32-11,26675554,107
32-12,26679460,147
32-13,26683366,157
32-14,26687272,152
32-15,26691178,157
32-16,26695084,179
32-17,26698990,205
32-18,26702896,213
32-19,26706802,205
32-20,26710708,188
32-21,26714614,161
32-22,26718520,127
32-23,26722426,106
32-24,26726332,92
32-25,26730238,77
32-26,26734144,75
32-27,26738050,84
32-28,26741956,91
32-29,26745862,77
32-30,26749768,28
32-31,26753674,-23
32-32,26757580,-37
32-1,26761491,-13
32-2,26765397,31
32-3,26769303,65
32-4,26773209,82
32-5,26777115,97
32-6,26781021,95
32-7,26784927,76
32-8,26788833,56
32-9,26792739,43
32-10,26796645,38
32-11,26800551,35
32-12,26804457,34
32-13,26808363,36
32-14,26812269,29
32-15,26816175,12
32-16,26820081,-4
32-17,26823987,-5
32-18,26827893,14
32-19,26831799,39
32-20,26835705,50
32-21,26839611,44
32-22,26843517,27
32-23,26847423,4
32-24,26851329,-15
32-25,26855235,-19
32-26,26859141,15
32-27,26863047,70
32-28,26866953,112
32-29,26870859,116
32-30,26874765,74
32-31,26878671,6
32-32,26882577,-54
32-1,26886489,-79
32-2,26890395,-71
32-3,26894301,-55
32-4,26898207,-49
32-5,26902113,-38
32-6,26906019,-27
32-7,26909925,-28
32-8,26913831,-51
32-9,26917737,-88
32-10,26921643,-113
32-11,26925549,-113
32-12,26929455,-103
32-13,26933361,-103
32-14,26937267,-116
32-15,26941173,-124
32-16,26945079,-118
32-17,26948985,-99
32-18,26952891,-76
32-19,26956797,-58
32-20,26960703,-54
32-21,26964609,-65
32-22,26968515,-74
32-23,26972421,-58
32-24,26976327,-29
32-25,26980233,-24
32-26,26984139,-38
32-27,26988045,-42
32-28,26991951,-20
32-29,26995857,0
32-30,26999763,-15
32-31,27003669,-58
32-32,27007575,-88
32-1,27011487,-95
32-2,27015393,-80
32-3,27019299,-63
32-4,27023205,-65
32-5,27027111,-76
32-6,27031017,-99
32-7,27034923,-112
32-8,27038829,-81
32-9,27042735,-2
32-10,27046641,86
32-11,27050547,133
32-12,27054453,138
32-13,27058359,122
32-14,27062265,100
32-15,27066171,67
32-16,27070077,36
32-17,27073983,37
32-18,27077889,71
32-19,27081795,109
32-20,27085701,120
32-21,27089607,94
32-22,27093513,52
32-23,27097419,20
32-24,27101325,-8
32-25,27105231,-34
32-26,27109137,-33
32-27,27113043,-6
32-28,27116949,28
32-29,27120855,44
32-30,27124761,26
32-31,27128667,-9
32-32,27132573,-27
32-1,27136484,-12
32-2,27140390,24
32-3,27144296,56
32-4,27148202,65
32-5,27152108,68
32-6,27156014,62
32-7,27159920,41
32-8,27163826,6
32-9,27167732,-25
32-10,27171638,-32
32-11,27175544,-10
32-12,27179450,15
32-13,27183356,12
32-14,27187262,-9
32-15,27191168,-23
32-16,27195074,-25
32-17,27198980,-32
32-18,27202886,-56
32-19,27206792,-96
32-20,27210698,-127
32-21,27214604,-144
32-22,27218510,-149
32-23,27222416,-145
32-24,27226322,-155
32-25,27230228,-191
32-26,27234134,-211
32-27,27238040,-201
32-28,27241946,-165
32-29,27245852,-140
32-30,27249758,-161
32-31,27253664,-208
32-32,27257570,-244
32-1,27261482,-245
32-2,27265388,-218
32-3,27269294,-195
32-4,27273200,-198
32-5,27277106,-209
32-6,27281012,-223
32-7,27284918,-233
32-8,27288824,-227
32-9,27292730,-208
32-10,27296636,-189
32-11,27300542,-175
32-12,27304448,-161
32-13,27308354,-147
32-14,27312260,-148
32-15,27316166,-166
32-16,27320072,-176
32-17,27323978,-163
32-18,27327884,-139
32-19,27331790,-124
32-20,27335696,-116
32-21,27339602,-101
32-22,27343508,-80
32-23,27347414,-60
32-24,27351320,-53
32-25,27355226,-61
32-26,27359132,-47
32-27,27363038,-10
32-28,27366944,27
32-29,27370850,37
32-30,27374756,10
32-31,27378662,-32
32-32,27382568,-64
32-1,27386480,-79
32-2,27390386,-73
32-3,27394292,-56
32-4,27398198,-50
32-5,27402104,-36
32-6,27406010,-24
32-7,27409916,-26
32-8,27413822,-40
32-9,27417728,-62
32-10,27421634,-66
32-11,27425540,-37
32-12,27429446,10
32-13,27433352,50
32-14,27437258,65
32-15,27441164,59
32-16,27445070,48
32-17,27448976,34
32-18,27452882,20
32-19,27456788,8
32-20,27460694,-14
32-21,27464600,-48
32-22,27468506,-96
32-23,27472412,-148
32-24,27476318,-196
32-25,27480224,-236
32-26,27484130,-245
32-27,27488036,-221
32-28,27491942,-186
32-29,27495848,-171
32-30,27499754,-194
32-31,27503660,-221
32-32,27507566,-206
32-1,27511477,-155
32-2,27515383,-106
32-3,27519289,-87
32-4,27523195,-103
32-5,27527101,-113
32-6,27531007,-109
32-7,27534913,-92
32-8,27538819,-67
32-9,27542725,-39
32-10,27546631,-31
32-11,27550537,-48
32-12,27554443,-76
32-13,27558349,-95
32-14,27562255,-104
32-15,27566161,-118
32-16,27570067,-145
32-17,27573973,-168
32-18,27577879,-178
32-19,27581785,-180
32-20,27585691,-180
32-21,27589597,-176
32-22,27593503,-165
32-23,27597409,-145
32-24,27601315,-140
32-25,27605221,-155
32-26,27609127,-157
32-27,27613033,-139
32-28,27616939,-109
32-29,27620845,-83
32-30,27624751,-78
32-31,27628657,-93
32-32,27632563,-116
32-1,27636475,-129
32-2,27640381,-116
32-3,27644287,-97
32-4,27648193,-97
32-5,27652099,-113
32-6,27656005,-143
32-7,27659911,-161
32-8,27663817,-157
32-9,27667723,-142
32-10,27671629,-124
32-11,27675535,-108
32-12,27679441,-87
32-13,27683347,-59
32-14,27687253,-28
32-15,27691159,-1
32-16,27695065,14
32-17,27698971,13
32-18,27702877,2
32-19,27706783,-6
32-20,27710689,-11
32-21,27714595,-24
32-22,27718501,-55
32-23,27722407,-77
32-24,27726313,-75
32-25,27730219,-67
32-26,27734125,-53
32-27,27738031,-42
32-28,27741937,-30
32-29,27745843,-20
32-30,27749749,-23
32-31,27753655,-33
32-32,27757561,-41
32-1,27761472,-33
32-2,27765378,-6
32-3,27769284,23
32-4,27773190,27
32-5,27777096,12
32-6,27781002,-18
32-7,27784908,-45
32-8,27788814,-47
32-9,27792720,-26
32-10,27796626,-3
32-11,27800532,9
32-12,27804438,21
32-13,27808344,45
32-14,27812250,66
32-15,27816156,60
32-16,27820062,29
32-17,27823968,-3
32-18,27827874,-19
32-19,27831780,-17
32-20,27835686,-8
32-21,27839592,2
32-22,27843498,8
32-23,27847404,12
32-24,27851310,6
32-25,27855216,-11
32-26,27859122,-12
32-27,27863028,7
32-28,27866934,26
32-29,27870840,32
32-30,27874746,17
32-31,27878652,-5
32-32,27882558,-22
32-1,27886470,-31
32-2,27890376,-24
32-3,27894282,-10
32-4,27898188,-5
32-5,27902094,1
32-6,27906000,-5
32-7,27909906,-24
32-8,27913812,-45
32-9,27917718,-56
32-10,27921624,-36
32-11,27925530,9
32-12,27929436,54
32-13,27933342,70
32-14,27937248,57
32-15,27941154,40
32-16,27945060,42
32-17,27948966,49
32-18,27952872,42
32-19,27956778,19
32-20,27960684,1
32-21,27964590,0
32-22,27968496,13
32-23,27972402,29
32-24,27976308,24
32-25,27980214,-10
32-26,27984120,-35
32-27,27988026,-22
32-28,27991932,25
32-29,27995838,64
32-30,27999744,52
32-31,28003650,-3
32-32,28007556,-51
32-1,28011498,-59
32-2,28015404,-33
32-3,28019310,-10
32-4,28023216,-3
32-5,28027122,14
32-6,28031028,39
32-7,28034934,60
32-8,28038840,61
32-9,28042746,38
32-10,28046652,4
32-11,28050558,-34
32-12,28054464,-61
32-13,28058370,-81
32-14,28062276,-104
32-15,28066182,-117
32-16,28070088,-108
32-17,28073994,-81
32-18,28077900,-49
32-19,28081806,-36
32-20,28085712,-44
32-21,28089618,-55
32-22,28093524,-64
32-23,28097430,-65
32-24,28101336,-69
32-25,28105242,-87
32-26,28109148,-70
32-27,28113054,-22
32-28,28116960,18
32-29,28120866,19
32-30,28124772,-33
32-31,28128678,-106
32-32,28132584,-163
32-1,28136465,-195
32-2,28140371,-198
32-3,28144277,-191
32-4,28148183,-195
32-5,28152089,-199
32-6,28155995,-217
32-7,28159901,-243
32-8,28163807,-246
32-9,28167713,-207
32-10,28171619,-139
32-11,28175525,-76
32-12,28179431,-47
32-13,28183337,-50
32-14,28187243,-69
32-15,28191149,-80
32-16,28195055,-87
32-17,28198961,-99
32-18,28202867,-117
32-19,28206773,-133
32-20,28210679,-149
32-21,28214585,-171
32-22,28218491,-194
32-23,28222397,-192
32-24,28226303,-167
32-25,28230209,-152
32-26,28234115,-148
32-27,28238021,-139
32-28,28241927,-115
32-29,28245833,-89
32-30,28249739,-90
32-31,28253645,-119
32-32,28257551,-145
32-1,28261463,-159
32-2,28265369,-174
32-3,28269275,-199
32-4,28273181,-222
32-5,28277087,-207
32-6,28280993,-167
32-7,28284899,-140
32-8,28288805,-150
32-9,28292711,-186
32-10,28296617,-226
32-11,28300523,-256
32-12,28304429,-257
32-13,28308335,-230
32-14,28312241,-187
32-15,28316147,-143
32-16,28320053,-118
32-17,28323959,-108
32-18,28327865,-108
32-19,28331771,-118
32-20,28335677,-126
32-21,28339583,-120
32-22,28343489,-106
32-23,28347395,-85
32-24,28351301,-77
32-25,28355207,-90
32-26,28359113,-93
32-27,28363019,-78
32-28,28366925,-54
32-29,28370831,-34
32-30,28374737,-43
32-31,28378643,-74
32-32,28382549,-110
32-1,28386461,-134
32-2,28390367,-136
32-3,28394273,-125
32-4,28398179,-121
32-5,28402085,-110
32-6,28405991,-94
32-7,28409897,-81
32-8,28413803,-80
32-9,28417709,-89
32-10,28421615,-95
32-11,28425521,-93
32-12,28429427,-92
32-13,28433333,-102
32-14,28437239,-119
32-15,28441145,-127
32-16,28445051,-127
32-17,28448957,-120
32-18,28452863,-107
32-19,28456769,-82
32-20,28460675,-52
32-21,28464581,-27
32-22,28468487,-21
32-23,28472393,-15
32-24,28476299,-12
32-25,28480205,-26
32-26,28484111,-41
32-27,28488017,-29
32-28,28491923,15
32-29,28495829,47
32-30,28499735,22
32-31,28503641,-54
32-32,28507547,-117
32-1,28511458,-120
32-2,28515364,-67
32-3,28519270,-7
32-4,28523176,16
32-5,28527082,6
32-6,28530988,-18
32-7,28534894,-32
32-8,28538800,-22
32-9,28542706,9
32-10,28546612,45
32-11,28550518,70
32-12,28554424,89
32-13,28558330,102
32-14,28562236,101
32-15,28566142,85
32-16,28570048,67
32-17,28573954,62
32-18,28577860,67
32-19,28581766,62
32-20,28585672,39
32-21,28589578,16
32-22,28593484,8
32-23,28597390,14
32-24,28601296,16
32-25,28605202,14
32-26,28609108,37
32-27,28613014,76
32-28,28616920,116
32-29,28620826,147
32-30,28624732,155
32-31,28628638,143
32-32,28632544,115
32-1,28636456,77
32-2,28640362,51
32-3,28644268,38
32-4,28648174,30
32-5,28652080,32
32-6,28655986,33
32-7,28659892,31
32-8,28663798,26
32-9,28667704,12
32-10,28671610,6
32-11,28675516,12
32-12,28679422,25
32-13,28683328,29
32-14,28687234,27
32-15,28691140,28
32-16,28695046,29
32-17,28698952,16
32-18,28702858,-14
32-19,28706764,-47
32-20,28710670,-60
32-21,28714576,-57
32-22,28718482,-59
32-23,28722388,-61
32-24,28726294,-61
32-25,28730200,-62
32-26,28734106,-51
32-27,28738012,-27
32-28,28741918,-7
32-29,28745824,-12
32-30,28749730,-57
32-31,28753636,-114
32-32,28757542,-145
32-1,28761515,-142
32-2,28765421,-119
32-3,28769327,-103
32-4,28773233,-101
32-5,28777139,-94
32-6,28781045,-82
32-7,28784951,-72
32-8,28788857,-57
32-9,28792763,-33
32-10,28796669,-9
32-11,28800575,-4
32-12,28804481,-9
32-13,28808387,-16
32-14,28812293,-20
32-15,28816199,-21
32-16,28820105,-18
32-17,28824011,-7
32-18,28827917,1
32-19,28831823,-3
32-20,28835729,-15
32-21,28839635,-13
32-22,28843541,5
32-23,28847447,35
32-24,28851353,51
32-25,28855259,32
32-26,28859165,15
32-27,28863071,22
32-28,28866977,45
32-29,28870883,71
32-30,28874789,78
32-31,28878695,59
32-32,28882601,27
32-1,28886451,-10
32-2,28890357,-34
32-3,28894263,-42
32-4,28898169,-54
32-5,28902075,-58
32-6,28905981,-53
32-7,28909887,-43
32-8,28913793,-33
32-9,28917699,-31
32-10,28921605,-40
32-11,28925511,-52
32-12,28929417,-56
32-13,28933323,-55
32-14,28937229,-50
32-15,28941135,-50
32-16,28945041,-63
32-17,28948947,-79
32-18,28952853,-85
32-19,28956759,-67
32-20,28960665,-29
32-21,28964571,4
32-22,28968477,13
32-23,28972383,13
32-24,28976289,6
32-25,28980195,-9
32-26,28984101,-5
32-27,28988007,21
32-28,28991913,61
32-29,28995819,93
32-30,28999725,86
32-31,29003631,51
32-32,29007537,19
32-1,29011449,-1
32-2,29015355,-9
32-3,29019261,-12
32-4,29023167,-16
32-5,29027073,-4
32-6,29030979,-3
32-7,29034885,-22
32-8,29038791,-37
32-9,29042697,-40
32-10,29046603,-40
32-11,29050509,-53
32-12,29054415,-69
32-13,29058321,-69
32-14,29062227,-49
32-15,29066133,-31
32-16,29070039,-22
32-17,29073945,-22
32-18,29077851,-22
32-19,29081757,-26
32-20,29085663,-34
32-21,29089569,-41
32-22,29093475,-40
32-23,29097381,-25
32-24,29101287,-12
32-25,29105193,-16
32-26,29109099,-10
32-27,29113005,11
32-28,29116911,35
32-29,29120817,44
32-30,29124723,34
32-31,29128629,17
32-32,29132535,15
32-1,29136446,31
32-2,29140352,60
32-3,29144258,68
32-4,29148164,36
32-5,29152070,-8
32-6,29155976,-35
32-7,29159882,-40
32-8,29163788,-40
32-9,29167694,-60
32-10,29171600,-100
32-11,29175506,-139
32-12,29179412,-152
32-13,29183318,-144
32-14,29187224,-132
32-15,29191130,-119
32-16,29195036,-108
32-17,29198942,-96
32-18,29202848,-87
32-19,29206754,-79
32-20,29210660,-68
32-21,29214566,-56
32-22,29218472,-50
32-23,29222378,-45
32-24,29226284,-47
32-25,29230190,-60
32-26,29234096,-58
32-27,29238002,-46
32-28,29241908,-30
32-29,29245814,-28
32-30,29249720,-51
32-31,29253626,-79
32-32,29257532,-95
32-1,29261444,-101
32-2,29265350,-101
32-3,29269256,-101
32-4,29273162,-98
32-5,29277068,-83
32-6,29280974,-82
32-7,29284880,-100
32-8,29288786,-111
32-9,29292692,-103
32-10,29296598,-80
32-11,29300504,-64
32-12,29304410,-61
32-13,29308316,-70
32-14,29312222,-87
32-15,29316128,-107
32-16,29320034,-111
32-17,29323940,-92
32-18,29327846,-59
32-19,29331752,-41
32-20,29335658,-54
32-21,29339564,-78
32-22,29343470,-97
32-23,29347376,-100
32-24,29351282,-105
32-25,29355188,-122
32-26,29359094,-124
32-27,29363000,-96
32-28,29366906,-47
32-29,29370812,-4
32-30,29374718,13
32-31,29378624,5
32-32,29382530,-4
32-1,29386442,2
32-2,29390348,24
32-3,29394254,36
32-4,29398160,11
32-5,29402066,-31
32-6,29405972,-66
32-7,29409878,-80
32-8,29413784,-76
32-9,29417690,-59
32-10,29421596,-28
32-11,29425502,9
32-12,29429408,31
32-13,29433314,22
32-14,29437220,0
32-15,29441126,-12
32-16,29445032,-3
32-17,29448938,10
32-18,29452844,10
32-19,29456750,-6
32-20,29460656,-23
32-21,29464562,-33
32-22,29468468,-39
32-23,29472374,-31
32-24,29476280,-24
32-25,29480186,-34
32-26,29484092,-44
32-27,29487998,-37
32-28,29491904,-8
32-29,29495810,19
32-30,29499716,13
32-31,29503622,-16
32-32,29507528,-31
32-1,29511561,-21
32-2,29515467,-5
32-3,29519373,-3
32-4,29523279,-22
32-5,29527185,-28
32-6,29531091,-27
32-7,29534997,-29
32-8,29538903,-35
32-9,29542809,-38
32-10,29546715,-34
32-11,29550621,-34
32-12,29554527,-40
32-13,29558433,-50
32-14,29562339,-61
32-15,29566245,-76
32-16,29570151,-85
32-17,29574057,-80
32-18,29577963,-71
32-19,29581869,-66
32-20,29585775,-75
32-21,29589681,-91
32-22,29593587,-104
32-23,29597493,-99
32-24,29601399,-81
32-25,29605305,-69
32-26,29609211,-45
32-27,29613117,-10
32-28,29617023,14
32-29,29620929,20
32-30,29624835,3
32-31,29628741,-25
32-32,29632647,-44
32-1,29636437,-43
32-2,29640343,-20
32-3,29644249,1
32-4,29648155,-10
32-5,29652061,-26
32-6,29655967,-34
32-7,29659873,-34
32-8,29663779,-30
32-9,29667685,-42
32-10,29671591,-67
32-11,29675497,-92
32-12,29679403,-104
32-13,29683309,-99
32-14,29687215,-86
32-15,29691121,-69
32-16,29695027,-50
32-17,29698933,-32
32-18,29702839,-13
32-19,29706745,18
32-20,29710651,60
32-21,29714557,95
32-22,29718463,110
32-23,29722369,110
32-24,29726275,93
32-25,29730181,53
32-26,29734087,27
32-27,29737993,38
32-28,29741899,78
32-29,29745805,106
32-30,29749711,79
32-31,29753617,8
32-32,29757523,-58
32-1,29761435,-98
32-2,29765341,-111
32-3,29769247,-112
32-4,29773153,-116
32-5,29777059,-102
32-6,29780965,-86
32-7,29784871,-83
32-8,29788777,-75
32-9,29792683,-59
32-10,29796589,-44
32-11,29800495,-38
32-12,29804401,-37
32-13,29808307,-26
32-14,29812213,3
32-15,29816119,24
32-16,29820025,24
32-17,29823931,3
32-18,29827837,-28
32-19,29831743,-47
32-20,29835649,-47
32-21,29839555,-25
32-22,29843461,-1
32-23,29847367,11
32-24,29851273,-3
32-25,29855179,-31
32-26,29859085,-33
32-27,29862991,-16
32-28,29866897,-6
32-29,29870803,-23
32-30,29874709,-60
32-31,29878615,-88
32-32,29882521,-92
32-1,29886432,-80
32-2,29890338,-61
32-3,29894244,-52
32-4,29898150,-60
32-5,29902056,-63
32-6,29905962,-51
32-7,29909868,-37
32-8,29913774,-26
32-9,29917680,-26
32-10,29921586,-31
32-11,29925492,-27
32-12,29929398,-19
32-13,29933304,-25
32-14,29937210,-45
32-15,29941116,-59
32-16,29945022,-48
32-17,29948928,-24
32-18,29952834,-5
32-19,29956740,9
32-20,29960646,14
32-21,29964552,18
32-22,29968458,19
32-23,29972364,17
32-24,29976270,2
32-25,29980176,-36
32-26,29984082,-65
32-27,29987988,-60
32-28,29991894,-27
32-29,29995800,4
32-30,29999706,-3
32-31,30003612,-41
32-32,30007518,-76
32-1,30011430,-89
32-2,30015336,-82
32-3,30019242,-72
32-4,30023148,-62
32-5,30027054,-45
32-6,30030960,-40
32-7,30034866,-54
32-8,30038772,-72
32-9,30042678,-84
32-10,30046584,-90
32-11,30050490,-98
32-12,30054396,-99
32-13,30058302,-85
32-14,30062208,-60
32-15,30066114,-41
32-16,30070020,-34
32-17,30073926,-25
32-18,30077832,-14
32-19,30081738,-8
32-20,30085644,-18
32-21,30089550,-29
32-22,30093456,-36
32-23,30097362,-25
32-24,30101268,-10
32-25,30105174,5
32-26,30109080,30
32-27,30112986,47
32-28,30116892,39
32-29,30120798,1
32-30,30124704,-54
32-31,30128610,-97
32-32,30132516,-110
32-1,30136550,-93
32-2,30140456,-49
32-3,30144362,-7
32-4,30148268,0
32-5,30152174,-16
32-6,30156080,-40
32-7,30159986,-50
32-8,30163892,-35
32-9,30167798,-15
32-10,30171704,0
32-11,30175610,0
32-12,30179516,-11
32-13,30183422,-31
32-14,30187328,-54
32-15,30191234,-73
32-16,30195140,-89
32-17,30199046,-106
32-18,30202952,-119
32-19,30206858,-112
32-20,30210764,-88
32-21,30214670,-61
32-22,30218576,-52
32-23,30222482,-57
32-24,30226388,-73
32-25,30230294,-98
32-26,30234200,-110
32-27,30238106,-92
32-28,30242012,-33
32-29,30245918,36
32-30,30249824,68
32-31,30253730,51
32-32,30257636,17
32-1,30261456,-7
32-2,30265362,-6
32-3,30269268,13
32-4,30273174,35
32-5,30277080,60
32-6,30280986,67
32-7,30284892,49
32-8,30288798,25
32-9,30292704,16
32-10,30296610,29
32-11,30300516,37
32-12,30304422,26
32-13,30308328,2
32-14,30312234,-17
32-15,30316140,-26
32-16,30320046,-33
32-17,30323952,-38
32-18,30327858,-34
32-19,30331764,-18
32-20,30335670,-3
32-21,30339576,8
32-22,30343482,-2
32-23,30347388,-18
32-24,30351294,-33
32-25,30355200,-45
32-26,30359106,-28
32-27,30363012,13
32-28,30366918,50
32-29,30370824,63
32-30,30374730,34
32-31,30378636,-20
32-32,30382542,-65
32-1,30386423,-83
32-2,30390329,-66
32-3,30394235,-38
32-4,30398141,-36
32-5,30402047,-48
32-6,30405953,-57
32-7,30409859,-54
32-8,30413765,-40
32-9,30417671,-35
32-10,30421577,-39
32-11,30425483,-45
32-12,30429389,-49
32-13,30433295,-57
32-14,30437201,-77
32-15,30441107,-105
32-16,30445013,-123
32-17,30448919,-129
32-18,30452825,-123
32-19,30456731,-113
32-20,30460637,-106
32-21,30464543,-100
32-22,30468449,-100
32-23,30472355,-96
32-24,30476261,-90
32-25,30480167,-106
32-26,30484073,-116
32-27,30487979,-103
32-28,30491885,-66
32-29,30495791,-38
32-30,30499697,-55
32-31,30503603,-105
32-32,30507509,-141
32-1,30620416,-138
32-2,30620806,-109
32-3,30621196,-79
32-4,30621586,-58
32-5,30621976,-29
32-6,30622366,5
32-7,30622756,28
32-8,30623146,36
32-9,30623536,37
32-10,30623926,33
32-11,30624316,20
32-12,30624706,6
32-13,30625096,-3
32-14,30625486,-7
32-15,30625876,-11
32-16,30626266,-11
32-17,30626656,1
32-18,30627046,23
32-19,30627436,36
32-20,30627826,32
32-21,30628216,16
32-22,30628606,-6
32-23,30628996,-20
32-24,30629386,-34
32-25,30629776,-51
32-26,30630166,-44
32-27,30630556,-12
32-28,30630946,25
32-29,30631336,42
32-30,30631726,25
32-31,30632116,-13
32-32,30632506,-42
32-1,30636418,-56
32-2,30640324,-48
32-3,30644230,-34
32-4,30648136,-38
32-5,30652042,-49
32-6,30655948,-56
32-7,30659854,-52
32-8,30663760,-39
32-9,30667666,-39
32-10,30671572,-48
32-11,30675478,-50
32-12,30679384,-46
32-13,30683290,-47
32-14,30687196,-57
32-15,30691102,-68
32-16,30695008,-61
32-17,30698914,-37
32-18,30702820,-10
32-19,30706726,5
32-20,30710632,2
32-21,30714538,-9
32-22,30718444,-15
32-23,30722350,-9
32-24,30726256,-2
32-25,30730162,-9
32-26,30734068,-12
32-27,30737974,10
32-28,30741880,53
32-29,30745786,85
32-30,30749692,79
32-31,30753598,43
32-32,30757504,16
32-1,30761568,9
32-2,30765474,3
32-3,30769380,-17
32-4,30773286,-41
32-5,30777192,-41
32-6,30781098,-24
32-7,30785004,-13
32-8,30788910,-19
32-9,30792816,-38
32-10,30796722,-61
32-11,30800628,-75
32-12,30804534,-67
32-13,30808440,-42
32-14,30812346,-10
32-15,30816252,5
32-16,30820158,0
32-17,30824064,-9
32-18,30827970,-24
32-19,30831876,-48
32-20,30835782,-83
32-21,30839688,-101
32-22,30843594,-94
32-23,30847500,-66
32-24,30851406,-42
32-25,30855312,-27
32-26,30859218,-2
32-27,30863124,26
32-28,30867030,40
32-29,30870936,29
32-30,30874842,-5
32-31,30878748,-41
32-32,30882654,-60
32-1,30886413,-60
32-2,30890319,-39
32-3,30894225,-18
32-4,30898131,-21
32-5,30902037,-39
32-6,30905943,-60
32-7,30909849,-70
32-8,30913755,-66
32-9,30917661,-61
32-10,30921567,-55
32-11,30925473,-41
32-12,30929379,-17
32-13,30933285,4
32-14,30937191,11
32-15,30941097,9
32-16,30945003,4
32-17,30948909,1
32-18,30952815,1
32-19,30956721,9
32-20,30960627,18
32-21,30964533,18
32-22,30968439,-5
32-23,30972345,-31
32-24,30976251,-60
32-25,30980157,-100
32-26,30984063,-128
32-27,30987969,-122
32-28,30991875,-72
32-29,30995781,-11
32-30,30999687,13
32-31,31003593,-6
32-32,31007499,-29
32-1,31011441,-30
32-2,31015347,-12
32-3,31019253,-2
32-4,31023159,-18
32-5,31027065,-28
32-6,31030971,-24
32-7,31034877,-12
32-8,31038783,-2
32-9,31042689,-3
32-10,31046595,-22
32-11,31050501,-58
32-12,31054407,-90
32-13,31058313,-94
32-14,31062219,-71
32-15,31066125,-43
32-16,31070031,-20
32-17,31073937,2
32-18,31077843,21
32-19,31081749,27
32-20,31085655,9
32-21,31089561,-17
32-22,31093467,-36
32-23,31097373,-29
32-24,31101279,-13
32-25,31105185,-22
32-26,31109091,-27
32-27,31112997,-8
32-28,31116903,25
32-29,31120809,48
32-30,31124715,39
32-31,31128621,-6
32-32,31132527,-60
32-1,31136409,-100
32-2,31140315,-103
32-3,31144221,-81
32-4,31148127,-71
32-5,31152033,-76
32-6,31155939,-94
32-7,31159845,-115
32-8,31163751,-117
32-9,31167657,-100
32-10,31171563,-69
32-11,31175469,-37
32-12,31179375,-5
32-13,31183281,14
32-14,31187187,18
32-15,31191093,12
32-16,31194999,0
32-17,31198905,-13
32-18,31202811,-21
32-19,31206717,-17
32-20,31210623,-4
32-21,31214529,2
32-22,31218435,-14
32-23,31222341,-33
32-24,31226247,-55
32-25,31230153,-86
32-26,31234059,-97
32-27,31237965,-70
32-28,31241871,-14
32-29,31245777,25
32-30,31249683,6
32-31,31253589,-46
32-32,31257495,-69
32-1,31261406,-40
32-2,31265312,13
32-3,31269218,41
32-4,31273124,34
32-5,31277030,35
32-6,31280936,50
32-7,31284842,55
32-8,31288748,44
32-9,31292654,27
32-10,31296560,20
32-11,31300466,18
32-12,31304372,12
32-13,31308278,-2
32-14,31312184,-27
32-15,31316090,-56
32-16,31319996,-68
32-17,31323902,-54
32-18,31327808,-28
32-19,31331714,-12
32-20,31335620,-16
32-21,31339526,-17
32-22,31343432,-7
32-23,31347338,6
32-24,31351244,-1
32-25,31355150,-28
32-26,31359056,-28
32-27,31362962,10
32-28,31366868,55
32-29,31370774,70
32-30,31374680,45
32-31,31378586,1
32-32,31382492,-35
32-1,31386556,-56
32-2,31390462,-54
32-3,31394368,-38
32-4,31398274,-27
32-5,31402180,-15
32-6,31406086,-15
32-7,31409992,-29
32-8,31413898,-49
32-9,31417804,-74
32-10,31421710,-83
32-11,31425616,-76
32-12,31429522,-67
32-13,31433428,-67
32-14,31437334,-74
32-15,31441240,-67
32-16,31445146,-44
32-17,31449052,-26
32-18,31452958,-27
32-19,31456864,-37
32-20,31460770,-39
32-21,31464676,-32
32-22,31468582,-24
32-23,31472488,-9
32-24,31476394,15
32-25,31480300,34
32-26,31484206,50
32-27,31488112,57
32-28,31492018,58
32-29,31495924,49
32-30,31499830,18
32-31,31503736,-17
32-32,31507642,-34
32-1,31511401,-25
32-2,31515307,-5
32-3,31519213,5
32-4,31523119,-5
32-5,31527025,-14
32-6,31530931,-29
32-7,31534837,-47
32-8,31538743,-52
32-9,31542649,-39
32-10,31546555,-19
32-11,31550461,-14
32-12,31554367,-19
32-13,31558273,-24
32-14,31562179,-33
32-15,31566085,-51
32-16,31569991,-76
32-17,31573897,-94
32-18,31577803,-88
32-19,31581709,-64
32-20,31585615,-34
32-21,31589521,-8
32-22,31593427,5
32-23,31597333,10
32-24,31601239,0
32-25,31605145,-14
32-26,31609051,4
32-27,31612957,44
32-28,31616863,74
32-29,31620769,69
32-30,31624675,37
32-31,31628581,0
32-32,31632487,-17
32-1,31636399,-15
32-2,31640305,1
32-3,31644211,9
32-4,31648117,-7
32-5,31652023,-30
32-6,31655929,-54
32-7,31659835,-69
32-8,31663741,-67
32-9,31667647,-51
32-10,31671553,-21
32-11,31675459,11
32-12,31679365,28
32-13,31683271,25
32-14,31687177,20
32-15,31691083,26
32-16,31694989,34
32-17,31698895,26
32-18,31702801,5
32-19,31706707,-2
32-20,31710613,12
32-21,31714519,24
32-22,31718425,8
32-23,31722331,-23
32-24,31726237,-51
32-25,31730143,-71
32-26,31734049,-74
32-27,31737955,-60
32-28,31741861,-34
32-29,31745767,-12
32-30,31749673,-19
32-31,31753579,-45
32-32,31757485,-58
32-1,31761397,-49
32-2,31765303,-33
32-3,31769209,-29
32-4,31773115,-38
32-5,31777021,-32
32-6,31780927,-13
32-7,31784833,10
32-8,31788739,36
32-9,31792645,60
32-10,31796551,68
32-11,31800457,47
32-12,31804363,9
32-13,31808269,-20
32-14,31812175,-27
32-15,31816081,-23
32-16,31819987,-13
32-17,31823893,0
32-18,31827799,6
32-19,31831705,-6
32-20,31835611,-42
32-21,31839517,-75
32-22,31843423,-87
32-23,31847329,-69
32-24,31851235,-43
32-25,31855141,-25
32-26,31859047,8
32-27,31862953,56
32-28,31866859,97
32-29,31870765,103
32-30,31874671,59
32-31,31878577,-10
32-32,31882483,-63
32-1,31886394,-80
32-2,31890300,-59
32-3,31894206,-24
32-4,31898112,-13
32-5,31902018,-13
32-6,31905924,-19
32-7,31909830,-31
32-8,31913736,-44
32-9,31917642,-61
32-10,31921548,-68
32-11,31925454,-54
32-12,31929360,-30
32-13,31933266,-21
32-14,31937172,-30
32-15,31941078,-47
32-16,31944984,-54
32-17,31948890,-52
32-18,31952796,-48
32-19,31956702,-48
32-20,31960608,-50
32-21,31964514,-53
32-22,31968420,-57
32-23,31972326,-44
32-24,31976232,-25
32-25,31980138,-30
32-26,31984044,-44
32-27,31987950,-46
32-28,31991856,-26
32-29,31995762,0
32-30,31999668,4
32-31,32003574,-13
32-32,32007480,-23
32-1,32011392,-14
32-2,32015298,3
32-3,32019204,9
32-4,32023110,-1
32-5,32027016,4
32-6,32030922,6
32-7,32034828,-12
32-8,32038734,-35
32-9,32042640,-47
32-10,32046546,-33
32-11,32050452,-7
32-12,32054358,22
32-13,32058264,45
32-14,32062170,53
32-15,32066076,42
32-16,32069982,18
32-17,32073888,1
32-18,32077794,-4
32-19,32081700,-6
32-20,32085606,-17
32-21,32089512,-30
32-22,32093418,-36
32-23,32097324,-26
32-24,32101230,-17
32-25,32105136,-17
32-26,32109042,-8
32-27,32112948,8
32-28,32116854,17
32-29,32120760,5
32-30,32124666,-24
32-31,32128572,-52
32-32,32132478,-67
32-1,32136390,-67
32-2,32140296,-53
32-3,32144202,-33
32-4,32148108,-18
32-5,32152014,-9
32-6,32155920,-11
32-7,32159826,-26
32-8,32163732,-50
32-9,32167638,-72
32-10,32171544,-75
32-11,32175450,-67
32-12,32179356,-56
32-13,32183262,-55
32-14,32187168,-57
32-15,32191074,-48
32-16,32194980,-39
32-17,32198886,-47
32-18,32202792,-73
32-19,32206698,-98
32-20,32210604,-109
32-21,32214510,-107
32-22,32218416,-103
32-23,32222322,-86
32-24,32226228,-66
32-25,32230134,-66
32-26,32234040,-66
32-27,32237946,-44
32-28,32241852,9
32-29,32245758,62
32-30,32249664,65
32-31,32253570,22
32-32,32257476,-20
32-1,32261387,-33
32-2,32265293,-26
32-3,32269199,-28
32-4,32273105,-43
32-5,32277011,-45
32-6,32280917,-38
32-7,32284823,-30
32-8,32288729,-21
32-9,32292635,-14
32-10,32296541,-20
32-11,32300447,-52
32-12,32304353,-91
32-13,32308259,-112
32-14,32312165,-111
32-15,32316071,-102
32-16,32319977,-98
32-17,32323883,-89
32-18,32327789,-70
32-19,32331695,-53
32-20,32335601,-47
32-21,32339507,-46
32-22,32343413,-38
32-23,32347319,-16
32-24,32351225,-8
32-25,32355131,-27
32-26,32359037,-42
32-27,32362943,-38
32-28,32366849,-24
32-29,32370755,-21
32-30,32374661,-44
32-31,32378567,-66
32-32,32382473,-64
32-1,32386385,-35
32-2,32390291,2
32-3,32394197,14
32-4,32398103,-11
32-5,32402009,-38
32-6,32405915,-51
32-7,32409821,-49
32-8,32413727,-44
32-9,32417633,-51
32-10,32421539,-52
32-11,32425445,-36
32-12,32429351,-12
32-13,32433257,-1
32-14,32437163,-13
32-15,32441069,-28
32-16,32444975,-30
32-17,32448881,-21
32-18,32452787,-9
32-19,32456693,-4
32-20,32460599,-19
32-21,32464505,-56
32-22,32468411,-100
32-23,32472317,-109
32-24,32476223,-72
32-25,32480129,-27
32-26,32484035,9
32-27,32487941,35
32-28,32491847,65
32-29,32495753,93
32-30,32499659,82
32-31,32503565,24
32-32,32507471,-45
32-1,32511413,-83
32-2,32515319,-74
32-3,32519225,-45
32-4,32523131,-27
32-5,32527037,-17
32-6,32530943,-13
32-7,32534849,-14
32-8,32538755,-9
32-9,32542661,0
32-10,32546567,5
32-11,32550473,-8
32-12,32554379,-28
32-13,32558285,-40
32-14,32562191,-44
32-15,32566097,-37
32-16,32570003,-28
32-17,32573909,-28
32-18,32577815,-45
32-19,32581721,-78
32-20,32585627,-105
32-21,32589533,-100
32-22,32593439,-77
32-23,32597345,-51
32-24,32601251,-43
32-25,32605157,-63
32-26,32609063,-66
32-27,32612969,-40
32-28,32616875,-6
32-29,32620781,15
32-30,32624687,2
32-31,32628593,-35
32-32,32632499,-70
32-1,32636380,-84
32-2,32640286,-64
32-3,32644192,-27
32-4,32648098,-15
32-5,32652004,-12
32-6,32655910,-4
32-7,32659816,3
32-8,32663722,8
32-9,32667628,1
32-10,32671534,-2
32-11,32675440,5
32-12,32679346,12
32-13,32683252,5
32-14,32687158,-10
32-15,32691064,-19
32-16,32694970,-11
32-17,32698876,-6
32-18,32702782,-28
32-19,32706688,-64
32-20,32710594,-89
32-21,32714500,-92
32-22,32718406,-82
32-23,32722312,-64
32-24,32726218,-56
32-25,32730124,-76
32-26,32734030,-99
32-27,32737936,-98
32-28,32741842,-67
32-29,32745748,-35
32-30,32749654,-31
32-31,32753560,-49
32-32,32757466,-47
32-1,32761378,-25
32-2,32765284,-6
32-3,32769190,-11
32-4,32773096,-35
32-5,32777002,-44
32-6,32780908,-39
32-7,32784814,-41
32-8,32788720,-41
32-9,32792626,-33
32-10,32796532,-18
32-11,32800438,-9
32-12,32804344,-14
32-13,32808250,-19
32-14,32812156,-16
32-15,32816062,-21
32-16,32819968,-42
32-17,32823874,-74
32-18,32827780,-103
32-19,32831686,-115
32-20,32835592,-111
32-21,32839498,-88
32-22,32843404,-57
32-23,32847310,-33
32-24,32851216,-31
32-25,32855122,-41
32-26,32859028,-26
32-27,32862934,22
32-28,32866840,72
32-29,32870746,100
32-30,32874652,91
32-31,32878558,54
32-32,32882464,18
32-1,32886375,-1
32-2,32890281,-2
32-3,32894187,0
32-4,32898093,-8
32-5,32901999,-6
32-6,32905905,8
32-7,32909811,25
32-8,32913717,27
32-9,32917623,8
32-10,32921529,-21
32-11,32925435,-41
32-12,32929341,-51
32-13,32933247,-65
32-14,32937153,-72
32-15,32941059,-63
32-16,32944965,-40
32-17,32948871,-24
32-18,32952777,-25
32-19,32956683,-37
32-20,32960589,-42
32-21,32964495,-35
32-22,32968401,-25
32-23,32972307,-4
32-24,32976213,11
32-25,32980119,3
32-26,32984025,-3
32-27,32987931,7
32-28,32991837,41
32-29,32995743,70
32-30,32999649,51
32-31,33003555,-5
32-32,33007461,-53
32-1,33011373,-71
32-2,33015279,-52
32-3,33019185,-28
32-4,33023091,-13
32-5,33026997,2
32-6,33030903,4
32-7,33034809,-14
32-8,33038715,-38
32-9,33042621,-57
32-10,33046527,-57
32-11,33050433,-41
32-12,33054339,-15
32-13,33058245,13
32-14,33062151,25
32-15,33066057,6
32-16,33069963,-36
32-17,33073869,-77
32-18,33077775,-110
32-19,33081681,-132
32-20,33085587,-142
32-21,33089493,-123
32-22,33093399,-86
32-23,33097305,-48
32-24,33101211,-30
32-25,33105117,-46
32-26,33109023,-63
32-27,33112929,-64
32-28,33116835,-44
32-29,33120741,-13
32-30,33124647,8
32-31,33128553,7
32-32,33132459,-9
32-1,33136371,-26
32-2,33140277,-15
32-3,33144183,19
32-4,33148089,46
32-5,33151995,52
32-6,33155901,45
32-7,33159807,35
32-8,33163713,30
32-9,33167619,26
32-10,33171525,29
32-11,33175431,34
32-12,33179337,37
32-13,33183243,27
32-14,33187149,13
32-15,33191055,11
32-16,33194961,24
32-17,33198867,33
32-18,33202773,29
32-19,33206679,21
32-20,33210585,21
32-21,33214491,31
32-22,33218397,32
32-23,33222303,27
32-24,33226209,19
32-25,33230115,6
32-26,33234021,9
32-27,33237927,25
32-28,33241833,40
32-29,33245739,36
32-30,33249645,7
32-31,33253551,-25
32-32,33257457,-30
32-1,33261429,-15
32-2,33265335,5
32-3,33269241,19
32-4,33273147,29
32-5,33277053,58
32-6,33280959,82
32-7,33284865,81
32-8,33288771,68
32-9,33292677,60
32-10,33296583,63
32-11,33300489,67
32-12,33304395,67
32-13,33308301,60
32-14,33312207,47
32-15,33316113,26
32-16,33320019,14
32-17,33323925,23
32-18,33327831,47
32-19,33331737,60
32-20,33335643,45
32-21,33339549,17
32-22,33343455,0
32-23,33347361,7
32-24,33351267,15
32-25,33355173,-1
32-26,33359079,-10
32-27,33362985,4
32-28,33366891,36
32-29,33370797,63
32-30,33374703,49
32-31,33378609,1
32-32,33382515,-50
32-1,33386366,-77
32-2,33390272,-75
32-3,33394178,-61
32-4,33398084,-73
32-5,33401990,-85
32-6,33405896,-84
32-7,33409802,-70
32-8,33413708,-53
32-9,33417614,-49
32-10,33421520,-56
32-11,33425426,-66
32-12,33429332,-79
32-13,33433238,-103
32-14,33437144,-126
32-15,33441050,-130
32-16,33444956,-110
32-17,33448862,-80
32-18,33452768,-66
32-19,33456674,-67
32-20,33460580,-72
32-21,33464486,-77
32-22,33468392,-84
32-23,33472298,-83
32-24,33476204,-70
32-25,33480110,-60
32-26,33484016,-43
32-27,33487922,-15
32-28,33491828,14
32-29,33495734,18
32-30,33499640,-16
32-31,33503546,-62
32-32,33507452,-74
32-1,33511364,-54
32-2,33515270,-33
32-3,33519176,-42
32-4,33523082,-78
32-5,33526988,-90
32-6,33530894,-64
32-7,33534800,-33
32-8,33538706,-17
32-9,33542612,-25
32-10,33546518,-47
32-11,33550424,-67
32-12,33554330,-80
32-13,33558236,-86
32-14,33562142,-84
32-15,33566048,-80
32-16,33569954,-68
32-17,33573860,-56
32-18,33577766,-55
32-19,33581672,-65
32-20,33585578,-74
32-21,33589484,-63
32-22,33593390,-31
32-23,33597296,9
32-24,33601202,28
32-25,33605108,27
32-26,33609014,34
32-27,33612920,44
32-28,33616826,47
32-29,33620732,32
32-30,33624638,4
32-31,33628544,-23
32-32,33632450,-46
32-1,33636361,-69
32-2,33640267,-82
32-3,33644173,-87
32-4,33648079,-96
32-5,33651985,-97
32-6,33655891,-95
32-7,33659797,-84
32-8,33663703,-63
32-9,33667609,-45
32-10,33671515,-25
32-11,33675421,1
32-12,33679327,25
32-13,33683233,32
32-14,33687139,18
32-15,33691045,-10
32-16,33694951,-38
32-17,33698857,-56
32-18,33702763,-63
32-19,33706669,-62
32-20,33710575,-56
32-21,33714481,-52
32-22,33718387,-54
32-23,33722293,-45
32-24,33726199,-25
32-25,33730105,-9
32-26,33734011,8
32-27,33737917,25
32-28,33741823,45
32-29,33745729,52
32-30,33749635,28
32-31,33753541,-16
32-32,33757447,-50
32-1,33761359,-58
32-2,33765265,-51
32-3,33769171,-52
32-4,33773077,-70
32-5,33776983,-87
32-6,33780889,-105
32-7,33784795,-126
32-8,33788701,-143
32-9,33792607,-153
32-10,33796513,-153
32-11,33800419,-139
32-12,33804325,-110
32-13,33808231,-75
32-14,33812137,-60
32-15,33816043,-79
32-16,33819949,-111
32-17,33823855,-125
32-18,33827761,-113
32-19,33831667,-95
32-20,33835573,-86
32-21,33839479,-72
32-22,33843385,-52
32-23,33847291,-33
32-24,33851197,-37
32-25,33855103,-63
32-26,33859009,-68
32-27,33862915,-40
32-28,33866821,-5
32-29,33870727,2
32-30,33874633,-27
32-31,33878539,-64
32-32,33882445,-80
32-1,33886356,-77
32-2,33890262,-61
32-3,33894168,-49
32-4,33898074,-60
32-5,33901980,-72
32-6,33905886,-75
32-7,33909792,-73
32-8,33913698,-61
32-9,33917604,-48
32-10,33921510,-43
32-11,33925416,-51
32-12,33929322,-74
32-13,33933228,-109
32-14,33937134,-133
32-15,33941040,-136
32-16,33944946,-124
32-17,33948852,-118
32-18,33952758,-121
32-19,33956664,-115
32-20,33960570,-93
32-21,33964476,-67
32-22,33968382,-58
32-23,33972288,-53
32-24,33976194,-48
32-25,33980100,-42
32-26,33984006,-21
32-27,33987912,9
32-28,33991818,32
32-29,33995724,30
32-30,33999630,-4
32-31,34003536,-42
32-32,34007442,-51
32-1,34011415,-30
32-2,34015321,-7
32-3,34019227,-15
32-4,34023133,-47
32-5,34027039,-62
32-6,34030945,-65
32-7,34034851,-57
32-8,34038757,-46
32-9,34042663,-37
32-10,34046569,-39
32-11,34050475,-60
32-12,34054381,-86
32-13,34058287,-93
32-14,34062193,-85
32-15,34066099,-77
32-16,34070005,-82
32-17,34073911,-93
32-18,34077817,-98
32-19,34081723,-90
32-20,34085629,-81
32-21,34089535,-77
32-22,34093441,-78
32-23,34097347,-76
32-24,34101253,-75
32-25,34105159,-83
32-26,34109065,-74
32-27,34112971,-43
32-28,34116877,-6
32-29,34120783,12
32-30,34124689,-9
32-31,34128595,-56
32-32,34132501,-103
32-1,34136352,-123
32-2,34140258,-108
32-3,34144164,-86
32-4,34148070,-98
32-5,34151976,-123
32-6,34155882,-142
32-7,34159788,-144
32-8,34163694,-131
32-9,34167600,-120
32-10,34171506,-111
32-11,34175412,-102
32-12,34179318,-99
32-13,34183224,-105
32-14,34187130,-111
32-15,34191036,-107
32-16,34194942,-96
32-17,34198848,-102
32-18,34202754,-123
32-19,34206660,-128
32-20,34210566,-106
32-21,34214472,-80
32-22,34218378,-83
32-23,34222284,-105
32-24,34226190,-117
32-25,34230096,-116
32-26,34234002,-88
32-27,34237908,-43
32-28,34241814,4
32-29,34245720,34
32-30,34249626,27
32-31,34253532,-9
32-32,34257438,-38
32-1,34261349,-55
32-2,34265255,-70
32-3,34269161,-89
32-4,34273067,-109
32-5,34276973,-102
32-6,34280879,-83
32-7,34284785,-80
32-8,34288691,-87
32-9,34292597,-90
32-10,34296503,-78
32-11,34300409,-66
32-12,34304315,-54
32-13,34308221,-35
32-14,34312127,-11
32-15,34316033,0
32-16,34319939,-18
32-17,34323845,-54
32-18,34327751,-87
32-19,34331657,-105
32-20,34335563,-113
32-21,34339469,-114
32-22,34343375,-103
32-23,34347281,-84
32-24,34351187,-70
32-25,34355093,-77
32-26,34358999,-75
32-27,34362905,-54
32-28,34366811,-19
32-29,34370717,9
32-30,34374623,7
32-31,34378529,-24
32-32,34382435,-66
32-1,34386347,-102
32-2,34390253,-113
32-3,34394159,-111
32-4,34398065,-118
32-5,34401971,-124
32-6,34405877,-119
32-7,34409783,-98
32-8,34413689,-65
32-9,34417595,-40
32-10,34421501,-28
32-11,34425407,-24
32-12,34429313,-28
32-13,34433219,-48
32-14,34437125,-76
32-15,34441031,-96
32-16,34444937,-102
32-17,34448843,-100
32-18,34452749,-98
32-19,34456655,-91
32-20,34460561,-77
32-21,34464467,-63
32-22,34468373,-53
32-23,34472279,-39
32-24,34476185,-33
32-25,34480091,-51
32-26,34483997,-78
32-27,34487903,-90
32-28,34491809,-69
32-29,34495715,-35
32-30,34499621,-31
32-31,34503527,-54
32-32,34507433,-76
32-1,34511345,-70
32-2,34515251,-50
32-3,34519157,-43
32-4,34523063,-50
32-5,34526969,-44
32-6,34530875,-36
32-7,34534781,-45
32-8,34538687,-71
32-9,34542593,-97
32-10,34546499,-107
32-11,34550405,-100
32-12,34554311,-86
32-13,34558217,-71
32-14,34562123,-73
32-15,34566029,-96
32-16,34569935,-118
32-17,34573841,-113
32-18,34577747,-80
32-19,34581653,-43
32-20,34585559,-30
32-21,34589465,-31
32-22,34593371,-35
32-23,34597277,-39
32-24,34601183,-52
32-25,34605089,-78
32-26,34608995,-83
32-27,34612901,-55
32-28,34616807,-20
32-29,34620713,-6
32-30,34624619,-18
32-31,34628525,-46
32-32,34632431,-64
32-1,34636342,-67
32-2,34640248,-59
32-3,34644154,-48
32-4,34648060,-51
32-5,34651966,-57
32-6,34655872,-53
32-7,34659778,-42
32-8,34663684,-29
32-9,34667590,-20
32-10,34671496,-13
32-11,34675402,2
32-12,34679308,17
32-13,34683214,13
32-14,34687120,-10
32-15,34691026,-29
32-16,34694932,-24
32-17,34698838,0
32-18,34702744,21
32-19,34706650,34
32-20,34710556,30
32-21,34714462,10
32-22,34718368,-17
32-23,34722274,-24
32-24,34726180,-7
32-25,34730086,7
32-26,34733992,17
32-27,34737898,26
32-28,34741804,41
32-29,34745710,49
32-30,34749616,26
32-31,34753522,-30
32-32,34757428,-76
32-1,34761431,-81
32-2,34765337,-46
32-3,34769243,-1
32-4,34773149,23
32-5,34777055,42
32-6,34780961,49
32-7,34784867,43
32-8,34788773,33
32-9,34792679,22
32-10,34796585,8
32-11,34800491,-7
32-12,34804397,-20
32-13,34808303,-21
32-14,34812209,-11
32-15,34816115,-5
32-16,34820021,2
32-17,34823927,17
32-18,34827833,31
32-19,34831739,30
32-20,34835645,13
32-21,34839551,-1
32-22,34843457,-5
32-23,34847363,-8
32-24,34851269,-30
32-25,34855175,-71
32-26,34859081,-91
32-27,34862987,-77
32-28,34866893,-55
32-29,34870799,-47
32-30,34874705,-58
32-31,34878611,-71
32-32,34882517,-74
32-1,34886337,-71
32-2,34890243,-69
32-3,34894149,-74
32-4,34898055,-100
32-5,34901961,-121
32-6,34905867,-125
32-7,34909773,-105
32-8,34913679,-70
32-9,34917585,-50
32-10,34921491,-57
32-11,34925397,-78
32-12,34929303,-93
32-13,34933209,-98
32-14,34937115,-88
32-15,34941021,-65
32-16,34944927,-39
32-17,34948833,-24
32-18,34952739,-16
32-19,34956645,-6
32-20,34960551,5
32-21,34964457,2
32-22,34968363,-21
32-23,34972269,-42
32-24,34976175,-53
32-25,34980081,-74
32-26,34983987,-83
32-27,34987893,-68
32-28,34991799,-27
32-29,34995705,11
32-30,34999611,1
32-31,35003517,-54
32-32,35007423,-100
32-1,35011335,-104
32-2,35015241,-70
32-3,35019147,-36
32-4,35023053,-25
32-5,35026959,-19
32-6,35030865,-22
32-7,35034771,-38
32-8,35038677,-50
32-9,35042583,-54
32-10,35046489,-53
32-11,35050395,-55
32-12,35054301,-54
32-13,35058207,-39
32-14,35062113,-25
32-15,35066019,-30
32-16,35069925,-48
32-17,35073831,-48
32-18,35077737,-17
32-19,35081643,20
32-20,35085549,27
32-21,35089455,7
32-22,35093361,-20
32-23,35097267,-34
32-24,35101173,-43
32-25,35105079,-50
32-26,35108985,-31
32-27,35112891,19
32-28,35116797,77
32-29,35120703,110
32-30,35124609,96
32-31,35128515,53
32-32,35132421,11
32-1,35136333,-8
32-2,35140239,2
32-3,35144145,24
32-4,35148051,36
32-5,35151957,55
32-6,35155863,73
32-7,35159769,79
32-8,35163675,61
32-9,35167581,23
32-10,35171487,-11
32-11,35175393,-21
32-12,35179299,-19
32-13,35183205,-22
32-14,35187111,-29
32-15,35191017,-20
32-16,35194923,5
32-17,35198829,27
32-18,35202735,26
32-19,35206641,13
32-20,35210547,1
32-21,35214453,-6
32-22,35218359,-11
32-23,35222265,-4
32-24,35226171,2
32-25,35230077,-10
32-26,35233983,-23
32-27,35237889,-23
32-28,35241795,3
32-29,35245701,30
32-30,35249607,23
32-31,35253513,-13
32-32,35257419,-41
32-1,35261330,-40
32-2,35265236,-17
32-3,35269142,-3
32-4,35273048,-9
32-5,35276954,-16
32-6,35280860,-25
32-7,35284766,-39
32-8,35288672,-47
32-9,35292578,-42
32-10,35296484,-32
32-11,35300390,-27
32-12,35304296,-29
32-13,35308202,-29
32-14,35312108,-25
32-15,35316014,-33
32-16,35319920,-50
32-17,35323826,-59
32-18,35327732,-56
32-19,35331638,-49
32-20,35335544,-45
32-21,35339450,-45
32-22,35343356,-48
32-23,35347262,-48
32-24,35351168,-54
32-25,35355074,-59
32-26,35358980,-39
32-27,35362886,-9
32-28,35366792,10
32-29,35370698,2
32-30,35374604,-24
32-31,35378510,-40
32-32,35382416,-40
32-1,35386328,-38
32-2,35390234,-33
32-3,35394140,-30
32-4,35398046,-32
32-5,35401952,-24
32-6,35405858,-13
32-7,35409764,-4
32-8,35413670,6
32-9,35417576,11
32-10,35421482,22
32-11,35425388,37
32-12,35429294,40
32-13,35433200,9
32-14,35437106,-35
32-15,35441012,-59
32-16,35444918,-43
32-17,35448824,-8
32-18,35452730,10
32-19,35456636,-1
32-20,35460542,-26
32-21,35464448,-50
32-22,35468354,-65
32-23,35472260,-61
32-24,35476166,-55
32-25,35480072,-61
32-26,35483978,-59
32-27,35487884,-43
32-28,35491790,-15
32-29,35495696,1
32-30,35499602,-16
32-31,35503508,-52
32-32,35507414,-73
32-1,35511448,-69
32-2,35515354,-53
32-3,35519260,-44
32-4,35523166,-46
32-5,35527072,-33
32-6,35530978,-19
32-7,35534884,-21
32-8,35538790,-34
32-9,35542696,-34
32-10,35546602,-18
32-11,35550508,-5
32-12,35554414,-2
32-13,35558320,-15
32-14,35562226,-37
32-15,35566132,-65
32-16,35570038,-90
32-17,35573944,-100
32-18,35577850,-97
32-19,35581756,-88
32-20,35585662,-80
32-21,35589568,-73
32-22,35593474,-71
32-23,35597380,-65
32-24,35601286,-60
32-25,35605192,-64
32-26,35609098,-43
32-27,35613004,3
32-28,35616910,51
32-29,35620816,76
32-30,35624722,66
32-31,35628628,31
32-32,35632534,-6
32-1,35636384,-30
32-2,35640290,-31
32-3,35644196,-23
32-4,35648102,-39
32-5,35652008,-60
32-6,35655914,-72
32-7,35659820,-70
32-8,35663726,-57
32-9,35667632,-49
32-10,35671538,-50
32-11,35675444,-48
32-12,35679350,-40
32-13,35683256,-35
32-14,35687162,-34
32-15,35691068,-28
32-16,35694974,-21
32-17,35698880,-25
32-18,35702786,-42
32-19,35706692,-53
32-20,35710598,-48
32-21,35714504,-36
32-22,35718410,-43
32-23,35722316,-54
32-24,35726222,-59
32-25,35730128,-70
32-26,35734034,-69
32-27,35737940,-48
32-28,35741846,-8
32-29,35745752,29
32-30,35749658,26
32-31,35753564,-19
32-32,35757470,-57
32-1,35761321,-65
32-2,35765227,-44
32-3,35769133,-22
32-4,35773039,-23
32-5,35776945,-20
32-6,35780851,-16
32-7,35784757,-29
32-8,35788663,-47
32-9,35792569,-57
32-10,35796475,-45
32-11,35800381,-24
32-12,35804287,-7
32-13,35808193,4
32-14,35812099,2
32-15,35816005,-12
32-16,35819911,-18
32-17,35823817,-11
32-18,35827723,11
32-19,35831629,30
32-20,35835535,25
32-21,35839441,8
32-22,35843347,-12
32-23,35847253,-25
32-24,35851159,-35
32-25,35855065,-51
32-26,35858971,-50
32-27,35862877,-16
32-28,35866783,33
32-29,35870689,69
32-30,35874595,69
32-31,35878501,30
32-32,35882407,-30
32-1,35886319,-81
32-2,35890225,-98
32-3,35894131,-87
32-4,35898037,-72
32-5,35901943,-54
32-6,35905849,-35
32-7,35909755,-18
32-8,35913661,-12
32-9,35917567,-17
32-10,35921473,-25
32-11,35925379,-24
32-12,35929285,-19
32-13,35933191,-32
32-14,35937097,-67
32-15,35941003,-96
32-16,35944909,-100
32-17,35948815,-77
32-18,35952721,-38
32-19,35956627,3
32-20,35960533,25
32-21,35964439,15
32-22,35968345,-26
32-23,35972251,-64
32-24,35976157,-80
32-25,35980063,-70
32-26,35983969,-33
32-27,35987875,7
32-28,35991781,32
32-29,35995687,24
32-30,35999593,-26
32-31,36003499,-91
32-32,36007405,-125
32-1,36011316,-111
32-2,36015222,-74
32-3,36019128,-46
32-4,36023034,-31
32-5,36026940,-19
32-6,36030846,-14
32-7,36034752,-17
32-8,36038658,-21
32-9,36042564,-27
32-10,36046470,-35
32-11,36050376,-55
32-12,36054282,-70
32-13,36058188,-68
32-14,36062094,-49
32-15,36066000,-27
32-16,36069906,-17
32-17,36073812,-17
32-18,36077718,-19
32-19,36081624,-23
32-20,36085530,-29
32-21,36089436,-31
32-22,36093342,-29
32-23,36097248,-25
32-24,36101154,-31
32-25,36105060,-40
32-26,36108966,-26
32-27,36112872,3
32-28,36116778,24
32-29,36120684,25
32-30,36124590,7
32-31,36128496,-13
32-32,36132402,-27
32-1,36136314,-39
32-2,36140220,-43
32-3,36144126,-47
32-4,36148032,-64
32-5,36151938,-73
32-6,36155844,-66
32-7,36159750,-50
32-8,36163656,-47
32-9,36167562,-72
32-10,36171468,-111
32-11,36175374,-131
32-12,36179280,-116
32-13,36183186,-77
32-14,36187092,-40
32-15,36190998,-16
32-16,36194904,-3
32-17,36198810,1
32-18,36202716,-4
32-19,36206622,-7
32-20,36210528,-5
32-21,36214434,-6
32-22,36218340,-18
32-23,36222246,-28
32-24,36226152,-39
32-25,36230058,-58
32-26,36233964,-70
32-27,36237870,-52
32-28,36241776,-1
32-29,36245682,44
32-30,36249588,40
32-31,36253494,1
32-32,36257400,-23
32-1,36261647,-14
32-2,36265553,11
32-3,36269459,14
32-4,36273365,-11
32-5,36277271,-30
32-6,36281177,-38
32-7,36285083,-46
32-8,36288989,-54
32-9,36292895,-63
32-10,36296801,-65
32-11,36300707,-66
32-12,36304613,-61
32-13,36308519,-47
32-14,36312425,-37
32-15,36316331,-41
32-16,36320237,-42
32-17,36324143,-26
32-18,36328049,8
32-19,36331955,28
32-20,36335861,21
32-21,36339767,6
32-22,36343673,-2
32-23,36347579,0
32-24,36351485,-12
32-25,36355391,-52
32-26,36359297,-76
32-27,36363203,-70
32-28,36367109,-50
32-29,36371015,-49
32-30,36374921,-85
32-31,36378827,-142
32-32,36382733,-190
32-1,36386309,-211
32-2,36390215,-192
32-3,36394121,-151
32-4,36398027,-119
32-5,36401933,-87
32-6,36405839,-65
32-7,36409745,-53
32-8,36413651,-53
32-9,36417557,-59
32-10,36421463,-50
32-11,36425369,-13
32-12,36429275,38
32-13,36433181,70
32-14,36437087,69
32-15,36440993,36
32-16,36444899,-8
32-17,36448805,-49
32-18,36452711,-73
32-19,36456617,-74
32-20,36460523,-57
32-21,36464429,-41
32-22,36468335,-35
32-23,36472241,-19
32-24,36476147,4
32-25,36480053,5
32-26,36483959,-2
32-27,36487865,1
32-28,36491771,23
32-29,36495677,39
32-30,36499583,11
32-31,36503489,-52
32-32,36507395,-91
32-1,36511307,-82
32-2,36515213,-44
32-3,36519119,-13
32-4,36523025,-6
32-5,36526931,2
32-6,36530837,5
32-7,36534743,-11
32-8,36538649,-31
32-9,36542555,-34
32-10,36546461,-17
32-11,36550367,-5
32-12,36554273,-9
32-13,36558179,-23
32-14,36562085,-30
32-15,36565991,-30
32-16,36569897,-37
32-17,36573803,-51
