32-1,91147936,557
32-2,91151842,-4188
32-3,91155748,-7278
32-4,91159654,-6783
32-5,91163560,-2641
32-6,91167466,2521
32-7,91171372,4751
32-8,91175278,2889
32-9,91179184,-1081
32-10,91183090,-3857
32-11,91186996,-3215
32-12,91190902,-18
32-13,91194808,3746
32-14,91198714,5888
32-15,91202620,4789
32-16,91206526,1167
32-17,91210432,-2952
32-18,91214338,-5251
32-19,91218244,-4272
32-20,91222150,-462
32-21,91226056,4019
32-22,91229962,5929
32-23,91233868,4113
32-24,91237774,237
32-25,91241680,-3101
32-26,91245586,-4076
32-27,91249492,-2677
32-28,91253398,231
32-29,91257304,2990
32-30,91261210,3946
32-31,91265116,2516
32-32,91269022,-992
32-1,91272934,-5073
32-2,91276840,-7168
32-3,91280746,-5598
32-4,91284652,-786
32-5,91288558,3838
32-6,91292464,4645
32-7,91296370,1777
32-8,91300276,-2206
32-9,91304182,-4020
32-10,91308088,-2404
32-11,91311994,1188
32-12,91315900,4799
32-13,91319806,6160
32-14,91323712,4200
32-15,91327618,173
32-16,91331524,-3685
32-17,91335430,-5161
32-18,91339336,-3306
32-19,91343242,899
32-20,91347148,4896
32-21,91351054,5703
32-22,91354960,2864
32-23,91358866,-1272
32-24,91362772,-3916
32-25,91366678,-3520
32-26,91370584,-831
32-27,91374490,2232
32-28,91378396,3700
32-29,91382302,2815
32-30,91386208,228
32-31,91390114,-3243
32-32,91394020,-6256
32-1,91398328,-7136
32-2,91402234,-4624
32-3,91406140,375
32-4,91410046,4131
32-5,91413952,3879
32-6,91417858,465
32-7,91421764,-3078
32-8,91425670,-3790
32-9,91429576,-1373
32-10,91433482,2374
32-11,91437388,5469
32-12,91441294,5864
32-13,91445200,3164
32-14,91449106,-1007
32-15,91453012,-4420
32-16,91456918,-4990
32-17,91460824,-2269
32-18,91464730,2255
32-19,91468636,5658
32-20,91472542,5424
32-21,91476448,1904
32-22,91480354,-2534
32-23,91484260,-4887
32-24,91488166,-3720
32-25,91492072,32
32-26,91495978,3921
32-27,91499884,5204
32-28,91503790,3267
32-29,91507696,-632
32-30,91511602,-4697
32-31,91515508,-7055
32-32,91519414,-6507
32-1,91522929,-2906
32-2,91526835,2066
32-3,91530741,4746
32-4,91534647,3346
32-5,91538553,-558
32-6,91542459,-3814
32-7,91546365,-3757
32-8,91550271,-721
32-9,91554177,3423
32-10,91558083,6319
32-11,91561989,5845
32-12,91565895,2392
32-13,91569801,-1836
32-14,91573707,-4383
32-15,91577613,-3737
32-16,91581519,-285
32-17,91585425,4007
32-18,91589331,6264
32-19,91593237,4852
32-20,91597143,916
32-21,91601049,-3008
32-22,91604955,-4650
32-23,91608861,-2925
32-24,91612767,1182
32-25,91616673,4917
32-26,91620579,5665
32-27,91624485,2832
32-28,91628391,-1893
32-29,91632297,-5814
32-30,91636203,-6882
32-31,91640109,-4582
32-32,91644015,28
32-1,91647927,4024
32-2,91651833,5059
32-3,91655739,2822
32-4,91659645,-1791
32-5,91663551,-6140
32-6,91667457,-7821
32-7,91671363,-5896
32-8,91675269,-972
32-9,91679175,3496
32-10,91683081,4163
32-11,91686987,1175
32-12,91690893,-2826
32-13,91694799,-4450
32-14,91698705,-2509
32-15,91702611,1441
32-16,91706517,5163
32-17,91710423,6156
32-18,91714329,3690
32-19,91718235,-500
32-20,91722141,-3938
32-21,91726047,-4580
32-22,91729953,-2073
32-23,91733859,2151
32-24,91737765,5404
32-25,91741671,5589
32-26,91745577,2696
32-27,91749483,-1780
32-28,91753389,-5436
32-29,91757295,-6308
32-30,91761201,-3722
32-31,91765107,1018
32-32,91769013,4706
32-1,91772925,4926
32-2,91776831,1634
32-3,91780737,-3272
32-4,91784643,-6631
32-5,91788549,-6447
32-6,91792455,-2740
32-7,91796361,2593
32-8,91800267,5619
32-9,91804173,4313
32-10,91808079,155
32-11,91811985,-3634
32-12,91815891,-4152
32-13,91819797,-1424
32-14,91823703,2771
32-15,91827609,6024
32-16,91831515,5950
32-17,91835421,2633
32-18,91839327,-1744
32-19,91843233,-4629
32-20,91847139,-4323
32-21,91851045,-1051
32-22,91854951,3314
32-23,91858857,5948
32-24,91862763,5134
32-25,91866669,1652
32-26,91870575,-2649
32-27,91874481,-5615
32-28,91878387,-5677
32-29,91882293,-2613
32-30,91886199,1914
32-31,91890105,4871
32-32,91894011,4423
32-1,91897922,734
32-2,91901828,-4108
32-3,91905734,-7058
32-4,91909640,-6275
32-5,91913546,-1983
32-6,91917452,3114
32-7,91921358,5175
32-8,91925264,3087
32-9,91929170,-1149
32-10,91933076,-4201
32-11,91936982,-3761
32-12,91940888,-511
32-13,91944794,3650
32-14,91948700,6217
32-15,91952606,5253
32-16,91956512,1545
32-17,91960418,-2596
32-18,91964324,-4715
32-19,91968230,-3560
32-20,91972136,200
32-21,91976042,4411
32-22,91979948,6070
32-23,91983854,4109
32-24,91987760,65
32-25,91991666,-3594
32-26,91995572,-4981
32-27,91999478,-3717
32-28,92003384,-542
32-29,92007290,2675
32-30,92011196,3968
32-31,92015102,2560
32-32,92019008,-1077
32-1,92022920,-5108
32-2,92026826,-6930
32-3,92030732,-5070
32-4,92034638,-179
32-5,92038544,4322
32-6,92042450,4939
32-7,92046356,1826
32-8,92050262,-2434
32-9,92054168,-4563
32-10,92058074,-3218
32-11,92061980,381
32-12,92065886,4290
32-13,92069792,5925
32-14,92073698,4072
32-15,92077604,109
32-16,92081510,-3544
32-17,92085416,-4683
32-18,92089322,-2600
32-19,92093228,1557
32-20,92097134,5316
32-21,92101040,5931
32-22,92104946,2954
32-23,92108852,-1366
32-24,92112758,-4324
32-25,92116664,-4255
32-26,92120570,-1607
32-27,92124476,1710
32-28,92128382,3509
32-29,92132288,2851
32-30,92136194,294
32-31,92140100,-3298
32-32,92144006,-6427
32-1,92148131,-7404
32-2,92152037,-4936
32-3,92155943,168
32-4,92159849,4135
32-5,92163755,4077
32-6,92167661,710
32-7,92171567,-2966
32-8,92175473,-3867
32-9,92179379,-1520
32-10,92183285,2305
32-11,92187191,5522
32-12,92191097,5942
32-13,92195003,3137
32-14,92198909,-1176
32-15,92202815,-4663
32-16,92206721,-5223
32-17,92210627,-2476
32-18,92214533,2113
32-19,92218439,5581
32-20,92222345,5370
32-21,92226251,1983
32-22,92230157,-2167
32-23,92234063,-4181
32-24,92237969,-2845
32-25,92241875,717
32-26,92245781,4169
32-27,92249687,5052
32-28,92253593,2992
32-29,92257499,-752
32-30,92261405,-4727
32-31,92265311,-7289
32-32,92269217,-7040
32-1,92272915,-3575
32-2,92276821,1515
32-3,92280727,4415
32-4,92284633,3207
32-5,92288539,-528
32-6,92292445,-3627
32-7,92296351,-3441
32-8,92300257,-404
32-9,92304163,3513
32-10,92308069,6161
32-11,92311975,5659
32-12,92315881,2291
32-13,92319787,-1987
32-14,92323693,-4827
32-15,92327599,-4482
32-16,92331505,-1071
32-17,92335411,3454
32-18,92339317,5999
32-19,92343223,4714
32-20,92347129,715
32-21,92351035,-3281
32-22,92354941,-4845
32-23,92358847,-2975
32-24,92362753,1264
32-25,92366659,5123
32-26,92370565,5979
32-27,92374471,3191
32-28,92378377,-1522
32-29,92382283,-5397
32-30,92386189,-6379
32-31,92390095,-3966
32-32,92394001,683
32-1,92397913,4653
32-2,92401819,5358
32-3,92405725,2461
32-4,92409631,-2288
32-5,92413537,-5684
32-6,92417443,-5651
32-7,92421349,-2312
32-8,92425255,2620
32-9,92429161,5842
32-10,92433067,5090
32-11,92436973,1220
32-12,92440879,-3044
32-13,92444785,-4848
32-14,92448691,-3278
32-15,92452597,611
32-16,92456503,4606
32-17,92460409,5857
32-18,92464315,3513
32-19,92468221,-725
32-20,92472127,-4224
32-21,92476033,-4870
32-22,92479939,-2366
32-23,92483845,1914
32-24,92487751,5277
32-25,92491657,5537
32-26,92495563,2654
32-27,92499469,-1808
32-28,92503375,-5387
32-29,92507281,-6099
32-30,92511187,-3359
32-31,92515093,1434
32-32,92518999,5070
32-1,92522910,5173
32-2,92526816,1767
32-3,92530722,-3232
32-4,92534628,-6688
32-5,92538534,-6620
32-6,92542440,-3050
32-7,92546346,2132
32-8,92550252,5045
32-9,92554158,3717
32-10,92558064,-346
32-11,92561970,-4010
32-12,92565876,-4467
32-13,92569782,-1762
32-14,92573688,2358
32-15,92577594,5570
32-16,92581500,5581
32-17,92585406,2399
32-18,92589312,-1826
32-19,92593218,-4651
32-20,92597124,-4283
32-21,92601030,-816
32-22,92604936,3138
32-23,92608842,4990
32-24,92612748,4428
32-25,92616654,3093
32-26,92620560,2227
32-27,92624466,1642
32-28,92628372,1177
32-29,92632278,1548
32-30,92636184,2645
32-31,92640090,3287
32-32,92643996,3077
32-1,92647908,2102
32-2,92651814,1407
32-3,92655720,1844
32-4,92659626,2818
32-5,92663532,3988
32-6,92667438,4848
32-7,92671344,4490
32-8,92675250,2586
32-9,92679156,-1021
32-10,92683062,-5351
32-11,92686968,-8691
32-12,92690874,-9826
32-13,92694780,-7957
32-14,92698686,-4519
32-15,92702592,-2117
32-16,92706498,-1751
32-17,92710404,-2839
32-18,92714310,-3400
32-19,92718216,-2030
32-20,92722122,868
32-21,92726028,3845
32-22,92729934,4716
32-23,92733840,2788
32-24,92737746,-760
32-25,92741652,-4225
32-26,92745558,-5867
32-27,92749464,-4875
32-28,92753370,-1756
32-29,92757276,1650
32-30,92761182,3251
32-31,92765088,2089
32-32,92768994,-1476
32-1,92772906,-5513
32-2,92776812,-7324
32-3,92780718,-5452
32-4,92784624,-513
32-5,92788530,4004
32-6,92792436,4555
32-7,92796342,1342
32-8,92800248,-2956
32-9,92804154,-4982
32-10,92808060,-3385
32-11,92811966,513
32-12,92815872,4635
32-13,92819778,6341
32-14,92823684,4416
32-15,92827590,278
32-16,92831496,-3559
32-17,92835402,-4814
32-18,92839308,-2762
32-19,92843214,1415
32-20,92847120,5222
32-21,92851026,5934
32-22,92854932,3064
32-23,92858838,-1224
32-24,92862744,-4251
32-25,92866650,-4295
32-26,92870556,-1693
32-27,92874462,1679
32-28,92878368,3600
32-29,92882274,2982
32-30,92886180,292
32-31,92890086,-3426
32-32,92893992,-6461
32-1,92898086,-7099
32-2,92901992,-4246
32-3,92905898,1027
32-4,92909804,4908
32-5,92913710,4542
32-6,92917616,672
32-7,92921522,-3474
32-8,92925428,-4677
32-9,92929334,-2248
32-10,92933240,2072
32-11,92937146,5265
32-12,92941052,5190
32-13,92944958,2855
32-14,92948864,734
32-15,92952770,342
32-16,92956676,1511
32-17,92960582,3120
32-18,92964488,4640
32-19,92968394,5317
32-20,92972300,4510
32-21,92976206,2247
32-22,92980112,-1903
32-23,92984018,-6360
32-24,92987924,-8440
32-25,92991830,-7035
32-26,92995736,-2931
32-27,92999642,839
32-28,93003548,1559
32-29,93007454,-1001
32-30,93011360,-4849
32-31,93015266,-6895
32-32,93019172,-5469
32-1,93022901,-1310
32-2,93026807,3431
32-3,93030713,5524
32-4,93034619,3623
32-5,93038525,-523
32-6,93042431,-3841
32-7,93046337,-3971
32-8,93050243,-1205
32-9,93054149,2853
32-10,93058055,5820
32-11,93061961,5477
32-12,93065867,2135
32-13,93069773,-2041
32-14,93073679,-4580
32-15,93077585,-3954
32-16,93081491,-525
32-17,93085397,3799
32-18,93089303,6137
32-19,93093209,4784
32-20,93097115,847
32-21,93101021,-3130
32-22,93104927,-4820
32-23,93108833,-3084
32-24,93112739,1110
32-25,93116645,4922
32-26,93120551,5772
32-27,93124457,3165
32-28,93128363,-1470
32-29,93132269,-5748
32-30,93136175,-7528
32-31,93140081,-5870
32-32,93143987,-1257
32-1,93147899,3445
32-2,93151805,4877
32-3,93155711,2474
32-4,93159617,-1771
32-5,93163523,-4426
32-6,93167429,-3543
32-7,93171335,-94
32-8,93175241,3925
32-9,93179147,6023
32-10,93183053,4642
32-11,93186959,734
32-12,93190865,-3397
32-13,93194771,-5384
32-14,93198677,-4041
32-15,93202583,-41
32-16,93206489,4309
32-17,93210395,5860
32-18,93214301,3642
32-19,93218207,-518
32-20,93222113,-3825
32-21,93226019,-4181
32-22,93229925,-1550
32-23,93233831,2588
32-24,93237737,5700
32-25,93241643,5801
32-26,93245549,2873
32-27,93249455,-1685
32-28,93253361,-5559
32-29,93257267,-6601
32-30,93261173,-3997
32-31,93265079,911
32-32,93268985,4807
32-1,93272896,5074
32-2,93276802,1677
32-3,93280708,-3297
32-4,93284614,-6576
32-5,93288520,-6228
32-6,93292426,-2518
32-7,93296332,2573
32-8,93300238,5360
32-9,93304144,3947
32-10,93308050,-261
32-11,93311956,-4185
32-12,93315862,-5007
32-13,93319768,-2505
32-14,93323674,1761
32-15,93327580,5282
32-16,93331486,5491
32-17,93335392,2339
32-18,93339298,-2004
32-19,93343204,-4870
32-20,93347110,-4543
32-21,93351016,-1239
32-22,93354922,3212
32-23,93358828,5922
32-24,93362734,5107
32-25,93366640,1564
32-26,93370546,-2812
32-27,93374452,-5805
32-28,93378358,-5857
32-29,93382264,-2824
32-30,93386170,1664
32-31,93390076,4627
32-32,93393982,4172
32-1,93397894,501
32-2,93401800,-4221
32-3,93405706,-6948
32-4,93409612,-5927
32-5,93413518,-1562
32-6,93417424,3312
32-7,93421330,4962
32-8,93425236,2664
32-9,93429142,-1345
32-10,93433048,-3889
32-11,93436954,-3099
32-12,93440860,50
32-13,93444766,3770
32-14,93448672,5969
32-15,93452578,4977
32-16,93456484,1408
32-17,93460390,-2754
32-18,93464296,-5173
32-19,93468202,-4279
32-20,93472108,-494
32-21,93476014,3991
32-22,93479920,6004
32-23,93483826,4263
32-24,93487732,246
32-25,93491638,-3464
32-26,93495544,-4880
32-27,93499450,-3686
32-28,93503356,-603
32-29,93507262,2560
32-30,93511168,3859
32-31,93515074,2518
32-32,93518980,-1030
32-1,93522891,-4992
32-2,93526797,-6786
32-3,93530703,-4927
32-4,93534609,-9
32-5,93538515,4530
32-6,93542421,5115
32-7,93546327,1910
32-8,93550233,-2435
32-9,93554139,-4567
32-10,93558045,-3116
32-11,93561951,599
32-12,93565857,4560
32-13,93569763,6199
32-14,93573669,4325
32-15,93577575,323
32-16,93581481,-3407
32-17,93585387,-4664
32-18,93589293,-2685
32-19,93593199,1418
32-20,93597105,5206
32-21,93601011,5920
32-22,93604917,3018
32-23,93608823,-1312
32-24,93612729,-4361
32-25,93616635,-4403
32-26,93620541,-1818
32-27,93624447,1520
32-28,93628353,3473
32-29,93632259,2962
32-30,93636165,415
32-31,93640071,-3122
32-32,93643977,-6019
32-1,93648072,-6604
32-2,93651978,-3839
32-3,93655884,1228
32-4,93659790,4944
32-5,93663696,4568
32-6,93667602,855
32-7,93671508,-3153
32-8,93675414,-4341
32-9,93679320,-2145
32-10,93683226,1966
32-11,93687132,5508
32-12,93691038,5730
32-13,93694944,2828
32-14,93698850,-751
32-15,93702756,-2639
32-16,93706662,-1745
32-17,93710568,1075
32-18,93714474,4232
32-19,93718380,5976
32-20,93722286,5265
32-21,93726192,2355
32-22,93730098,-2096
32-23,93734004,-6137
32-24,93737910,-7257
32-25,93741816,-4675
32-26,93745722,-101
32-27,93749628,3004
32-28,93753534,2468
32-29,93757440,-1137
32-30,93761346,-5438
32-31,93765252,-7496
32-32,93769158,-6097
32-1,93772887,-1903
32-2,93776793,3184
32-3,93780699,5667
32-4,93784605,3984
32-5,93788511,-183
32-6,93792417,-3644
32-7,93796323,-3766
32-8,93800229,-828
32-9,93804135,3415
32-10,93808041,6472
32-11,93811947,6054
32-12,93815853,2522
32-13,93819759,-1861
32-14,93823665,-4549
32-15,93827571,-3985
32-16,93831477,-533
32-17,93835383,3851
32-18,93839289,6227
32-19,93843195,4842
32-20,93847101,805
32-21,93851007,-3261
32-22,93854913,-4953
32-23,93858819,-3148
32-24,93862725,1102
32-25,93866631,4923
32-26,93870537,5765
32-27,93874443,3209
32-28,93878349,-1318
32-29,93882255,-5515
32-30,93886161,-7301
32-31,93890067,-5705
32-32,93893973,-1088
32-1,93897884,3721
32-2,93901790,5259
32-3,93905696,2845
32-4,93909602,-1543
32-5,93913508,-4372
32-6,93917414,-3585
32-7,93921320,-107
32-8,93925226,4076
32-9,93929132,6327
32-10,93933038,4953
32-11,93936944,1012
32-12,93940850,-3054
32-13,93944756,-4846
32-14,93948662,-3299
32-15,93952568,695
32-16,93956474,4832
32-17,93960380,6216
32-18,93964286,3904
32-19,93968192,-370
32-20,93972098,-3908
32-21,93976004,-4585
32-22,93979910,-2130
32-23,93983816,2027
32-24,93987722,5219
32-25,93991628,5355
32-26,93995534,2432
32-27,93999440,-2053
32-28,94003346,-5730
32-29,94007252,-6630
32-30,94011158,-4058
32-31,94015064,725
32-32,94018970,4517
32-1,94022882,4847
32-2,94026788,1612
32-3,94030694,-3331
32-4,94034600,-6781
32-5,94038506,-6697
32-6,94042412,-3061
32-7,94046318,2226
32-8,94050224,5219
32-9,94054130,3918
32-10,94058036,-174
32-11,94061942,-3885
32-12,94065848,-4349
32-13,94069754,-1586
32-14,94073660,2625
32-15,94077566,5963
32-16,94081472,6123
32-17,94085378,3018
32-18,94089284,-1389
32-19,94093190,-4593
32-20,94097096,-4681
32-21,94101002,-1542
32-22,94104908,3043
32-23,94108814,5980
32-24,94112720,5218
32-25,94116626,1595
32-26,94120532,-2710
32-27,94124438,-5368
32-28,94128344,-5085
32-29,94132250,-2001
32-30,94136156,2242
32-31,94140062,4863
32-32,94143968,4250
32-1,94147880,572
32-2,94151786,-4273
32-3,94155692,-7374
32-4,94159598,-6784
32-5,94163504,-2529
32-6,94167410,2675
32-7,94171316,4859
32-8,94175222,2919
32-9,94179128,-1080
32-10,94183034,-3835
32-11,94186940,-3154
32-12,94190846,93
32-13,94194752,3948
32-14,94198658,6176
32-15,94202564,5035
32-16,94206470,1225
32-17,94210376,-3108
32-18,94214282,-5523
32-19,94218188,-4521
32-20,94222094,-627
32-21,94226000,3887
32-22,94229906,5818
32-23,94233812,3979
32-24,94237718,-71
32-25,94241624,-3727
32-26,94245530,-5043
32-27,94249436,-3751
32-28,94253342,-553
32-29,94257248,2782
32-30,94261154,4195
32-31,94265060,2761
32-32,94268966,-968
32-1,94272877,-5000
32-2,94276783,-6666
32-3,94280689,-4597
32-4,94284595,353
32-5,94288501,4755
32-6,94292407,5227
32-7,94296313,1930
32-8,94300219,-2578
32-9,94304125,-5004
32-10,94308031,-3862
32-11,94311937,-152
32-12,94315843,4134
32-13,94319749,6106
32-14,94323655,4347
32-15,94327561,231
32-16,94331467,-3643
32-17,94335373,-4909
32-18,94339279,-2888
32-19,94343185,1269
32-20,94347091,5117
32-21,94350997,5853
32-22,94354903,2940
32-23,94358809,-1413
32-24,94362715,-4462
32-25,94366621,-4464
32-26,94370527,-1834
32-27,94374433,1514
32-28,94378339,3419
32-29,94382245,2821
32-30,94386151,180
32-31,94390057,-3440
32-32,94393963,-6359
32-1,94397875,-6886
32-2,94401781,-3995
32-3,94405687,1177
32-4,94409593,4881
32-5,94413499,4372
32-6,94417405,529
32-7,94421311,-3522
32-8,94425217,-4700
32-9,94429123,-2511
32-10,94433029,1447
32-11,94436935,5048
32-12,94440841,5800
32-13,94444747,3188
32-14,94448653,-938
32-15,94452559,-4139
32-16,94456465,-4455
32-17,94460371,-1713
32-18,94464277,2581
32-19,94468183,5746
32-20,94472089,5461
32-21,94475995,2042
32-22,94479901,-2286
32-23,94483807,-4708
32-24,94487713,-3731
32-25,94491619,-145
32-26,94495525,3618
32-27,94499431,4828
32-28,94503337,2859
32-29,94507243,-1034
32-30,94511149,-5065
32-31,94515055,-7391
32-32,94518961,-6805
32-1,94522872,-3165
32-2,94526778,1859
32-3,94530684,4561
32-4,94534590,3109
32-5,94538496,-881
32-6,94542402,-4213
32-7,94546308,-4188
32-8,94550214,-1157
32-9,94554120,3001
32-10,94558026,5947
32-11,94561932,5534
32-12,94565838,2118
32-13,94569744,-2115
32-14,94573650,-4710
32-15,94577556,-4100
32-16,94581462,-602
32-17,94585368,3852
32-18,94589274,6306
32-19,94593180,4929
32-20,94597086,825
32-21,94600992,-3348
32-22,94604898,-5160
32-23,94608804,-3401
32-24,94612710,886
32-25,94616616,4834
32-26,94620522,5699
32-27,94624428,2823
32-28,94628334,-1950
32-29,94632240,-5789
32-30,94636146,-6671
32-31,94640052,-4161
32-32,94643958,549
32-1,94647870,4591
32-2,94651776,5490
32-3,94655682,2793
32-4,94659588,-1980
32-5,94663494,-5699
32-6,94667400,-6105
32-7,94671306,-2999
32-8,94675212,2087
32-9,94679118,5637
32-10,94683024,5093
32-11,94686930,1362
32-12,94690836,-2724
32-13,94694742,-4262
32-14,94698648,-2507
32-15,94702554,1280
32-16,94706460,5021
32-17,94710366,6075
32-18,94714272,3601
32-19,94718178,-734
32-20,94722084,-4341
32-21,94725990,-5072
32-22,94729896,-2482
32-23,94733802,1974
32-24,94737708,5446
32-25,94741614,5718
32-26,94745520,2763
32-27,94749426,-1868
32-28,94753332,-5684
32-29,94757238,-6652
32-30,94761144,-4092
32-31,94765050,690
32-32,94768956,4445
32-1,94772868,4705
32-2,94776774,1394
32-3,94780680,-3584
32-4,94784586,-7027
32-5,94788492,-6871
32-6,94792398,-3128
32-7,94796304,2297
32-8,94800210,5437
32-9,94804116,4204
32-10,94808022,98
32-11,94811928,-3688
32-12,94815834,-4248
32-13,94819740,-1587
32-14,94823646,2561
32-15,94827552,5834
32-16,94831458,5824
32-17,94835364,2581
32-18,94839270,-1779
32-19,94843176,-4719
32-20,94847082,-4493
32-21,94850988,-1271
32-22,94854894,3102
32-23,94858800,5788
32-24,94862706,5014
32-25,94866612,1535
32-26,94870518,-2779
32-27,94874424,-5721
32-28,94878330,-5716
32-29,94882236,-2646
32-30,94886142,1826
32-31,94890048,4725
32-32,94893954,4234
32-1,94897865,548
32-2,94901771,-4308
32-3,94905677,-7307
32-4,94909583,-6537
32-5,94913489,-2158
32-6,94917395,3140
32-7,94921301,5392
32-8,94925207,3319
32-9,94929113,-1056
32-10,94933019,-4286
32-11,94936925,-3963
32-12,94940831,-756
32-13,94944737,3404
32-14,94948643,6004
32-15,94952549,5079
32-16,94956455,1444
32-17,94960361,-2583
32-18,94964267,-4600
32-19,94968173,-3396
32-20,94972079,335
32-21,94975985,4511
32-22,94979891,6191
32-23,94983797,4275
32-24,94987703,270
32-25,94991609,-3388
32-26,94995515,-4832
32-27,94999421,-3643
32-28,95003327,-506
32-29,95007233,2730
32-30,95011139,4066
32-31,95015045,2657
32-32,95018951,-1042
32-1,95022863,-5173
32-2,95026769,-7084
32-3,95030675,-5268
32-4,95034581,-339
32-5,95038487,4255
32-6,95042393,4927
32-7,95046299,1804
32-8,95050205,-2506
32-9,95054111,-4647
32-10,95058017,-3190
32-11,95061923,592
32-12,95065829,4654
32-13,95069735,6421
32-14,95073641,4604
32-15,95077547,467
32-16,95081453,-3573
32-17,95085359,-5176
32-18,95089265,-3368
32-19,95093171,888
32-20,95097077,5027
32-21,95100983,5930
32-22,95104889,3059
32-23,95108795,-1177
32-24,95112701,-3900
32-25,95116607,-3507
32-26,95120513,-794
32-27,95124419,2274
32-28,95128325,3792
32-29,95132231,2997
32-30,95136137,462
32-31,95140043,-3001
32-32,95143949,-6036
32-1,95147861,-6894
32-2,95151767,-4281
32-3,95155673,844
32-4,95159579,4685
32-5,95163485,4362
32-6,95167391,754
32-7,95171297,-3006
32-8,95175203,-3870
32-9,95179109,-1484
32-10,95183015,2343
32-11,95186921,5579
32-12,95190827,6060
32-13,95194733,3318
32-14,95198639,-977
32-15,95202545,-4529
32-16,95206451,-5211
32-17,95210357,-2515
32-18,95214263,2108
32-19,95218169,5689
32-20,95222075,5590
32-21,95225981,2080
32-22,95229887,-2452
32-23,95233793,-4959
32-24,95237699,-3911
32-25,95241605,-209
32-26,95245511,3699
32-27,95249417,5050
32-28,95253323,3155
32-29,95257229,-736
32-30,95261135,-4808
32-31,95265041,-7180
32-32,95268947,-6629
32-1,95272858,-2963
32-2,95276764,2081
32-3,95280670,4724
32-4,95284576,3277
32-5,95288482,-558
32-6,95292388,-3634
32-7,95296294,-3409
32-8,95300200,-410
32-9,95304106,3488
32-10,95308012,6212
32-11,95311918,5812
32-12,95315824,2514
32-13,95319730,-1791
32-14,95323636,-4789
32-15,95327542,-4618
32-16,95331448,-1291
32-17,95335354,3270
32-18,95339260,5968
32-19,95343166,4789
32-20,95347072,763
32-21,95350978,-3389
32-22,95354884,-5113
32-23,95358790,-3267
32-24,95362696,1072
32-25,95366602,5075
32-26,95370508,6035
32-27,95374414,3310
32-28,95378320,-1399
32-29,95382226,-5410
32-30,95386132,-6673
32-31,95390038,-4565
32-32,95393944,-53
32-1,95397856,4088
32-2,95401762,5129
32-3,95405668,2462
32-4,95409574,-2245
32-5,95413480,-5699
32-6,95417386,-5673
32-7,95421292,-2292
32-8,95425198,2673
32-9,95429104,5885
32-10,95433010,5047
32-11,95436916,1054
32-12,95440822,-3294
32-13,95444728,-5090
32-14,95448634,-3414
32-15,95452540,648
32-16,95456446,4859
32-17,95460352,6281
32-18,95464258,3944
32-19,95468164,-417
32-20,95472070,-4074
32-21,95475976,-4799
32-22,95479882,-2230
32-23,95483788,2189
32-24,95487694,5668
32-25,95491600,5913
32-26,95495506,2856
32-27,95499412,-1828
32-28,95503318,-5572
32-29,95507224,-6349
32-30,95511130,-3575
32-31,95515036,1301
32-32,95518942,5008
32-1,95522854,5122
32-2,95526760,1644
32-3,95530666,-3482
32-4,95534572,-7045
32-5,95538478,-6992
32-6,95542384,-3288
32-7,95546290,2195
32-8,95550196,5459
32-9,95554102,4370
32-10,95558008,357
32-11,95561914,-3405
32-12,95565820,-3984
32-13,95569726,-1349
32-14,95573632,2769
32-15,95577538,6052
32-16,95581444,6078
32-17,95585350,2823
32-18,95589256,-1573
32-19,95593162,-4574
32-20,95597068,-4390
32-21,95600974,-1152
32-22,95604880,3283
32-23,95608786,6038
32-24,95612692,5277
32-25,95616598,1742
32-26,95620504,-2669
32-27,95624410,-5761
32-28,95628316,-5927
32-29,95632222,-2893
32-30,95636128,1715
32-31,95640034,4810
32-32,95643940,4445
32-1,95647912,717
32-2,95651818,-4274
32-3,95655724,-7402
32-4,95659630,-6738
32-5,95663536,-2428
32-6,95667442,2837
32-7,95671348,5054
32-8,95675254,2983
32-9,95679160,-1349
32-10,95683066,-4548
32-11,95686972,-4181
32-12,95690878,-919
32-13,95694784,3287
32-14,95698690,5933
32-15,95702596,5019
32-16,95706502,1324
32-17,95710408,-2822
32-18,95714314,-4964
32-19,95718220,-3800
32-20,95722126,44
32-21,95726032,4412
32-22,95729938,6251
32-23,95733844,4383
32-24,95737750,311
32-25,95741656,-3420
32-26,95745562,-4892
32-27,95749468,-3713
32-28,95753374,-597
32-29,95757280,2615
32-30,95761186,3958
32-31,95765092,2615
32-32,95768998,-1027
32-1,95772849,-5172
32-2,95776755,-7125
32-3,95780661,-5296
32-4,95784567,-246
32-5,95788473,4521
32-6,95792379,5303
32-7,95796285,2200
32-8,95800191,-2182
32-9,95804097,-4441
32-10,95808003,-3119
32-11,95811909,554
32-12,95815815,4584
32-13,95819721,6134
32-14,95823627,4107
32-15,95827533,269
32-16,95831439,-2909
32-17,95835345,-3568
32-18,95839251,-1488
32-19,95843157,2012
32-20,95847063,4919
32-21,95850969,5414
32-22,95854875,2981
32-23,95858781,-1249
32-24,95862687,-5279
32-25,95866593,-6876
32-26,95870499,-5084
32-27,95874405,-1094
32-28,95878311,2406
32-29,95882217,3101
32-30,95886123,772
32-31,95890029,-3146
32-32,95893935,-6083
32-1,95897846,-6195
32-2,95901752,-3110
32-3,95905658,1908
32-4,95909564,5321
32-5,95913470,4604
32-6,95917376,713
32-7,95921282,-3301
32-8,95925188,-4497
32-9,95929094,-2379
32-10,95933000,1627
32-11,95936906,5325
32-12,95940812,6118
32-13,95944718,3451
32-14,95948624,-788
32-15,95952530,-4063
32-16,95956436,-4380
32-17,95960342,-1557
32-18,95964248,2866
32-19,95968154,6131
32-20,95972060,5870
32-21,95975966,2370
32-22,95979872,-2165
32-23,95983778,-4883
32-24,95987684,-4154
32-25,95991590,-648
32-26,95995496,3222
32-27,95999402,4616
32-28,96003308,2773
32-29,96007214,-1074
32-30,96011120,-5090
32-31,96015026,-7385
32-32,96018932,-6759
32-1,96022844,-3060
32-2,96026750,2073
32-3,96030656,4960
32-4,96034562,3693
32-5,96038468,-246
32-6,96042374,-3664
32-7,96046280,-3756
32-8,96050186,-754
32-9,96054092,3428
32-10,96057998,6401
32-11,96061904,6002
32-12,96065810,2487
32-13,96069716,-2004
32-14,96073622,-4943
32-15,96077528,-4617
32-16,96081434,-1201
32-17,96085340,3394
32-18,96089246,5976
32-19,96093152,4630
32-20,96097058,627
32-21,96100964,-3250
32-22,96104870,-4620
32-23,96108776,-2667
32-24,96112682,1409
32-25,96116588,4933
32-26,96120494,5574
32-27,96124400,2940
32-28,96128306,-1613
32-29,96132212,-5869
32-30,96136118,-7694
32-31,96140024,-5994
32-32,96143930,-1261
32-1,96147842,3661
32-2,96151748,5368
32-3,96155654,3057
32-4,96159560,-1406
32-5,96163466,-4500
32-6,96167372,-3990
32-7,96171278,-562
32-8,96175184,3859
32-9,96179090,6415
32-10,96182996,5169
32-11,96186902,1150
32-12,96190808,-3041
32-13,96194714,-4879
32-14,96198620,-3379
32-15,96202526,557
32-16,96206432,4697
32-17,96210338,6146
32-18,96214244,3890
32-19,96218150,-399
32-20,96222056,-4028
32-21,96225962,-4794
32-22,96229868,-2292
32-23,96233774,2071
32-24,96237680,5520
32-25,96241586,5817
32-26,96245492,2891
32-27,96249398,-1753
32-28,96253304,-5670
32-29,96257210,-6739
32-30,96261116,-4153
32-31,96265022,809
32-32,96268928,4806
32-1,96272961,5210
32-2,96276867,1888
32-3,96280773,-3197
32-4,96284679,-6750
32-5,96288585,-6679
32-6,96292491,-2991
32-7,96296397,2364
32-8,96300303,5346
32-9,96304209,4023
32-10,96308115,25
32-11,96312021,-3475
32-12,96315927,-3774
32-13,96319833,-1091
32-14,96323739,2832
32-15,96327645,5931
32-16,96331551,6053
32-17,96335457,3033
32-18,96339363,-1343
32-19,96343269,-4693
32-20,96347175,-4939
32-21,96351081,-1872
32-22,96354987,2688
32-23,96358893,5694
32-24,96362799,5111
32-25,96366705,1612
32-26,96370611,-2877
32-27,96374517,-5988
32-28,96378423,-6076
32-29,96382329,-2934
32-30,96386235,1810
32-31,96390141,5007
32-32,96394047,4597
32-1,96397837,778
32-2,96401743,-4159
32-3,96405649,-7049
32-4,96409555,-6074
32-5,96413461,-1646
32-6,96417367,3446
32-7,96421273,5369
32-8,96425179,3066
32-9,96429085,-1310
32-10,96432991,-4396
32-11,96436897,-3910
32-12,96440803,-557
32-13,96444709,3748
32-14,96448615,6467
32-15,96452521,5562
32-16,96456427,1796
32-17,96460333,-2448
32-18,96464239,-4676
32-19,96468145,-3575
32-20,96472051,195
32-21,96475957,4480
32-22,96479863,6271
32-23,96483769,4396
32-24,96487675,340
32-25,96491581,-3402
32-26,96495487,-4891
32-27,96499393,-3694
32-28,96503299,-518
32-29,96507205,2748
32-30,96511111,4108
32-31,96515017,2808
32-32,96518923,-804
32-1,96522835,-5078
32-2,96526741,-7390
32-3,96530647,-6022
32-4,96534553,-1275
32-5,96538459,3525
32-6,96542365,4555
32-7,96546271,1684
32-8,96550177,-2551
32-9,96554083,-4732
32-10,96557989,-3300
32-11,96561895,455
32-12,96565801,4491
32-13,96569707,6235
32-14,96573613,4373
32-15,96577519,262
32-16,96581425,-3622
32-17,96585331,-4975
32-18,96589237,-2973
32-19,96593143,1216
32-20,96597049,5088
32-21,96600955,5845
32-22,96604861,2937
32-23,96608767,-1389
32-24,96612673,-4405
32-25,96616579,-4414
32-26,96620485,-1810
32-27,96624391,1534
32-28,96628297,3493
32-29,96632203,2995
32-30,96636109,437
32-31,96640015,-3110
32-32,96643921,-5993
32-1,96647832,-6571
32-2,96651738,-3769
32-3,96655644,1369
32-4,96659550,5134
32-5,96663456,4704
32-6,96667362,840
32-7,96671268,-3314
32-8,96675174,-4571
32-9,96679080,-2352
32-10,96682986,1712
32-11,96686892,5336
32-12,96690798,5941
32-13,96694704,3063
32-14,96698610,-1317
32-15,96702516,-4648
32-16,96706422,-4940
32-17,96710328,-2067
32-18,96714234,2392
32-19,96718140,5649
32-20,96722046,5338
32-21,96725952,1834
32-22,96729858,-2548
32-23,96733764,-4930
32-24,96737670,-3834
32-25,96741576,-104
32-26,96745482,3799
32-27,96749388,5124
32-28,96753294,3218
32-29,96757200,-664
32-30,96761106,-4738
32-31,96765012,-7180
32-32,96768918,-6765
32-1,96772830,-3295
32-2,96776736,1679
32-3,96780642,4498
32-4,96784548,3218
32-5,96788454,-667
32-6,96792360,-4021
32-7,96796266,-4064
32-8,96800172,-1019
32-9,96804078,3223
32-10,96807984,6206
32-11,96811890,5680
32-12,96815796,2044
32-13,96819702,-2362
32-14,96823608,-4988
32-15,96827514,-4312
32-16,96831420,-772
32-17,96835326,3635
32-18,96839232,6016
32-19,96843138,4651
32-20,96847044,680
32-21,96850950,-3317
32-22,96854856,-5036
32-23,96858762,-3326
32-24,96862668,849
32-25,96866574,4684
32-26,96870480,5621
32-27,96874386,3114
32-28,96878292,-1467
32-29,96882198,-5765
32-30,96886104,-7617
32-31,96890010,-6034
32-32,96893916,-1441
32-1,96897980,3309
32-2,96901886,4785
32-3,96905792,2359
32-4,96909698,-1973
32-5,96913604,-4730
32-6,96917510,-3860
32-7,96921416,-316
32-8,96925322,3886
32-9,96929228,6193
32-10,96933134,4915
32-11,96937040,982
32-12,96940946,-3234
32-13,96944852,-5303
32-14,96948758,-3970
32-15,96952664,98
32-16,96956570,4564
32-17,96960476,6209
32-18,96964382,3933
32-19,96968288,-393
32-20,96972194,-3866
32-21,96976100,-4297
32-22,96980006,-1621
32-23,96983912,2602
32-24,96987818,5787
32-25,96991724,5926
32-26,96995630,3010
32-27,96999536,-1538
32-28,97003442,-5410
32-29,97007348,-6483
32-30,97011254,-3910
32-31,97015160,995
32-32,97019066,4902
32-1,97022825,5138
32-2,97026731,1616
32-3,97030637,-3540
32-4,97034543,-6942
32-5,97038449,-6583
32-6,97042355,-2722
32-7,97046261,2596
32-8,97050167,5478
32-9,97054073,4016
32-10,97057979,-140
32-11,97061885,-3830
32-12,97065791,-4345
32-13,97069697,-1716
32-14,97073603,2357
32-15,97077509,5627
32-16,97081415,5806
32-17,97085321,2722
32-18,97089227,-1704
32-19,97093133,-4970
32-20,97097039,-5104
32-21,97100945,-1921
32-22,97104851,2764
32-23,97108757,5838
32-24,97112663,5252
32-25,97116569,1694
32-26,97120475,-2797
32-27,97124381,-5822
32-28,97128287,-5821
32-29,97132193,-2699
32-30,97136099,1905
32-31,97140005,4921
32-32,97143911,4322
32-1,97147823,409
32-2,97151729,-4412
32-3,97155635,-6992
32-4,97159541,-5674
32-5,97163447,-1148
32-6,97167353,3724
32-7,97171259,5369
32-8,97175165,2859
32-9,97179071,-1672
32-10,97182977,-4938
32-11,97186883,-4706
32-12,97190789,-1442
32-13,97194695,3046
32-14,97198601,6039
32-15,97202507,5317
32-16,97206413,1550
32-17,97210319,-2787
32-18,97214225,-5017
32-19,97218131,-3835
32-20,97222037,39
32-21,97225943,4425
32-22,97229849,6278
32-23,97233755,4444
32-24,97237661,431
32-25,97241567,-3255
32-26,97245473,-4701
32-27,97249379,-3526
32-28,97253285,-461
32-29,97257191,2665
32-30,97261097,3933
32-31,97265003,2599
32-32,97268909,-960
32-1,97272820,-5075
32-2,97276726,-7194
32-3,97280632,-5701
32-4,97284538,-952
32-5,97288444,3750
32-6,97292350,4688
32-7,97296256,1811
32-8,97300162,-2365
32-9,97304068,-4501
32-10,97307974,-3096
32-11,97311880,571
32-12,97315786,4507
32-13,97319692,6162
32-14,97323598,4262
32-15,97327504,208
32-16,97331410,-3564
32-17,97335316,-4845
32-18,97339222,-2839
32-19,97343128,1339
32-20,97347034,5258
32-21,97350940,6089
32-22,97354846,3174
32-23,97358752,-1274
32-24,97362658,-4442
32-25,97366564,-4522
32-26,97370470,-1901
32-27,97374376,1483
32-28,97378282,3440
32-29,97382188,2894
32-30,97386094,285
32-31,97390000,-3313
32-32,97393906,-6247
32-1,97397849,-6854
32-2,97401755,-4080
32-3,97405661,1037
32-4,97409567,4828
32-5,97413473,4490
32-6,97417379,780
32-7,97421285,-3254
32-8,97425191,-4509
32-9,97429097,-2378
32-10,97433003,1584
32-11,97436909,5238
32-12,97440815,6028
32-13,97444721,3386
32-14,97448627,-817
32-15,97452533,-4145
32-16,97456439,-4585
32-17,97460345,-1874
32-18,97464251,2504
32-19,97468157,5808
32-20,97472063,5596
32-21,97475969,2120
32-22,97479875,-2329
32-23,97483781,-4886
32-24,97487687,-3991
32-25,97491593,-418
32-26,97495499,3475
32-27,97499405,4892
32-28,97503311,2796
32-29,97507217,-1303
32-30,97511123,-4929
32-31,97515029,-6103
32-32,97518935,-4217
32-1,97523121,-184
32-2,97527027,3891
32-3,97530933,5512
32-4,97534839,3798
32-5,97538745,-412
32-6,97542651,-4982
32-7,97546557,-7344
32-8,97550463,-6168
32-9,97554369,-1653
32-10,97558275,3335
32-11,97562181,4947
32-12,97566087,2460
32-13,97569993,-1868
32-14,97573899,-4580
32-15,97577805,-3691
32-16,97581711,-173
32-17,97585617,3942
32-18,97589523,6069
32-19,97593429,4600
32-20,97597335,648
32-21,97601241,-3351
32-22,97605147,-5133
32-23,97609053,-3466
32-24,97612959,714
32-25,97616865,4550
32-26,97620771,5439
32-27,97624677,2924
32-28,97628583,-1598
32-29,97632489,-5878
32-30,97636395,-7830
32-31,97640301,-6427
32-32,97644207,-1901
32-1,97647813,3051
32-2,97651719,4905
32-3,97655625,2793
32-4,97659531,-1449
32-5,97663437,-4317
32-6,97667343,-3628
32-7,97671249,-258
32-8,97675155,3827
32-9,97679061,6096
32-10,97682967,4856
32-11,97686873,1034
32-12,97690779,-2982
32-13,97694685,-4843
32-14,97698591,-3216
32-15,97702497,852
32-16,97706403,4322
32-17,97710309,5038
32-18,97714215,3636
32-19,97718121,2267
32-20,97722027,2106
32-21,97725933,2720
32-22,97729839,3300
32-23,97733745,4104
32-24,97737651,4919
32-25,97741557,4736
32-26,97745463,2948
32-27,97749369,-648
32-28,97753275,-4802
32-29,97757181,-7903
32-30,97761087,-8895
32-31,97764993,-7611
32-32,97768899,-5286
32-1,97772811,-3053
32-2,97776717,-1235
32-3,97780623,64
32-4,97784529,1073
32-5,97788435,1925
32-6,97792341,2858
32-7,97796247,3974
32-8,97800153,4282
32-9,97804059,3192
32-10,97807965,167
32-11,97811871,-4244
32-12,97815777,-7355
32-13,97819683,-7180
32-14,97823589,-3357
32-15,97827495,1793
32-16,97831401,4182
32-17,97835307,2466
32-18,97839213,-1444
32-19,97843119,-4217
32-20,97847025,-3553
32-21,97850931,-279
32-22,97854837,3538
32-23,97858743,5692
32-24,97862649,4751
32-25,97866555,1457
32-26,97870461,-2636
32-27,97874367,-5619
32-28,97878273,-5796
32-29,97882179,-2864
32-30,97886085,1604
32-31,97889991,4659
32-32,97893897,4321
32-1,97897809,704
32-2,97901715,-4074
32-3,97905621,-6944
32-4,97909527,-6059
32-5,97913433,-1721
32-6,97917339,3381
32-7,97921245,5437
32-8,97925151,3312
32-9,97929057,-969
32-10,97932963,-4107
32-11,97936869,-3807
32-12,97940775,-642
32-13,97944681,3529
32-14,97948587,6236
32-15,97952493,5487
32-16,97956399,1823
32-17,97960305,-2576
32-18,97964211,-5151
32-19,97968117,-4385
32-20,97972023,-637
32-21,97975929,3975
32-22,97979835,6103
32-23,97983741,4414
32-24,97987647,489
32-25,97991553,-3020
32-26,97995459,-4180
32-27,97999365,-2887
32-28,98003271,11
32-29,98007177,2855
32-30,98011083,3934
32-31,98014989,2629
32-32,98018895,-813
32-1,98022806,-4950
32-2,98026712,-7176
32-3,98030618,-5685
32-4,98034524,-772
32-5,98038430,4124
32-6,98042336,5148
32-7,98046242,2292
32-8,98050148,-1845
32-9,98054054,-3878
32-10,98057960,-2372
32-11,98061866,1237
32-12,98065772,4955
32-13,98069678,6522
32-14,98073584,4766
32-15,98077490,825
32-16,98081396,-3096
32-17,98085302,-4779
32-18,98089208,-3120
32-19,98093114,1015
32-20,98097020,5139
32-21,98100926,6253
32-22,98104832,3557
32-23,98108738,-848
32-24,98112644,-4075
32-25,98116550,-4232
32-26,98120456,-1723
32-27,98124362,1623
32-28,98128268,3629
32-29,98132174,3162
32-30,98136080,661
32-31,98139986,-2896
32-32,98143892,-5897
32-1,98147834,-6671
32-2,98151740,-4066
32-3,98155646,1006
32-4,98159552,4824
32-5,98163458,4548
32-6,98167364,1022
32-7,98171270,-2690
32-8,98175176,-3609
32-9,98179082,-1355
32-10,98182988,2357
32-11,98186894,5572
32-12,98190800,6134
32-13,98194706,3512
32-14,98198612,-707
32-15,98202518,-4294
32-16,98206424,-5075
32-17,98210330,-2439
32-18,98214236,2221
32-19,98218142,5946
32-20,98222048,6016
32-21,98225954,2579
32-22,98229860,-1996
32-23,98233766,-4591
32-24,98237672,-3621
32-25,98241578,36
32-26,98245484,3905
32-27,98249390,5191
32-28,98253296,3224
32-29,98257202,-709
32-30,98261108,-4801
32-31,98265014,-7209
32-32,98268920,-6738
32-1,98272801,-3243
32-2,98276707,1701
32-3,98280613,4442
32-4,98284519,3089
32-5,98288425,-833
32-6,98292331,-4179
32-7,98296237,-4188
32-8,98300143,-1120
32-9,98304049,3135
32-10,98307955,6225
32-11,98311861,5930
32-12,98315767,2520
32-13,98319673,-1803
32-14,98323579,-4527
32-15,98327485,-4028
32-16,98331391,-615
32-17,98335297,3798
32-18,98339203,6291
32-19,98343109,5025
32-20,98347015,1054
32-21,98350921,-3038
32-22,98354827,-4868
32-23,98358733,-3227
32-24,98362639,932
32-25,98366545,4869
32-26,98370451,5880
32-27,98374357,3222
32-28,98378263,-1415
32-29,98382169,-5298
32-30,98386075,-6335
32-31,98389981,-3978
32-32,98393887,681
32-1,98397799,4804
32-2,98401705,5765
32-3,98405611,3064
32-4,98409517,-1740
32-5,98413423,-5501
32-6,98417329,-5969
32-7,98421235,-3052
32-8,98425141,1730
32-9,98429047,5135
32-10,98432953,4673
32-11,98436859,1020
32-12,98440765,-3172
32-13,98444671,-4992
32-14,98448577,-3382
32-15,98452483,638
32-16,98456389,4915
32-17,98460295,6521
32-18,98464201,4336
32-19,98468107,-6
32-20,98472013,-3768
32-21,98475919,-4691
32-22,98479825,-2324
32-23,98483731,1974
32-24,98487637,5465
32-25,98491543,5881
32-26,98495449,3084
32-27,98499355,-1458
32-28,98503261,-5327
32-29,98507167,-6446
32-30,98511073,-4045
32-31,98514979,664
32-32,98518885,4479
32-1,98522797,4929
32-2,98526703,1852
32-3,98530609,-3075
32-4,98534515,-6760
32-5,98538421,-7058
32-6,98542327,-3748
32-7,98546233,1532
32-8,98550139,4888
32-9,98554045,4003
32-10,98557951,114
32-11,98561857,-3689
32-12,98565763,-4389
32-13,98569669,-1826
32-14,98573575,2275
32-15,98577481,5649
32-16,98581387,5875
32-17,98585293,2834
32-18,98589199,-1435
32-19,98593105,-4430
32-20,98597011,-4329
32-21,98600917,-1211
32-22,98604823,3124
32-23,98608729,5865
32-24,98612635,5168
32-25,98616541,1717
32-26,98620447,-2629
32-27,98624353,-5694
32-28,98628259,-5861
32-29,98632165,-2862
32-30,98636071,1714
32-31,98639977,4805
32-32,98643883,4373
32-1,98647794,575
32-2,98651700,-4358
32-3,98655606,-7302
32-4,98659512,-6421
32-5,98663418,-2040
32-6,98667324,3124
32-7,98671230,5226
32-8,98675136,3129
32-9,98679042,-1150
32-10,98682948,-4307
32-11,98686854,-4014
32-12,98690760,-850
32-13,98694666,3364
32-14,98698572,6106
32-15,98702478,5297
32-16,98706384,1628
32-17,98710290,-2584
32-18,98714196,-4820
32-19,98718102,-3733
32-20,98722008,18
32-21,98725914,4288
32-22,98729820,6077
32-23,98733726,4238
32-24,98737632,268
32-25,98741538,-3362
32-26,98745444,-4790
32-27,98749350,-3624
32-28,98753256,-540
32-29,98757162,2679
32-30,98761068,4061
32-31,98764974,2740
32-32,98768880,-903
32-1,98772792,-5070
32-2,98776698,-7063
32-3,98780604,-5292
32-4,98784510,-285
32-5,98788416,4517
32-6,98792322,5396
32-7,98796228,2367
32-8,98800134,-1998
32-9,98804040,-4307
32-10,98807946,-3023
32-11,98811852,638
32-12,98815758,4687
32-13,98819664,6485
32-14,98823570,4695
32-15,98827476,666
32-16,98831382,-3166
32-17,98835288,-4569
32-18,98839194,-2696
32-19,98843100,1403
32-20,98847006,5349
32-21,98850912,6361
32-22,98854818,3630
32-23,98858724,-859
32-24,98862630,-4352
32-25,98866536,-4873
32-26,98870442,-2491
32-27,98874348,1010
32-28,98878254,3326
32-29,98882160,3050
32-30,98886066,442
32-31,98889972,-3223
32-32,98893878,-6027
32-1,98897851,-6328
32-2,98901757,-3323
32-3,98905663,1753
32-4,98909569,5239
32-5,98913475,4540
32-6,98917381,603
32-7,98921287,-3428
32-8,98925193,-4573
32-9,98929099,-2370
32-10,98933005,1621
32-11,98936911,5240
32-12,98940817,6060
32-13,98944723,3471
32-14,98948629,-840
32-15,98952535,-4419
32-16,98956441,-5138
32-17,98960347,-2552
32-18,98964253,1955
32-19,98968159,5434
32-20,98972065,5217
32-21,98975971,1707
32-22,98979877,-2610
32-23,98983783,-4732
32-24,98987689,-3353
32-25,98991595,405
32-26,98995501,4131
32-27,98999407,5230
32-28,99003313,3219
32-29,99007219,-616
32-30,99011125,-4736
32-31,99015031,-7443
32-32,99018937,-7337
32-1,99022787,-3960
32-2,99026693,1206
32-3,99030599,4294
32-4,99034505,3235
32-5,99038411,-479
32-6,99042317,-3676
32-7,99046223,-3561
32-8,99050129,-515
32-9,99054035,3426
32-10,99057941,6117
32-11,99061847,5633
32-12,99065753,2231
32-13,99069659,-2105
32-14,99073565,-5047
32-15,99077471,-4783
32-16,99081377,-1345
32-17,99085283,3349
32-18,99089189,6180
32-19,99093095,5088
32-20,99097001,1075
32-21,99100907,-3124
32-22,99104813,-4956
32-23,99108719,-3261
32-24,99112625,946
32-25,99116531,4903
32-26,99120437,5902
32-27,99124343,3231
32-28,99128249,-1488
32-29,99132155,-5564
32-30,99136061,-6869
32-31,99139967,-4741
32-32,99143873,-149
32-1,99147785,4075
32-2,99151691,5165
32-3,99155597,2536
32-4,99159503,-2150
32-5,99163409,-5648
32-6,99167315,-5748
32-7,99171221,-2557
32-8,99175127,2295
32-9,99179033,5626
32-10,99182939,5041
32-11,99186845,1273
32-12,99190751,-3012
32-13,99194657,-4931
32-14,99198563,-3431
32-15,99202469,485
32-16,99206375,4641
32-17,99210281,6074
32-18,99214187,3725
32-19,99218093,-659
32-20,99221999,-4317
32-21,99225905,-5043
32-22,99229811,-2512
32-23,99233717,1842
32-24,99237623,5328
32-25,99241529,5711
32-26,99245435,2843
32-27,99249341,-1719
32-28,99253247,-5471
32-29,99257153,-6340
32-30,99261059,-3639
32-31,99264965,1260
32-32,99268871,5089
32-1,99272783,5429
32-2,99276689,2217
32-3,99280595,-2839
32-4,99284501,-6682
32-5,99288407,-7148
32-6,99292313,-3902
32-7,99296219,1473
32-8,99300125,4947
32-9,99304031,4073
32-10,99307937,114
32-11,99311843,-3774
32-12,99315749,-4499
32-13,99319655,-1910
32-14,99323561,2167
32-15,99327467,5454
32-16,99331373,5570
32-17,99335279,2477
32-18,99339185,-1748
32-19,99343091,-4671
32-20,99346997,-4548
32-21,99350903,-1442
32-22,99354809,2913
32-23,99358715,5728
32-24,99362621,5099
32-25,99366527,1622
32-26,99370433,-2846
32-27,99374339,-6025
32-28,99378245,-6194
32-29,99382151,-3065
32-30,99386057,1685
32-31,99389963,4908
32-32,99393869,4516
32-1,99397780,661
32-2,99401686,-4380
32-3,99405592,-7386
32-4,99409498,-6176
32-5,99413404,-1587
32-6,99417310,2985
32-7,99421216,4733
32-8,99425122,3892
32-9,99429028,2514
32-10,99432934,2168
32-11,99436840,2838
32-12,99440746,3531
32-13,99444652,4329
32-14,99448558,4829
32-15,99452464,4222
32-16,99456370,1930
32-17,99460276,-2480
32-18,99464182,-6984
32-19,99468088,-9045
32-20,99471994,-7289
32-21,99475900,-2263
32-22,99479806,2199
32-23,99483712,2969
32-24,99487618,350
32-25,99491524,-3062
32-26,99495430,-4356
32-27,99499336,-2893
32-28,99503242,20
32-29,99507148,2745
32-30,99511054,3798
32-31,99514960,2441
32-32,99518866,-1057
32-1,99522778,-5188
32-2,99526684,-7217
32-3,99530590,-5439
32-4,99534496,-466
32-5,99538402,4266
32-6,99542308,5080
32-7,99546214,2046
32-8,99550120,-2252
32-9,99554026,-4478
32-10,99557932,-3160
32-11,99561838,474
32-12,99565744,4465
32-13,99569650,6211
32-14,99573556,4363
32-15,99577462,249
32-16,99581368,-3644
32-17,99585274,-5016
32-18,99589180,-3047
32-19,99593086,1152
32-20,99596992,5132
32-21,99600898,6061
32-22,99604804,3283
32-23,99608710,-1038
32-24,99612616,-4160
32-25,99616522,-4277
32-26,99620428,-1689
32-27,99624334,1730
32-28,99628240,3807
32-29,99632146,3392
32-30,99636052,877
32-31,99639958,-2727
32-32,99643864,-5810
32-1,99647836,-6638
32-2,99651742,-4049
32-3,99655648,1005
32-4,99659554,4838
32-5,99663460,4515
32-6,99667366,725
32-7,99671272,-3395
32-8,99675178,-4630
32-9,99679084,-2332
32-10,99682990,1847
32-11,99686896,5637
32-12,99690802,6430
32-13,99694708,3648
32-14,99698614,-772
32-15,99702520,-4208
32-16,99706426,-4586
32-17,99710332,-1747
32-18,99714238,2714
32-19,99718144,6002
32-20,99722050,5691
32-21,99725956,2153
32-22,99729862,-2289
32-23,99733768,-4801
32-24,99737674,-3879
32-25,99741580,-309
32-26,99745486,3527
32-27,99749392,4915
32-28,99753298,3126
32-29,99757204,-669
32-30,99761110,-4732
32-31,99765016,-7189
32-32,99768922,-6737
32-1,99772773,-3170
32-2,99776679,1888
32-3,99780585,4714
32-4,99784491,3365
32-5,99788397,-616
32-6,99792303,-4066
32-7,99796209,-4219
32-8,99800115,-1259
32-9,99804021,2954
32-10,99807927,6103
32-11,99811833,5961
32-12,99815739,2595
32-13,99819645,-1932
32-14,99823551,-5000
32-15,99827457,-4739
32-16,99831363,-1254
32-17,99835269,3471
32-18,99839175,6147
32-19,99843081,4798
32-20,99846987,715
32-21,99850893,-3229
32-22,99854799,-4600
32-23,99858705,-2569
32-24,99862611,1599
32-25,99866517,5163
32-26,99870423,5773
32-27,99874329,3049
32-28,99878235,-1571
32-29,99882141,-5834
32-30,99886047,-7688
32-31,99889953,-6117
32-32,99893859,-1523
32-1,99897771,3269
32-2,99901677,4822
32-3,99905583,2467
32-4,99909489,-1829
32-5,99913395,-4626
32-6,99917301,-3897
32-7,99921207,-562
32-8,99925113,3491
32-9,99929019,5827
32-10,99932925,4751
32-11,99936831,1013
32-12,99940737,-3183
32-13,99944643,-5376
32-14,99948549,-4149
32-15,99952455,-45
32-16,99956361,4587
32-17,99960267,6378
32-18,99964173,4141
32-19,99968079,-208
32-20,99971985,-3718
32-21,99975891,-4195
32-22,99979797,-1589
32-23,99983703,2585
32-24,99987609,5833
32-25,99991515,6076
32-26,99995421,3194
32-27,99999327,-1426
32-28,100003233,-5432
32-29,100007139,-6608
32-30,100011045,-4000
32-31,100014951,1158
32-32,100018857,4940
32-1,100022768,4622
32-2,100026674,1406
32-3,100030580,-1860
32-4,100034486,-2509
32-5,100038392,-427
32-6,100042298,2630
32-7,100046204,5179
32-8,100050110,5608
32-9,100054016,3778
32-10,100057922,471
32-11,100061828,-4019
32-12,100065734,-7969
32-13,100069640,-9162
32-14,100073546,-6472
32-15,100077452,-1294
32-16,100081358,2336
32-17,100085264,2185
32-18,100089170,-730
32-19,100093076,-3419
32-20,100096982,-3086
32-21,100100888,45
32-22,100104794,3805
32-23,100108700,5881
32-24,100112606,4960
32-25,100116512,1699
32-26,100120418,-2554
32-27,100124324,-5915
32-28,100128230,-6403
32-29,100132136,-3449
32-30,100136042,1388
32-31,100139948,4887
32-32,100143854,4800
32-1,100147766,1124
32-2,100151672,-3977
32-3,100155578,-7225
32-4,100159484,-6621
32-5,100163390,-2395
32-6,100167296,2824
32-7,100171202,5076
32-8,100175108,3060
32-9,100179014,-1176
32-10,100182920,-4304
32-11,100186826,-3964
32-12,100190732,-813
32-13,100194638,3258
32-14,100198544,5870
32-15,100202450,5041
32-16,100206356,1420
32-17,100210262,-2725
32-18,100214168,-4942
32-19,100218074,-3897
32-20,100221980,-164
32-21,100225886,4147
32-22,100229792,6003
32-23,100233698,4183
32-24,100237604,148
32-25,100241510,-3590
32-26,100245416,-5073
32-27,100249322,-3886
32-28,100253228,-735
32-29,100257134,2568
32-30,100261040,4031
32-31,100264946,2790
32-32,100268852,-763
32-1,100272764,-4855
32-2,100276670,-6842
32-3,100280576,-5139
32-4,100284482,-253
32-5,100288388,4431
32-6,100292294,5205
32-7,100296200,2096
32-8,100300106,-2286
32-9,100304012,-4554
32-10,100307918,-3209
32-11,100311824,493
32-12,100315730,4569
32-13,100319636,6397
32-14,100323542,4596
32-15,100327448,534
32-16,100331354,-3314
32-17,100335260,-4702
32-18,100339166,-2795
32-19,100343072,1291
32-20,100346978,5153
32-21,100350884,6017
32-22,100354790,3229
32-23,100358696,-1052
32-24,100362602,-4139
32-25,100366508,-4284
32-26,100370414,-1759
32-27,100374320,1644
32-28,100378226,3757
32-29,100382132,3379
32-30,100386038,819
32-31,100389944,-2869
32-32,100393850,-5948
32-1,100397792,-6671
32-2,100401698,-3947
32-3,100405604,1196
32-4,100409510,5087
32-5,100413416,4845
32-6,100417322,1156
32-7,100421228,-2952
32-8,100425134,-4354
32-9,100429040,-2333
32-10,100432946,1624
32-11,100436852,5371
32-12,100440758,6295
32-13,100444664,3685
32-14,100448570,-632
32-15,100452476,-4111
32-16,100456382,-4625
32-17,100460288,-1845
32-18,100464194,2716
32-19,100468100,6209
32-20,100472006,6076
32-21,100475912,2524
32-22,100479818,-2096
32-23,100483724,-4781
32-24,100487630,-3906
32-25,100491536,-234
32-26,100495442,3728
32-27,100499348,5131
32-28,100503254,3237
32-29,100507160,-727
32-30,100511066,-4909
32-31,100514972,-7404
32-32,100518878,-6972
32-1,100522759,-3431
32-2,100526665,1617
32-3,100530571,4462
32-4,100534477,3142
32-5,100538383,-828
32-6,100542289,-4251
32-7,100546195,-4324
32-8,100550101,-1316
32-9,100554007,2859
32-10,100557913,5843
32-11,100561819,5448
32-12,100565725,2009
32-13,100569631,-2267
32-14,100573537,-4917
32-15,100577443,-4360
32-16,100581349,-917
32-17,100585255,3505
32-18,100589161,5973
32-19,100593067,4630
32-20,100596973,566
32-21,100600879,-3559
32-22,100604785,-5342
32-23,100608691,-3577
32-24,100612597,721
32-25,100616503,4663
32-26,100620409,5633
32-27,100624315,3075
32-28,100628221,-1567
32-29,100632127,-5877
32-30,100636033,-7709
32-31,100639939,-6100
32-32,100643845,-1448
32-1,100647756,3473
32-2,100651662,5192
32-3,100655568,2942
32-4,100659474,-1358
32-5,100663380,-4236
32-6,100667286,-3563
32-7,100671192,-185
32-8,100675098,3977
32-9,100679004,6330
32-10,100682910,5054
32-11,100686816,1120
32-12,100690722,-3003
32-13,100694628,-4840
32-14,100698534,-3265
32-15,100702440,836
32-16,100706346,5112
32-17,100710252,6591
32-18,100714158,4248
32-19,100718064,-168
32-20,100721970,-3905
32-21,100725876,-4718
32-22,100729782,-2221
32-23,100733688,2159
32-24,100737594,5693
32-25,100741500,6117
32-26,100745406,3280
32-27,100749312,-1337
32-28,100753218,-5299
32-29,100757124,-6479
32-30,100761030,-4059
32-31,100764936,786
32-32,100768842,4826
32-1,100772754,5388
32-2,100776660,2219
32-3,100780566,-2837
32-4,100784472,-6519
32-5,100788378,-6647
32-6,100792284,-3128
32-7,100796190,2259
32-8,100800096,5532
32-9,100804002,4423
32-10,100807908,317
32-11,100811814,-3605
32-12,100815720,-4384
32-13,100819626,-1885
32-14,100823532,2176
32-15,100827438,5518
32-16,100831344,5763
32-17,100835250,2667
32-18,100839156,-1848
32-19,100843062,-5207
32-20,100846968,-5383
32-21,100850874,-2207
32-22,100854780,2531
32-23,100858686,5667
32-24,100862592,5049
32-25,100866498,1490
32-26,100870404,-2842
32-27,100874310,-5574
32-28,100878216,-5320
32-29,100882122,-2172
32-30,100886028,2278
32-31,100889934,5126
32-32,100893840,4639
32-1,100897752,963
32-2,100901658,-4090
32-3,100905564,-7561
32-4,100909470,-7357
32-5,100913376,-3349
32-6,100917282,1925
32-7,100921188,4375
32-8,100925094,2650
32-9,100929000,-1238
32-10,100932906,-3985
32-11,100936812,-3265
32-12,100940718,106
32-13,100944624,4100
32-14,100948530,6544
32-15,100952436,5619
32-16,100956342,1872
32-17,100960248,-2584
32-18,100964154,-5296
32-19,100968060,-4559
32-20,100971966,-708
32-21,100975872,4025
32-22,100979778,6306
32-23,100983684,4667
32-24,100987590,571
32-25,100991496,-3285
32-26,100995402,-4823
32-27,100999308,-3698
32-28,101003214,-610
32-29,101007120,2692
32-30,101011026,4187
32-31,101014932,2966
32-32,101018838,-636
32-1,101022749,-4858
32-2,101026655,-6986
32-3,101030561,-5348
32-4,101034467,-385
32-5,101038373,4370
32-6,101042279,5113
32-7,101046185,2027
32-8,101050091,-2183
32-9,101053997,-4193
32-10,101057903,-2681
32-11,101061809,935
32-12,101065715,4715
32-13,101069621,6329
32-14,101073527,4494
32-15,101077433,355
32-16,101081339,-3805
32-17,101085245,-5620
32-18,101089151,-3866
32-19,101093057,492
32-20,101096963,4844
32-21,101100869,6074
32-22,101104775,3345
32-23,101108681,-1115
32-24,101112587,-4374
32-25,101116493,-4561
32-26,101120399,-2061
32-27,101124305,1326
32-28,101128211,3468
32-29,101132117,3155
32-30,101136023,683
32-31,101139929,-2947
32-32,101143835,-6045
32-1,101147930,-6845
32-2,101151836,-4194
32-3,101155742,909
32-4,101159648,4766
32-5,101163554,4481
32-6,101167460,771
32-7,101171366,-3315
32-8,101175272,-4630
32-9,101179178,-2504
32-10,101183084,1499
32-11,101186990,5224
32-12,101190896,6095
32-13,101194802,3468
32-14,101198708,-795
32-15,101202614,-4198
32-16,101206520,-4681
32-17,101210426,-1950
32-18,101214332,2488
32-19,101218238,5873
32-20,101222144,5706
32-21,101226050,2195
32-22,101229956,-2371
32-23,101233862,-5041
32-24,101237768,-4190
32-25,101241674,-524
32-26,101245580,3500
32-27,101249486,5039
32-28,101253392,3313
32-29,101257298,-532
32-30,101261204,-4700
32-31,101265110,-7254
32-32,101269016,-6858
32-1,101272745,-3227
32-2,101276651,2052
32-3,101280557,5139
32-4,101284463,3900
32-5,101288369,-221
32-6,101292275,-3968
32-7,101296181,-4333
32-8,101300087,-1462
32-9,101303993,2757
32-10,101307899,5942
32-11,101311805,5771
32-12,101315711,2453
32-13,101319617,-1838
32-14,101323523,-4595
32-15,101327429,-4159
32-16,101331335,-827
32-17,101335241,3501
32-18,101339147,5943
32-19,101343053,4650
32-20,101346959,686
32-21,101350865,-3351
32-22,101354771,-5138
32-23,101358677,-3498
32-24,101362583,695
32-25,101366489,4668
32-26,101370395,5768
32-27,101374301,3343
32-28,101378207,-1274
32-29,101382113,-5712
32-30,101386019,-7748
32-31,101389925,-6281
32-32,101393831,-1648
32-1,101397742,3327
32-2,101401648,5046
32-3,101405554,2714
32-4,101409460,-1681
32-5,101413366,-4579
32-6,101417272,-3787
32-7,101421178,-225
32-8,101425084,4106
32-9,101428990,6595
32-10,101432896,5430
32-11,101436802,1543
32-12,101440708,-2635
32-13,101444614,-4637
32-14,101448520,-3283
32-15,101452426,608
32-16,101456332,4753
32-17,101460238,6224
32-18,101464144,3938
32-19,101468050,-413
32-20,101471956,-4090
32-21,101475862,-4893
32-22,101479768,-2435
32-23,101483674,1904
32-24,101487580,5414
32-25,101491486,5779
32-26,101495392,2849
32-27,101499298,-1742
32-28,101503204,-5457
32-29,101507110,-6285
32-30,101511016,-3628
32-31,101514922,1177
32-32,101518828,4942
32-1,101522740,5227
32-2,101526646,1962
32-3,101530552,-3073
32-4,101534458,-6793
32-5,101538364,-7065
32-6,101542270,-3676
32-7,101546176,1704
32-8,101550082,5122
32-9,101553988,4229
32-10,101557894,290
32-11,101561800,-3601
32-12,101565706,-4423
32-13,101569612,-1916
32-14,101573518,2269
32-15,101577424,5802
32-16,101581330,6114
32-17,101585236,2997
32-18,101589142,-1434
32-19,101593048,-4552
32-20,101596954,-4485
32-21,101600860,-1331
32-22,101604766,3041
32-23,101608672,5760
32-24,101612578,4978
32-25,101616484,1413
32-26,101620390,-3014
32-27,101624296,-6079
32-28,101628202,-6185
32-29,101632108,-3126
32-30,101636014,1485
32-31,101639920,4610
32-32,101643826,4248
32-1,101647738,521
32-2,101651644,-4431
32-3,101655550,-7454
32-4,101659456,-6627
32-5,101663362,-2224
32-6,101667268,3025
32-7,101671174,5138
32-8,101675080,2916
32-9,101678986,-1497
32-10,101682892,-4683
32-11,101686798,-4277
32-12,101690704,-966
32-13,101694610,3302
32-14,101698516,6042
32-15,101702422,5191
32-16,101706328,1424
32-17,101710234,-2891
32-18,101714140,-5238
32-19,101718046,-4206
32-20,101721952,-392
32-21,101725858,4014
32-22,101729764,6038
32-23,101733670,4404
32-24,101737576,367
32-25,101741482,-3657
32-26,101745388,-5621
32-27,101749294,-4768
32-28,101753200,-1507
32-29,101757106,2276
32-30,101761012,4193
32-31,101764918,3040
32-32,101768824,-699
32-1,101772796,-4865
32-2,101776702,-6642
32-3,101780608,-4644
32-4,101784514,382
32-5,101788420,4960
32-6,101792326,5479
32-7,101796232,2122
32-8,101800138,-2378
32-9,101804044,-4672
32-10,101807950,-3342
32-11,101811856,408
32-12,101815762,4567
32-13,101819668,6538
32-14,101823574,4898
32-15,101827480,757
32-16,101831386,-3478
32-17,101835292,-5368
32-18,101839198,-3747
32-19,101843104,563
32-20,101847010,4990
32-21,101850916,6241
32-22,101854822,3522
32-23,101858728,-826
32-24,101862634,-3829
32-25,101866540,-3700
32-26,101870446,-1080
32-27,101874352,2117
32-28,101878258,3900
32-29,101882164,3301
32-30,101886070,772
32-31,101889976,-2882
32-32,101893882,-6215
32-1,101897733,-7337
32-2,101901639,-4821
32-3,101905545,459
32-4,101909451,4633
32-5,101913357,4576
32-6,101917263,1023
32-7,101921169,-2895
32-8,101925075,-3997
32-9,101928981,-1749
32-10,101932887,2061
32-11,101936793,5406
32-12,101940699,6070
32-13,101944605,3453
32-14,101948511,-815
32-15,101952417,-4447
32-16,101956323,-5266
32-17,101960229,-2676
32-18,101964135,1931
32-19,101968041,5671
32-20,101971947,5815
32-21,101975853,2472
32-22,101979759,-2042
32-23,101983665,-4701
32-24,101987571,-3888
32-25,101991477,-357
32-26,101995383,3512
32-27,101999289,4944
32-28,102003195,3169
32-29,102007101,-674
32-30,102011007,-4820
32-31,102014913,-7353
32-32,102018819,-6937
32-1,102022730,-3272
32-2,102026636,1967
32-3,102030542,4847
32-4,102034448,3442
32-5,102038354,-563
32-6,102042260,-3904
32-7,102046166,-3838
32-8,102050072,-837
32-9,102053978,3142
32-10,102057884,6043
32-11,102061790,5882
32-12,102065696,2761
32-13,102069602,-1482
32-14,102073508,-4547
32-15,102077414,-4516
32-16,102081320,-1301
32-17,102085226,3256
32-18,102089132,6051
32-19,102093038,4950
32-20,102096944,893
32-21,102100850,-3379
32-22,102104756,-5268
32-23,102108662,-3556
32-24,102112568,756
32-25,102116474,4790
32-26,102120380,5825
32-27,102124286,3386
32-28,102128192,-1146
32-29,102132098,-5612
32-30,102136004,-7928
32-31,102139910,-6957
32-32,102143816,-2714
32-1,102147728,2266
32-2,102151634,4328
32-3,102155540,2417
32-4,102159446,-1688
32-5,102163352,-4511
32-6,102167258,-3771
32-7,102171164,-314
32-8,102175070,3868
32-9,102178976,6277
32-10,102182882,5091
32-11,102186788,1199
32-12,102190694,-2988
32-13,102194600,-5018
32-14,102198506,-3643
32-15,102202412,352
32-16,102206318,4679
32-17,102210224,6347
32-18,102214130,4187
32-19,102218036,-163
32-20,102221942,-3973
32-21,102225848,-4944
32-22,102229754,-2557
32-23,102233660,1837
32-24,102237566,5480
32-25,102241472,5963
32-26,102245378,3041
32-27,102249284,-1678
32-28,102253190,-5602
32-29,102257096,-6551
32-30,102261002,-3870
32-31,102264908,1169
32-32,102268814,5140
32-1,102272726,5073
32-2,102276632,1426
32-3,102280538,-3084
32-4,102284444,-5232
32-5,102288350,-3761
32-6,102292256,115
32-7,102296162,4162
32-8,102300068,5849
32-9,102303974,4343
32-10,102307880,379
32-11,102311786,-4355
32-12,102315692,-7435
32-13,102319598,-7042
32-14,102323504,-2879
32-15,102327410,2557
32-16,102331316,5089
32-17,102335222,3241
32-18,102339128,-1030
32-19,102343034,-4249
32-20,102346940,-3902
32-21,102350846,-644
32-22,102354752,3481
32-23,102358658,5987
32-24,102362564,5143
32-25,102366470,1644
32-26,102370376,-2802
32-27,102374282,-6073
32-28,102378188,-6361
32-29,102382094,-3298
32-30,102386000,1489
32-31,102389906,4822
32-32,102393812,4517
32-1,102397845,685
32-2,102401751,-4381
32-3,102405657,-7413
32-4,102409563,-6490
32-5,102413469,-1997
32-6,102417375,3301
32-7,102421281,5500
32-8,102425187,3408
32-9,102429093,-914
32-10,102432999,-4128
32-11,102436905,-3886
32-12,102440811,-779
32-13,102444717,3401
32-14,102448623,6210
32-15,102452529,5516
32-16,102456435,1905
32-17,102460341,-2334
32-18,102464247,-4676
32-19,102468153,-3718
32-20,102472059,-9
32-21,102475965,4358
32-22,102479871,6326
32-23,102483777,4612
32-24,102487683,604
32-25,102491589,-3231
32-26,102495495,-4904
32-27,102499401,-3883
32-28,102503307,-778
32-29,102507213,2604
32-30,102511119,4156
32-31,102515025,2928
32-32,102518931,-696
32-1,102522721,-4911
32-2,102526627,-6996
32-3,102530533,-5337
32-4,102534439,-441
32-5,102538345,4332
32-6,102542251,5201
32-7,102546157,2094
32-8,102550063,-2406
32-9,102553969,-4866
32-10,102557875,-3658
32-11,102561781,38
32-12,102565687,4214
32-13,102569593,6166
32-14,102573499,4439
32-15,102577405,384
32-16,102581311,-3472
32-17,102585217,-4848
32-18,102589123,-2911
32-19,102593029,1259
32-20,102596935,5256
32-21,102600841,6249
32-22,102604747,3487
32-23,102608653,-903
32-24,102612559,-4149
32-25,102616465,-4391
32-26,102620371,-1891
32-27,102624277,1490
32-28,102628183,3536
32-29,102632089,3048
32-30,102635995,401
32-31,102639901,-3311
32-32,102643807,-6385
32-1,102647749,-7081
32-2,102651655,-4296
32-3,102655561,936
32-4,102659467,4897
32-5,102663373,4640
32-6,102667279,838
32-7,102671185,-3377
32-8,102675091,-4783
32-9,102678997,-2663
32-10,102682903,1406
32-11,102686809,5203
32-12,102690715,6196
32-13,102694621,3656
32-14,102698527,-727
32-15,102702433,-4433
32-16,102706339,-5250
32-17,102710245,-2689
32-18,102714151,1908
32-19,102718057,5587
32-20,102721963,5592
32-21,102725869,2218
32-22,102729775,-2133
32-23,102733681,-4450
32-24,102737587,-3312
32-25,102741493,291
32-26,102745399,4001
32-27,102749305,5175
32-28,102753211,3227
32-29,102757117,-589
32-30,102761023,-4717
32-31,102764929,-7452
32-32,102768835,-7376
32-1,102772716,-4026
32-2,102776622,1169
32-3,102780528,4349
32-4,102784434,3340
32-5,102788340,-392
32-6,102792246,-3683
32-7,102796152,-3644
32-8,102800058,-575
32-9,102803964,3570
32-10,102807870,6493
32-11,102811776,5997
32-12,102815682,2559
32-13,102819588,-1565
32-14,102823494,-4035
32-15,102827400,-3379
32-16,102831306,-67
32-17,102835212,3895
32-18,102839118,6091
32-19,102843024,5084
32-20,102846930,1354
32-21,102850836,-3219
32-22,102854742,-6313
32-23,102858648,-5802
32-24,102862554,-1670
32-25,102866460,3339
32-26,102870366,5655
32-27,102874272,3667
32-28,102878178,-1140
32-29,102882084,-5505
32-30,102885990,-6714
32-31,102889896,-4340
32-32,102893802,392
32-1,102897714,4698
32-2,102901620,5863
32-3,102905526,3267
32-4,102909432,-1588
32-5,102913338,-5481
32-6,102917244,-6047
32-7,102921150,-3063
32-8,102925056,1968
32-9,102928962,5645
32-10,102932868,5258
32-11,102936774,1413
32-12,102940680,-3089
32-13,102944586,-5111
32-14,102948492,-3543
32-15,102952398,506
32-16,102956304,4839
32-17,102960210,6449
32-18,102964116,4192
32-19,102968022,-239
32-20,102971928,-4018
32-21,102975834,-4866
32-22,102979740,-2354
32-23,102983646,2138
32-24,102987552,5586
32-25,102991458,5656
32-26,102995364,2873
32-27,102999270,-572
32-28,103003176,-2504
32-29,103007082,-2041
32-30,103010988,338
32-31,103014894,3505
32-32,103018800,5428
32-1,103022864,4775
32-2,103026770,2061
32-3,103030676,-2237
32-4,103034582,-6677
32-5,103038488,-9130
32-6,103042394,-8138
32-7,103046300,-3740
32-8,103050206,716
32-9,103054112,1989
32-10,103058018,5
32-11,103061924,-2903
32-12,103065830,-3598
32-13,103069736,-1186
32-14,103073642,2656
32-15,103077548,5598
32-16,103081454,5647
32-17,103085360,2652
32-18,103089266,-1631
32-19,103093172,-4893
32-20,103097078,-5074
32-21,103100984,-1898
32-22,103104890,2855
32-23,103108796,6157
32-24,103112702,5828
32-25,103116608,2387
32-26,103120514,-2228
32-27,103124420,-5576
32-28,103128326,-5915
32-29,103132232,-2960
32-30,103136138,1750
32-31,103140044,5062
32-32,103143950,4801
32-1,103147709,1046
32-2,103151615,-4006
32-3,103155521,-7132
32-4,103159427,-6339
32-5,103163333,-1917
32-6,103167239,3402
32-7,103171145,5640
32-8,103175051,3510
32-9,103178957,-928
32-10,103182863,-4265
32-11,103186769,-4054
32-12,103190675,-864
32-13,103194581,3420
32-14,103198487,6289
32-15,103202393,5579
32-16,103206299,1903
32-17,103210205,-2383
32-18,103214111,-4742
32-19,103218017,-3767
32-20,103221923,-79
32-21,103225829,4194
32-22,103229735,6041
32-23,103233641,4194
32-24,103237547,95
32-25,103241453,-3741
32-26,103245359,-5361
32-27,103249265,-4263
32-28,103253171,-1061
32-29,103257077,2419
32-30,103260983,4077
32-31,103264889,2924
32-32,103268795,-696
32-1,103272707,-4967
32-2,103276613,-7136
32-3,103280519,-5526
32-4,103284425,-599
32-5,103288331,4258
32-6,103292237,5232
32-7,103296143,2234
32-8,103300049,-2179
32-9,103303955,-4613
32-10,103307861,-3438
32-11,103311767,205
32-12,103315673,4381
32-13,103319579,6448
32-14,103323485,4887
32-15,103327391,908
32-16,103331297,-3045
32-17,103335203,-4601
32-18,103339109,-2800
32-19,103343015,1327
32-20,103346921,5335
32-21,103350827,6315
32-22,103354733,3496
32-23,103358639,-956
32-24,103362545,-4233
32-25,103366451,-4477
32-26,103370357,-1954
32-27,103374263,1477
32-28,103378169,3621
32-29,103382075,3256
32-30,103385981,689
32-31,103389887,-2998
32-32,103393793,-6059
32-1,103397765,-6765
32-2,103401671,-4038
32-3,103405577,1115
32-4,103409483,5032
32-5,103413389,4804
32-6,103417295,1099
32-7,103421201,-3044
32-8,103425107,-4468
32-9,103429013,-2445
32-10,103432919,1540
32-11,103436825,5342
32-12,103440731,6290
32-13,103444637,3654
32-14,103448543,-690
32-15,103452449,-4198
32-16,103456355,-4777
32-17,103460261,-2114
32-18,103464167,2329
32-19,103468073,5777
32-20,103471979,5688
32-21,103475885,2226
32-22,103479791,-2327
32-23,103483697,-5001
32-24,103487603,-4128
32-25,103491509,-415
32-26,103495415,3627
32-27,103499321,5123
32-28,103503227,3255
32-29,103507133,-769
32-30,103511039,-4968
32-31,103514945,-7330
32-32,103518851,-6605
32-1,103522702,-2737
32-2,103526608,2544
32-3,103530514,5478
32-4,103534420,4071
32-5,103538326,-130
32-6,103542232,-3863
32-7,103546138,-4252
32-8,103550044,-1444
32-9,103553950,2769
32-10,103557856,5982
32-11,103561762,5832
32-12,103565668,2497
32-13,103569574,-1852
32-14,103573480,-4666
32-15,103577386,-4231
32-16,103581292,-795
32-17,103585198,3699
32-18,103589104,6278
32-19,103593010,4997
32-20,103596916,889
32-21,103600822,-3368
32-22,103604728,-5305
32-23,103608634,-3628
32-24,103612540,689
32-25,103616446,4738
32-26,103620352,5820
32-27,103624258,3325
32-28,103628164,-1322
32-29,103632070,-5701
32-30,103635976,-7636
32-31,103639882,-6129
32-32,103643788,-1521
32-1,103647852,3419
32-2,103651758,5126
32-3,103655664,2759
32-4,103659570,-1689
32-5,103663476,-4658
32-6,103667382,-3957
32-7,103671288,-436
32-8,103675194,3863
32-9,103679100,6375
32-10,103683006,5281
32-11,103686912,1354
32-12,103690818,-3054
32-13,103694724,-5426
32-14,103698630,-4378
32-15,103702536,-488
32-16,103706442,3968
32-17,103710348,5738
32-18,103714254,3629
32-19,103718160,-555
32-20,103722066,-3983
32-21,103725972,-4468
32-22,103729878,-1892
32-23,103733784,2268
32-24,103737690,5536
32-25,103741596,5847
32-26,103745502,3049
32-27,103749408,-1497
32-28,103753314,-5477
32-29,103757220,-6710
32-30,103761126,-4275
32-31,103765032,593
32-32,103768938,4617
32-1,103772697,5064
32-2,103776603,1756
32-3,103780509,-3279
32-4,103784415,-6742
32-5,103788321,-6554
32-6,103792227,-2883
32-7,103796133,2389
32-8,103800039,5551
32-9,103803945,4469
32-10,103807851,415
32-11,103811757,-3618
32-12,103815663,-4721
32-13,103819569,-2474
32-14,103823475,1712
32-15,103827381,5465
32-16,103831287,6039
32-17,103835193,3072
32-18,103839099,-1357
32-19,103843005,-4512
32-20,103846911,-4482
32-21,103850817,-1382
32-22,103854723,2988
32-23,103858629,5786
32-24,103862535,5095
32-25,103866441,1579
32-26,103870347,-2868
32-27,103874253,-6013
32-28,103878159,-6195
32-29,103882065,-3128
32-30,103885971,1651
32-31,103889877,5059
32-32,103893783,4920
32-1,103897695,1257
32-2,103901601,-3774
32-3,103905507,-6938
32-4,103909413,-6238
32-5,103913319,-1906
32-6,103917225,3305
32-7,103921131,5362
32-8,103925037,3171
32-9,103928943,-1027
32-10,103932849,-3897
32-11,103936755,-3272
32-12,103940661,-52
32-13,103944567,3826
32-14,103948473,6201
32-15,103952379,5273
32-16,103956285,1609
32-17,103960191,-2721
32-18,103964097,-5387
32-19,103968003,-4754
32-20,103971909,-1082
32-21,103975815,3568
32-22,103979721,5969
32-23,103983627,4564
32-24,103987533,644
32-25,103991439,-3235
32-26,103995345,-4937
32-27,103999251,-3932
32-28,104003157,-830
32-29,104007063,2582
32-30,104010969,4146
32-31,104014875,2861
32-32,104018781,-866
32-1,104022693,-5178
32-2,104026599,-7312
32-3,104030505,-5611
32-4,104034411,-596
32-5,104038317,4317
32-6,104042223,5300
32-7,104046129,2259
32-8,104050035,-2187
32-9,104053941,-4608
32-10,104057847,-3395
32-11,104061753,269
32-12,104065659,4393
32-13,104069565,6341
32-14,104073471,4647
32-15,104077377,572
32-16,104081283,-3421
32-17,104085189,-4998
32-18,104089095,-3199
32-19,104093001,934
32-20,104096907,4966
32-21,104100813,5989
32-22,104104719,3210
32-23,104108625,-1217
32-24,104112531,-4474
32-25,104116437,-4676
32-26,104120343,-2109
32-27,104124249,1355
32-28,104128155,3531
32-29,104132061,3211
32-30,104135967,712
32-31,104139873,-2939
32-32,104143779,-6067
32-1,104147782,-6899
32-2,104151688,-4248
32-3,104155594,957
32-4,104159500,5028
32-5,104163406,4910
32-6,104167312,1202
32-7,104171218,-3019
32-8,104175124,-4489
32-9,104179030,-2413
32-10,104182936,1644
32-11,104186842,5486
32-12,104190748,6457
32-13,104194654,3823
32-14,104198560,-529
32-15,104202466,-4040
32-16,104206372,-4597
32-17,104210278,-1889
32-18,104214184,2564
32-19,104218090,5991
32-20,104221996,5837
32-21,104225902,2283
32-22,104229808,-2305
32-23,104233714,-4982
32-24,104237620,-4155
32-25,104241526,-539
32-26,104245432,3400
32-27,104249338,4869
32-28,104253244,3068
32-29,104257150,-845
32-30,104261056,-4979
32-31,104264962,-7412
32-32,104268868,-6869
32-1,104272688,-3180
32-2,104276594,2008
32-3,104280500,4958
32-4,104284406,3652
32-5,104288312,-449
32-6,104292218,-4137
32-7,104296124,-4521
32-8,104300030,-1698
32-9,104303936,2552
32-10,104307842,5842
32-11,104311748,5786
32-12,104315654,2492
32-13,104319560,-1877
32-14,104323466,-4745
32-15,104327372,-4354
32-16,104331278,-945
32-17,104335184,3544
32-18,104339090,6134
32-19,104342996,4890
32-20,104346902,819
32-21,104350808,-3414
32-22,104354714,-5349
32-23,104358620,-3708
32-24,104362526,592
32-25,104366432,4676
32-26,104370338,5849
32-27,104374244,3459
32-28,104378150,-1127
32-29,104382056,-5531
32-30,104385962,-7567
32-31,104389868,-6179
32-32,104393774,-1651
32-1,104397685,3314
32-2,104401591,5141
32-3,104405497,2919
32-4,104409403,-1457
32-5,104413309,-4456
32-6,104417215,-3869
32-7,104421121,-510
32-8,104425027,3692
32-9,104428933,6171
32-10,104432839,5082
32-11,104436745,1297
32-12,104440651,-2813
32-13,104444557,-4824
32-14,104448463,-3515
32-15,104452369,360
32-16,104456275,4567
32-17,104460181,6113
32-18,104464087,3834
32-19,104467993,-589
32-20,104471899,-4402
32-21,104475805,-5333
32-22,104479711,-2925
32-23,104483617,1444
32-24,104487523,5062
32-25,104491429,5618
32-26,104495335,2873
32-27,104499241,-1743
32-28,104503147,-5756
32-29,104507053,-6947
32-30,104510959,-4436
32-31,104514865,539
32-32,104518771,4639
32-1,104522683,5136
32-2,104526589,1849
32-3,104530495,-3281
32-4,104534401,-6974
32-5,104538307,-7080
32-6,104542213,-3593
32-7,104546119,1730
32-8,104550025,5020
32-9,104553931,4008
32-10,104557837,29
32-11,104561743,-3821
32-12,104565649,-4582
32-13,104569555,-2095
32-14,104573461,1961
32-15,104577367,5321
32-16,104581273,5511
32-17,104585179,2397
32-18,104589085,-1935
32-19,104592991,-4964
32-20,104596897,-4881
32-21,104600803,-1750
32-22,104604709,2645
32-23,104608615,5523
32-24,104612521,5022
32-25,104616427,1660
32-26,104620333,-2896
32-27,104624239,-6409
32-28,104628145,-6945
32-29,104632051,-3968
32-30,104635957,1030
32-31,104639863,4731
32-32,104643769,4668
32-1,104647681,934
32-2,104651587,-4042
32-3,104655493,-6890
32-4,104659399,-5798
32-5,104663305,-1358
32-6,104667211,3702
32-7,104671117,5636
32-8,104675023,3383
32-9,104678929,-914
32-10,104682835,-4023
32-11,104686741,-3740
32-12,104690647,-646
32-13,104694553,3447
32-14,104698459,6185
32-15,104702365,5542
32-16,104706271,1970
32-17,104710177,-2375
32-18,104714083,-4996
32-19,104717989,-4314
32-20,104721895,-635
32-21,104725801,4002
32-22,104729707,6302
32-23,104733613,4794
32-24,104737519,936
32-25,104741425,-2688
32-26,104745331,-4093
32-27,104749237,-3025
32-28,104753143,-194
32-29,104757049,2789
32-30,104760955,4079
32-31,104764861,2869
32-32,104768767,-640
32-1,104772678,-4959
32-2,104776584,-7387
32-3,104780490,-6035
32-4,104784396,-1111
32-5,104788302,3993
32-6,104792208,5247
32-7,104796114,2503
32-8,104800020,-1648
32-9,104803926,-3795
32-10,104807832,-2388
32-11,104811738,1168
32-12,104815644,4893
32-13,104819550,6490
32-14,104823456,4637
32-15,104827362,482
32-16,104831268,-3717
32-17,104835174,-5640
32-18,104839080,-4040
32-19,104842986,206
32-20,104846892,4557
32-21,104850798,5883
32-22,104854704,3254
32-23,104858610,-1191
32-24,104862516,-4510
32-25,104866422,-4727
32-26,104870328,-2198
32-27,104874234,1236
32-28,104878140,3391
32-29,104882046,3091
32-30,104885952,707
32-31,104889858,-2870
32-32,104893764,-6063
32-1,104897767,-7112
32-2,104901673,-4732
32-3,104905579,355
32-4,104909485,4451
32-5,104913391,4467
32-6,104917297,1049
32-7,104921203,-2756
32-8,104925109,-3790
32-9,104929015,-1483
32-10,104932921,2364
32-11,104936827,5731
32-12,104940733,6406
32-13,104944639,3776
32-14,104948545,-503
32-15,104952451,-4171
32-16,104956357,-5085
32-17,104960263,-2616
32-18,104964169,1898
32-19,104968075,5619
32-20,104971981,5793
32-21,104975887,2441
32-22,104979793,-2116
32-23,104983699,-4816
32-24,104987605,-4052
32-25,104991511,-555
32-26,104995417,3322
32-27,104999323,4787
32-28,105003229,3035
32-29,105007135,-785
32-30,105011041,-4890
32-31,105014947,-7389
32-32,105018853,-6976
32-1,105022674,-3396
32-2,105026580,1815
32-3,105030486,4894
32-4,105034392,3743
32-5,105038298,-212
32-6,105042204,-3828
32-7,105046110,-4188
32-8,105050016,-1409
32-9,105053922,2689
32-10,105057828,5815
32-11,105061734,5676
32-12,105065640,2409
32-13,105069546,-1871
32-14,105073452,-4679
32-15,105077358,-4311
32-16,105081264,-978
32-17,105085170,3475
32-18,105089076,6137
32-19,105092982,5006
32-20,105096888,1018
32-21,105100794,-3205
32-22,105104700,-5205
32-23,105108606,-3628
32-24,105112512,602
32-25,105116418,4679
32-26,105120324,5813
32-27,105124230,3126
32-28,105128136,-1668
32-29,105132042,-5730
32-30,105135948,-6895
32-31,105139854,-4552
32-32,105143760,240
32-1,105147671,4629
32-2,105151577,5840
32-3,105155483,3244
32-4,105159389,-1544
32-5,105163295,-5284
32-6,105167201,-5663
32-7,105171107,-2608
32-8,105175013,2315
32-9,105178919,5853
32-10,105182825,5430
32-11,105186731,1646
32-12,105190637,-2806
32-13,105194543,-4943
32-14,105198449,-3575
32-15,105202355,368
32-16,105206261,4705
32-17,105210167,6427
32-18,105214073,4323
32-19,105217979,16
32-20,105221885,-3781
32-21,105225791,-4799
32-22,105229697,-2527
32-23,105233603,1746
32-24,105237509,5369
32-25,105241415,6000
32-26,105245321,3342
32-27,105249227,-1227
32-28,105253133,-5258
32-29,105257039,-6570
32-30,105260945,-4258
32-31,105264851,526
32-32,105268757,4531
32-1,105272669,5072
32-2,105276575,1876
32-3,105280481,-3219
32-4,105284387,-6950
32-5,105288293,-7087
32-6,105292199,-3513
32-7,105296105,2010
32-8,105300011,5503
32-9,105303917,4563
32-10,105307823,493
32-11,105311729,-3568
32-12,105315635,-4543
32-13,105319541,-2166
32-14,105323447,1935
32-15,105327353,5470
32-16,105331259,5909
32-17,105335165,2963
32-18,105339071,-1314
32-19,105342977,-4436
32-20,105346883,-4436
32-21,105350789,-1142
32-22,105354695,2927
32-23,105358601,4994
32-24,105362507,4432
32-25,105366413,2899
32-26,105370319,1840
32-27,105374225,1211
32-28,105378131,663
32-29,105382037,797
32-30,105385943,2238
32-31,105389849,3729
32-32,105393755,3680
32-1,105397666,1086
32-2,105401572,-3440
32-3,105405478,-7710
32-4,105409384,-9834
32-5,105413290,-8577
32-6,105417196,-4608
32-7,105421102,-925
32-8,105425008,101
32-9,105428914,-1479
32-10,105432820,-3542
32-11,105436726,-3488
32-12,105440632,-871
32-13,105444538,2837
32-14,105448444,5223
32-15,105452350,4433
32-16,105456256,1103
32-17,105460162,-2766
32-18,105464068,-4925
32-19,105467974,-3900
32-20,105471880,-202
32-21,105475786,4125
32-22,105479692,6136
32-23,105483598,4507
32-24,105487504,597
32-25,105491410,-3148
32-26,105495316,-4787
32-27,105499222,-3786
32-28,105503128,-735
32-29,105507034,2621
32-30,105510940,4244
32-31,105514846,3138
32-32,105518752,-385
32-1,105522664,-4589
32-2,105526570,-6768
32-3,105530476,-5211
32-4,105534382,-306
32-5,105538288,4607
32-6,105542194,5684
32-7,105546100,2731
32-8,105550006,-1718
32-9,105553912,-4216
32-10,105557818,-3087
32-11,105561724,493
32-12,105565630,4482
32-13,105569536,6319
32-14,105573442,4589
32-15,105577348,449
32-16,105581254,-3691
32-17,105585160,-5468
32-18,105589066,-3811
32-19,105592972,425
32-20,105596878,4775
32-21,105600784,6060
32-22,105604690,3447
32-23,105608596,-802
32-24,105612502,-3794
32-25,105616408,-3740
32-26,105620314,-1223
32-27,105624220,1919
32-28,105628126,3701
32-29,105632032,3144
32-30,105635938,716
32-31,105639844,-2865
32-32,105643750,-6266
32-1,105647784,-7627
32-2,105651690,-5416
32-3,105655596,-262
32-4,105659502,4094
32-5,105663408,4344
32-6,105667314,988
32-7,105671220,-2947
32-8,105675126,-4198
32-9,105679032,-2004
32-10,105682938,1883
32-11,105686844,5410
32-12,105690750,6309
32-13,105694656,3840
32-14,105698562,-427
32-15,105702468,-4195
32-16,105706374,-5201
32-17,105710280,-2744
32-18,105714186,1834
32-19,105718092,5635
32-20,105721998,5874
32-21,105725904,2580
32-22,105729810,-1962
32-23,105733716,-4688
32-24,105737622,-3912
32-25,105741528,-364
32-26,105745434,3619
32-27,105749340,5207
32-28,105753246,3342
32-29,105757152,-765
32-30,105761058,-4842
32-31,105764964,-6794
32-32,105768870,-5575
32-1,105772659,-1598
32-2,105776565,3160
32-3,105780471,5685
32-4,105784377,4387
32-5,105788283,104
32-6,105792189,-4532
32-7,105796095,-6547
32-8,105800001,-4912
32-9,105803907,-352
32-10,105807813,4343
32-11,105811719,5619
32-12,105815625,2853
32-13,105819531,-1725
32-14,105823437,-4757
32-15,105827343,-4204
32-16,105831249,-695
32-17,105835155,3827
32-18,105839061,6467
32-19,105842967,5261
32-20,105846873,1212
32-21,105850779,-3035
32-22,105854685,-4993
32-23,105858591,-3385
32-24,105862497,849
32-25,105866403,4936
32-26,105870309,6110
32-27,105874215,3544
32-28,105878121,-1150
32-29,105882027,-5263
32-30,105885933,-6655
32-31,105889839,-4652
32-32,105893745,-153
32-1,105897657,4135
32-2,105901563,5426
32-3,105905469,2974
32-4,105909375,-1703
32-5,105913281,-5378
32-6,105917187,-5688
32-7,105921093,-2591
32-8,105924999,2322
32-9,105928905,5832
32-10,105932811,5380
32-11,105936717,1602
32-12,105940623,-2806
32-13,105944529,-4885
32-14,105948435,-3478
32-15,105952341,448
32-16,105956247,4749
32-17,105960153,6440
32-18,105964059,4299
32-19,105967965,-62
32-20,105971871,-3915
32-21,105975777,-4959
32-22,105979683,-2668
32-23,105983589,1673
32-24,105987495,5407
32-25,105991401,6121
32-26,105995307,3435
32-27,105999213,-1166
32-28,106003119,-5102
32-29,106007025,-6162
32-30,106010931,-3588
32-31,106014837,1293
32-32,106018743,5211
32-1,106022655,5576
32-2,106026561,2257
32-3,106030467,-2913
32-4,106034373,-6761
32-5,106038279,-7093
32-6,106042185,-3732
32-7,106046091,1654
32-8,106049997,5099
32-9,106053903,4187
32-10,106057809,214
32-11,106061715,-3708
32-12,106065621,-4561
32-13,106069527,-2105
32-14,106073433,1980
32-15,106077339,5501
32-16,106081245,5980
32-17,106085151,3104
32-18,106089057,-1154
32-19,106092963,-4311
32-20,106096869,-4456
32-21,106100775,-1493
32-22,106104681,2876
32-23,106108587,5850
32-24,106112493,5412
32-25,106116399,2069
32-26,106120305,-2382
32-27,106124211,-5711
32-28,106128117,-6139
32-29,106132023,-3261
32-30,106135929,1402
32-31,106139835,4722
32-32,106143741,4517
32-1,106147652,846
32-2,106151558,-4164
32-3,106155464,-7345
32-4,106159370,-6679
32-5,106163276,-2366
32-6,106167182,2998
32-7,106171088,5432
32-8,106174994,3507
32-9,106178900,-818
32-10,106182806,-4174
32-11,106186712,-4056
32-12,106190618,-970
32-13,106194524,3212
32-14,106198430,6051
32-15,106202336,5432
32-16,106206242,1879
32-17,106210148,-2340
32-18,106214054,-4728
32-19,106217960,-3835
32-20,106221866,-152
32-21,106225772,4242
32-22,106229678,6299
32-23,106233584,4633
32-24,106237490,601
32-25,106241396,-3273
32-26,106245302,-4986
32-27,106249208,-4001
32-28,106253114,-917
32-29,106257020,2465
32-30,106260926,4032
32-31,106264832,2804
32-32,106268738,-839
32-1,106272650,-5088
32-2,106276556,-7230
32-3,106280462,-5598
32-4,106284368,-610
32-5,106288274,4393
32-6,106292180,5516
32-7,106296086,2552
32-8,106299992,-1939
32-9,106303898,-4487
32-10,106307804,-3380
32-11,106311710,220
32-12,106315616,4295
32-13,106319522,6212
32-14,106323428,4521
32-15,106327334,483
32-16,106331240,-3459
32-17,106335146,-5007
32-18,106339052,-3208
32-19,106342958,943
32-20,106346864,5025
32-21,106350770,6108
32-22,106354676,3347
32-23,106358582,-1103
32-24,106362488,-4400
32-25,106366394,-4634
32-26,106370300,-2077
32-27,106374206,1366
32-28,106378112,3507
32-29,106382018,3134
32-30,106385924,600
32-31,106389830,-3033
32-32,106393736,-6114
32-1,106397800,-6927
32-2,106401706,-4294
32-3,106405612,911
32-4,106409518,4974
32-5,106413424,4851
32-6,106417330,1174
32-7,106421236,-2945
32-8,106425142,-4270
32-9,106429048,-2138
32-10,106432954,1755
32-11,106436860,5255
32-12,106440766,6169
32-13,106444672,3809
32-14,106448578,-532
32-15,106452484,-4672
32-16,106456390,-6238
32-17,106460296,-4116
32-18,106464202,717
32-19,106468108,5165
32-20,106472014,5919
32-21,106475920,2770
32-22,106479826,-1862
32-23,106483732,-4589
32-24,106487638,-3725
32-25,106491544,-294
32-26,106495450,3374
32-27,106499356,4637
32-28,106503262,2847
32-29,106507168,-826
32-30,106511074,-4855
32-31,106514980,-7496
32-32,106518886,-7371
32-1,106522645,-3956
32-2,106526551,1385
32-3,106530457,4723
32-4,106534363,3761
32-5,106538269,-96
32-6,106542175,-3628
32-7,106546081,-3844
32-8,106549987,-939
32-9,106553893,3082
32-10,106557799,6057
32-11,106561705,5895
32-12,106565611,2654
32-13,106569517,-1732
32-14,106573423,-4888
32-15,106577329,-4884
32-16,106581235,-1644
32-17,106585141,3019
32-18,106589047,5922
32-19,106592953,4896
32-20,106596859,1019
32-21,106600765,-2953
32-22,106604671,-4538
32-23,106608577,-2717
32-24,106612483,1366
32-25,106616389,5022
32-26,106620295,5844
32-27,106624201,3388
32-28,106628107,-1027
32-29,106632013,-5371
32-30,106635919,-7604
32-31,106639825,-6494
32-32,106643731,-2188
32-1,106647643,2724
32-2,106651549,4676
32-3,106655455,2681
32-4,106659361,-1443
32-5,106663267,-4280
32-6,106667173,-3613
32-7,106671079,-264
32-8,106674985,3811
32-9,106678891,6235
32-10,106682797,5201
32-11,106686703,1373
32-12,106690609,-2966
32-13,106694515,-5307
32-14,106698421,-4175
32-15,106702327,-156
32-16,106706233,4435
32-17,106710139,6416
32-18,106714045,4429
32-19,106717951,96
32-20,106721857,-3727
32-21,106725763,-4705
32-22,106729669,-2444
32-23,106733575,1754
32-24,106737481,5269
32-25,106741387,5770
32-26,106745293,2958
32-27,106749199,-1733
32-28,106753105,-5811
32-29,106757011,-7074
32-30,106760917,-4637
32-31,106764823,289
32-32,106768729,4421
32-1,106772640,5047
32-2,106776546,1933
32-3,106780452,-3081
32-4,106784358,-6775
32-5,106788264,-6957
32-6,106792170,-3483
32-7,106796076,1935
32-8,106799982,5277
32-9,106803888,4253
32-10,106807794,338
32-11,106811700,-3297
32-12,106815606,-3753
32-13,106819512,-1088
32-14,106823418,2851
32-15,106827324,5990
32-16,106831230,6158
32-17,106835136,3119
32-18,106839042,-1328
32-19,106842948,-4806
32-20,106846854,-5191
32-21,106850760,-2147
32-22,106854666,2572
32-23,106858572,5906
32-24,106862478,5626
32-25,106866384,2250
32-26,106870290,-2300
32-27,106874196,-5620
32-28,106878102,-5986
32-29,106882008,-3110
32-30,106885914,1546
32-31,106889820,4879
32-32,106893726,4686
32-1,106897638,1026
32-2,106901544,-3970
32-3,106905450,-7125
32-4,106909356,-6453
32-5,106913262,-2185
32-6,106917168,3099
32-7,106921074,5462
32-8,106924980,3500
32-9,106928886,-804
32-10,106932792,-4107
32-11,106936698,-3958
32-12,106940604,-885
32-13,106944510,3282
32-14,106948416,6120
32-15,106952322,5472
32-16,106956228,1881
32-17,106960134,-2381
32-18,106964040,-4795
32-19,106967946,-3875
32-20,106971852,-149
32-21,106975758,4335
32-22,106979664,6509
32-23,106983570,4927
32-24,106987476,943
32-25,106991382,-2943
32-26,106995288,-4698
32-27,106999194,-3731
32-28,107003100,-660
32-29,107007006,2724
32-30,107010912,4325
32-31,107014818,3145
32-32,107018724,-448
32-1,107022636,-4704
32-2,107026542,-6961
32-3,107030448,-5548
32-4,107034354,-819
32-5,107038260,4004
32-6,107042166,5111
32-7,107046072,2287
32-8,107049978,-2017
32-9,107053884,-4483
32-10,107057790,-3434
32-11,107061696,66
32-12,107065602,4132
32-13,107069508,6146
32-14,107073414,4523
32-15,107077320,470
32-16,107081226,-3517
32-17,107085132,-5081
32-18,107089038,-3244
32-19,107092944,957
32-20,107096850,5088
32-21,107100756,6246
32-22,107104662,3583
32-23,107108568,-820
32-24,107112474,-4169
32-25,107116380,-4561
32-26,107120286,-2174
32-27,107124192,1232
32-28,107128098,3438
32-29,107132004,3153
32-30,107135910,651
32-31,107139816,-3067
32-32,107143722,-6295
32-1,107147816,-7206
32-2,107151722,-4591
32-3,107155628,672
32-4,107159534,4889
32-5,107163440,4917
32-6,107167346,1259
32-7,107171252,-2961
32-8,107175158,-4494
32-9,107179064,-2336
32-10,107182970,1848
32-11,107186876,5067
32-12,107190782,5306
32-13,107194688,3481
32-14,107198594,1922
32-15,107202500,1808
32-16,107206406,2688
32-17,107210312,3625
32-18,107214218,4632
32-19,107218124,5325
32-20,107222030,4874
32-21,107225936,2949
32-22,107229842,-1157
32-23,107233748,-5989
32-24,107237654,-8771
32-25,107241560,-8044
32-26,107245466,-4165
32-27,107249372,-15
32-28,107253278,1311
32-29,107257184,-902
32-30,107261090,-4857
32-31,107264996,-7341
32-32,107268902,-6277
32-1,107272631,-2221
32-2,107276537,2711
32-3,107280443,5220
32-4,107284349,3692
32-5,107288255,-352
32-6,107292161,-3908
32-7,107296067,-4349
32-8,107299973,-1720
32-9,107303879,2401
32-10,107307785,5673
32-11,107311691,5675
32-12,107315597,2457
32-13,107319503,-1827
32-14,107323409,-4615
32-15,107327315,-4206
32-16,107331221,-867
32-17,107335127,3515
32-18,107339033,6079
32-19,107342939,4912
32-20,107346845,992
32-21,107350751,-3136
32-22,107354657,-5108
32-23,107358563,-3606
32-24,107362469,525
32-25,107366375,4488
32-26,107370281,5572
32-27,107374187,3205
32-28,107378093,-1265
32-29,107381999,-5724
32-30,107385905,-8097
32-31,107389811,-7185
32-32,107393717,-2898
32-1,107397629,2270
32-2,107401535,4560
32-3,107405441,2806
32-4,107409347,-1229
32-5,107413253,-4040
32-6,107417159,-3307
32-7,107421065,87
32-8,107424971,4150
32-9,107428877,6536
32-10,107432783,5460
32-11,107436689,1712
32-12,107440595,-2443
32-13,107444501,-4605
32-14,107448407,-3376
32-15,107452313,514
32-16,107456219,4777
32-17,107460125,6424
32-18,107464031,4252
32-19,107467937,-91
32-20,107471843,-3905
32-21,107475749,-4927
32-22,107479655,-2638
32-23,107483561,1656
32-24,107487467,5294
32-25,107491373,5916
32-26,107495279,3181
32-27,107499185,-1522
32-28,107503091,-5688
32-29,107506997,-7029
32-30,107510903,-4606
32-31,107514809,376
32-32,107518715,4495
32-1,107522626,5103
32-2,107526532,2066
32-3,107530438,-3065
32-4,107534344,-7254
32-5,107538250,-8197
32-6,107542156,-5347
32-7,107546062,98
32-8,107549968,4130
32-9,107553874,3906
32-10,107557780,387
32-11,107561686,-3374
32-12,107565592,-4148
32-13,107569498,-1579
32-14,107573404,2383
32-15,107577310,5578
32-16,107581216,5836
32-17,107585122,2888
32-18,107589028,-1436
32-19,107592934,-4799
32-20,107596840,-5164
32-21,107600746,-2251
32-22,107604652,2430
32-23,107608558,5683
32-24,107612464,5223
32-25,107616370,2015
32-26,107620276,-2039
32-27,107624182,-4783
32-28,107628088,-4926
32-29,107631994,-2450
32-30,107635900,1559
32-31,107639806,4551
32-32,107643712,4500
32-1,107647654,1232
32-2,107651560,-3709
32-3,107655466,-7290
32-4,107659372,-6991
32-5,107663278,-2870
32-6,107667184,2503
32-7,107671090,5078
32-8,107674996,3369
32-9,107678902,-623
32-10,107682808,-3617
32-11,107686714,-3189
32-12,107690620,-63
32-13,107694526,3817
32-14,107698432,6291
32-15,107702338,5491
32-16,107706244,1870
32-17,107710150,-2499
32-18,107714056,-5228
32-19,107717962,-4595
32-20,107721868,-863
32-21,107725774,3822
32-22,107729680,6331
32-23,107733586,4756
32-24,107737492,588
32-25,107741398,-3064
32-26,107745304,-4339
32-27,107749210,-3091
32-28,107753116,-336
32-29,107757022,2284
32-30,107760928,3340
32-31,107764834,2232
32-32,107768740,-981
32-1,107772621,-4854
32-2,107776527,-7077
32-3,107780433,-5758
32-4,107784339,-804
32-5,107788245,4093
32-6,107792151,5066
32-7,107796057,2173
32-8,107799963,-1983
32-9,107803869,-4063
32-10,107807775,-2658
32-11,107811681,904
32-12,107815587,4713
32-13,107819493,6508
32-14,107823399,4873
32-15,107827305,853
32-16,107831211,-3341
32-17,107835117,-5348
32-18,107839023,-3852
32-19,107842929,335
32-20,107846835,4750
32-21,107850741,6240
32-22,107854647,3871
32-23,107858553,-669
32-24,107862459,-4264
32-25,107866365,-4383
32-26,107870271,-1556
32-27,107874177,2111
32-28,107878083,4074
32-29,107881989,3137
32-30,107885895,229
32-31,107889801,-3306
32-32,107893707,-6086
33-1,107895544,-6652
33-2,107899450,-4192
33-3,107903356,738
33-4,107907262,4982
33-5,107911168,5059
33-6,107915074,1442
33-7,107918980,-2796
33-8,107922886,-4389
33-9,107926792,-2450
33-10,107930698,1442
33-11,107934604,5167
33-12,107938510,6123
33-13,107942416,3579
33-14,107946322,-689
33-15,107950228,-4214
33-16,107954134,-4922
33-17,107958040,-2392
33-18,107961946,2000
33-19,107965852,5572
33-20,107969758,5693
33-21,107973664,2355
33-22,107977570,-2081
33-23,107981476,-5026
33-24,107985382,-4549
33-25,107989288,-765
33-26,107993194,3661
33-27,107997100,5583
33-28,108001006,3745
33-29,108004912,-644
33-30,108008818,-5215
33-31,108012724,-7769
33-32,108016630,-7200
33-33,108020536,-3429
32-1,108026523,1734
32-2,108030429,4790
32-3,108034335,3890
32-4,108038241,-8
32-5,108042147,-3730
32-6,108046053,-4200
32-7,108049959,-1406
32-8,108053865,2821
32-9,108057771,6101
32-10,108061677,6067
32-11,108065583,2750
32-12,108069489,-1656
32-13,108073395,-4562
32-14,108077301,-4194
32-15,108081207,-764
32-16,108085113,3854
32-17,108089019,6529
32-18,108092925,5266
32-19,108096831,1332
32-20,108100737,-2555
32-21,108104643,-4008
32-22,108108549,-2328
32-23,108112455,1393
32-24,108116361,4971
32-25,108120267,6108
32-26,108124173,4357
32-27,108128079,545
32-28,108131985,-4186
32-29,108135891,-7777
32-30,108139797,-8188
32-31,108143703,-4734
32-32,108147609,537
32-1,108151521,3502
32-2,108155427,2342
32-3,108159333,-1404
32-4,108163239,-4421
32-5,108167145,-3975
32-6,108171051,-533
32-7,108174957,3776
32-8,108178863,6407
32-9,108182769,5443
32-10,108186675,1607
32-11,108190581,-2699
32-12,108194487,-4943
32-13,108198393,-3751
32-14,108202299,163
32-15,108206205,4538
32-16,108210111,6367
32-17,108214017,4361
32-18,108217923,109
32-19,108221829,-3685
32-20,108225735,-4719
32-21,108229641,-2486
32-22,108233547,1743
32-23,108237453,5377
32-24,108241359,5925
32-25,108245265,3204
32-26,108249171,-1345
32-27,108253077,-5435
32-28,108256983,-6861
32-29,108260889,-4721
32-30,108264795,14
32-31,108268701,4260
32-32,108272607,5185
32-1,108276518,2283
32-2,108280424,-2735
32-3,108284330,-6717
32-4,108288236,-7207
32-5,108292142,-3913
32-6,108296048,1416
32-7,108299954,4968
32-8,108303860,4232
32-9,108307766,377
32-10,108311672,-3537
32-11,108315578,-4470
32-12,108319484,-2105
32-13,108323390,1915
32-14,108327296,5383
32-15,108331202,5775
32-16,108335108,2816
32-17,108339014,-1507
32-18,108342920,-4658
32-19,108346826,-4725
32-20,108350732,-1651
32-21,108354638,2868
32-22,108358544,5853
32-23,108362450,5209
32-24,108366356,1607
32-25,108370262,-2624
32-26,108374168,-5240
32-27,108378074,-5130
32-28,108381980,-2406
32-29,108385886,1465
32-30,108389792,4102
32-31,108393698,3900
32-32,108397604,791
32-1,108401516,-3729
32-2,108405422,-6849
32-3,108409328,-6478
32-4,108413234,-2412
32-5,108417140,2836
32-6,108421046,5115
32-7,108424952,3129
32-8,108428858,-1152
32-9,108432764,-4419
32-10,108436670,-4248
32-11,108440576,-1160
32-12,108444482,3021
32-13,108448388,5937
32-14,108452294,5511
32-15,108456200,2060
32-16,108460106,-2315
32-17,108464012,-5116
32-18,108467918,-4601
32-19,108471824,-972
32-20,108475730,3763
32-21,108479636,6270
32-22,108483542,4667
32-23,108487448,590
32-24,108491354,-3074
32-25,108495260,-4050
32-26,108499166,-2282
32-27,108503072,696
32-28,108506978,3052
32-29,108510884,3385
32-30,108514790,1749
32-31,108518696,-1391
32-32,108522602,-5088
32-1,108526697,-7482
32-2,108530603,-6630
32-3,108534509,-2231
32-4,108538415,2820
32-5,108542321,4498
32-6,108546227,2079
32-7,108550133,-1959
32-8,108554039,-4221
32-9,108557945,-2897
32-10,108561851,740
32-11,108565757,4638
32-12,108569663,6521
32-13,108573569,4935
32-14,108577475,919
32-15,108581381,-3299
32-16,108585287,-5306
32-17,108589193,-3809
32-18,108593099,407
32-19,108597005,4797
32-20,108600911,6193
32-21,108604817,3664
32-22,108608723,-924
32-23,108612629,-4445
32-24,108616535,-4708
32-25,108620441,-1860
32-26,108624347,2113
32-27,108628253,4434
32-28,108632159,3597
32-29,108636065,233
32-30,108639971,-3854
32-31,108643877,-6631
32-32,108647783,-6619
32-1,108651511,-3542
32-2,108655417,1455
32-3,108659323,5128
32-4,108663229,4807
32-5,108667135,1101
32-6,108671041,-3251
32-7,108674947,-5014
32-8,108678853,-3244
32-9,108682759,808
32-10,108686665,4945
32-11,108690571,6274
32-12,108694477,3864
32-13,108698383,-524
32-14,108702289,-4148
32-15,108706195,-4814
32-16,108710101,-2211
32-17,108714007,2193
32-18,108717913,5688
32-19,108721819,5704
32-20,108725725,2339
32-21,108729631,-2061
32-22,108733537,-4911
32-23,108737443,-4340
32-24,108741349,-700
32-25,108745255,3572
32-26,108749161,5659
32-27,108753067,4192
32-28,108756973,137
32-29,108760879,-4283
32-30,108764785,-6820
32-31,108768691,-6170
32-32,108772597,-2327
32-1,108776509,2693
32-2,108780415,5456
32-3,108784321,4070
32-4,108788227,-322
32-5,108792133,-4381
32-6,108796039,-5169
32-7,108799945,-2541
32-8,108803851,1835
32-9,108807757,5409
32-10,108811663,5616
32-11,108815569,2434
32-12,108819475,-1922
32-13,108823381,-4794
32-14,108827287,-4438
32-15,108831193,-1102
32-16,108835099,3420
32-17,108839005,6194
32-18,108842911,5171
32-19,108846817,1226
32-20,108850723,-3038
32-21,108854629,-5057
32-22,108858535,-3661
32-23,108862441,441
32-24,108866347,4585
32-25,108870253,5841
32-26,108874159,3816
32-27,108878065,536
32-28,108881971,-1629
32-29,108885877,-1546
32-30,108889783,387
32-31,108893689,3212
32-32,108897595,5388
32-1,108901506,5310
32-2,108905412,3102
32-3,108909318,-749
32-4,108913224,-5331
32-5,108917130,-8762
32-6,108921036,-9377
32-7,108924942,-6318
32-8,108928848,-1753
32-9,108932754,854
32-10,108936660,424
32-11,108940566,-1735
32-12,108944472,-2881
32-13,108948378,-1423
32-14,108952284,1748
32-15,108956190,4747
32-16,108960096,5589
32-17,108964002,3519
32-18,108967908,-346
32-19,108971814,-4102
32-20,108975720,-5472
32-21,108979626,-3279
32-22,108983532,1291
32-23,108987438,5079
32-24,108991344,5430
32-25,108995250,3013
32-26,108999156,29
32-27,109003062,-1679
32-28,109006968,-1446
32-29,109010874,196
32-30,109014780,2766
32-31,109018686,4761
32-32,109022592,4659
32-1,109026504,2368
32-2,109030410,-1919
32-3,109034316,-6615
32-4,109038222,-9081
32-5,109042128,-7857
32-6,109046034,-3259
32-7,109049940,1444
32-8,109053846,2762
32-9,109057752,536
32-10,109061658,-2818
32-11,109065564,-3969
32-12,109069470,-1771
32-13,109073376,2162
32-14,109077282,5457
32-15,109081188,5886
32-16,109085094,3147
32-17,109089000,-990
32-18,109092906,-4156
32-19,109096812,-4364
32-20,109100718,-1406
32-21,109104624,3057
32-22,109108530,6092
32-23,109112436,5569
32-24,109116342,2059
32-25,109120248,-2184
32-26,109124154,-4937
32-27,109128060,-5040
32-28,109131966,-2502
32-29,109135872,1315
32-30,109139778,4002
32-31,109143684,3863
32-32,109147590,732
32-1,109151502,-3852
32-2,109155408,-6998
32-3,109159314,-6482
32-4,109163220,-2050
32-5,109167126,3096
32-6,109171032,4952
32-7,109174938,3343
32-8,109178844,613
32-9,109182750,-583
32-10,109186656,617
32-11,109190562,2718
32-12,109194468,4676
32-13,109198374,5649
32-14,109202280,4891
32-15,109206186,2450
32-16,109210092,-1851
32-17,109213998,-6412
32-18,109217904,-8398
32-19,109221810,-6454
32-20,109225716,-1281
32-21,109229622,3302
32-22,109233528,3854
32-23,109237434,918
32-24,109241340,-2716
32-25,109245246,-3853
32-26,109249152,-2002
32-27,109253058,907
32-28,109256964,3153
32-29,109260870,3516
32-30,109264776,1830
32-31,109268682,-1369
32-32,109272588,-4937
32-1,109276682,-6893
32-2,109280588,-5465
32-3,109284494,-841
32-4,109288400,3975
32-5,109292306,5200
32-6,109296212,2298
32-7,109300118,-2160
32-8,109304024,-4747
32-9,109307930,-3662
32-10,109311836,-1
32-11,109315742,4220
32-12,109319648,6324
32-13,109323554,4713
32-14,109327460,665
32-15,109331366,-3325
32-16,109335272,-4865
32-17,109339178,-3044
32-18,109343084,1093
32-19,109346990,5132
32-20,109350896,6247
32-21,109354802,3655
32-22,109358708,-809
32-23,109362614,-4200
32-24,109366520,-4418
32-25,109370426,-1516
32-26,109374332,2483
32-27,109378238,4702
32-28,109382144,3833
32-29,109386050,759
32-30,109389956,-3159
32-31,109393862,-6419
32-32,109397768,-7532
32-1,109401497,-5553
32-2,109405403,-714
32-3,109409309,3641
32-4,109413215,4187
32-5,109417121,1212
32-6,109421027,-2603
32-7,109424933,-3873
32-8,109428839,-1715
32-9,109432745,2111
32-10,109436651,5521
32-11,109440557,6323
32-12,109444463,3788
32-13,109448369,-535
32-14,109452275,-4297
32-15,109456181,-5277
32-16,109460087,-2788
32-17,109463993,1814
32-18,109467899,5635
32-19,109471805,5836
32-20,109475711,2573
32-21,109479617,-1641
32-22,109483523,-4121
32-23,109487429,-3209
32-24,109491335,423
32-25,109495241,4362
32-26,109499147,6004
32-27,109503053,4264
32-28,109506959,169
32-29,109510865,-4312
32-30,109514771,-7153
32-31,109518677,-6896
32-32,109522583,-3241
32-1,109526495,1949
32-2,109530401,5102
32-3,109534307,4165
32-4,109538213,203
32-5,109542119,-3533
32-6,109546025,-4103
32-7,109549931,-1442
32-8,109553837,2683
32-9,109557743,5928
32-10,109561649,5989
32-11,109565555,2778
32-12,109569461,-1679
32-13,109573367,-4848
32-14,109577273,-4835
32-15,109581179,-1619
32-16,109585085,3016
32-17,109588991,5999
32-18,109592897,5126
32-19,109596803,1217
32-20,109600709,-3072
32-21,109604615,-5048
32-22,109608521,-3652
32-23,109612427,271
32-24,109616333,4414
32-25,109620239,6139
32-26,109624145,4544
32-27,109628051,401
32-28,109631957,-4315
32-29,109635863,-7146
32-30,109639769,-6419
32-31,109643675,-2161
32-32,109647581,3015
32-1,109651492,5361
32-2,109655398,3413
32-3,109659304,-1259
32-4,109663210,-5231
32-5,109667116,-5680
32-6,109671022,-2606
32-7,109674928,2267
32-8,109678834,5828
32-9,109682740,5455
32-10,109686646,1738
32-11,109690552,-2676
32-12,109694458,-4841
32-13,109698364,-3570
32-14,109702270,219
32-15,109706176,4448
32-16,109710082,6203
32-17,109713988,4191
32-18,109717894,-59
32-19,109721800,-3898
32-20,109725706,-5023
32-21,109729612,-2841
32-22,109733518,1430
32-23,109737424,5205
32-24,109741330,5929
32-25,109745236,3347
32-26,109749142,-1116
32-27,109753048,-5190
32-28,109756954,-6651
32-29,109760860,-4548
32-30,109764766,196
32-31,109768672,4506
32-32,109772578,5480
32-1,109776490,2537
32-2,109780396,-2606
32-3,109784302,-6712
32-4,109788208,-7238
32-5,109792114,-3881
32-6,109796020,1548
32-7,109799926,5184
32-8,109803832,4492
32-9,109807738,636
32-10,109811644,-3341
32-11,109815550,-4360
32-12,109819456,-2026
32-13,109823362,2030
32-14,109827268,5616
32-15,109831174,6155
32-16,109835080,3275
32-17,109838986,-1070
32-18,109842892,-4318
32-19,109846798,-4504
32-20,109850704,-1530
32-21,109854610,2931
32-22,109858516,5949
32-23,109862422,5402
32-24,109866328,1878
32-25,109870234,-2354
32-26,109874140,-5081
32-27,109878046,-5119
32-28,109881952,-2481
32-29,109885858,1442
32-30,109889764,4225
32-31,109893670,4120
32-32,109897576,998
32-1,109901487,-3629
32-2,109905393,-6875
32-3,109909299,-6580
32-4,109913205,-2522
32-5,109917111,2800
32-6,109921017,5234
32-7,109924923,3388
32-8,109928829,-869
32-9,109932735,-4246
32-10,109936641,-4240
32-11,109940547,-1284
32-12,109944453,2855
32-13,109948359,5795
32-14,109952265,5355
32-15,109956171,1929
32-16,109960077,-2243
32-17,109963983,-4686
32-18,109967889,-3835
32-19,109971795,-172
32-20,109975701,4269
32-21,109979607,6487
32-22,109983513,4734
32-23,109987419,504
32-24,109991325,-3448
32-25,109995231,-4818
32-26,109999137,-3209
32-27,110003043,28
32-28,110006949,2863
32-29,110010855,3565
32-30,110014761,1875
32-31,110018667,-1525
32-32,110022573,-5171
32-1,110026485,-7093
32-2,110030391,-5630
32-3,110034297,-864
32-4,110038203,4217
32-5,110042109,5707
32-6,110046015,2955
32-7,110049921,-1485
32-8,110053827,-4183
32-9,110057733,-3260
32-10,110061639,266
32-11,110065545,4393
32-12,110069451,6468
32-13,110073357,4845
32-14,110077263,717
32-15,110081169,-3424
32-16,110085075,-5140
32-17,110088981,-3463
32-18,110092887,631
32-19,110096793,4720
32-20,110100699,5926
32-21,110104605,3434
32-22,110108511,-994
32-23,110112417,-4432
32-24,110116323,-4733
32-25,110120229,-1866
32-26,110124135,2167
32-27,110128041,4443
32-28,110131947,3498
32-29,110135853,90
32-30,110139759,-4088
32-31,110143665,-7173
32-32,110147571,-7714
32-1,110151483,-5073
32-2,110155389,81
32-3,110159295,4402
32-4,110163201,4740
32-5,110167107,1393
32-6,110171013,-2909
32-7,110174919,-4659
32-8,110178825,-2807
32-9,110182731,1142
32-10,110186637,4994
32-11,110190543,6093
32-12,110194449,3657
32-13,110198355,-560
32-14,110202261,-4045
32-15,110206167,-4715
32-16,110210073,-2137
32-17,110213979,2298
32-18,110217885,5880
32-19,110221791,5953
32-20,110225697,2523
32-21,110229603,-2020
32-22,110233509,-4968
32-23,110237415,-4411
32-24,110241321,-712
32-25,110245227,3607
32-26,110249133,5638
32-27,110253039,4208
32-28,110256945,318
32-29,110260851,-4177
32-30,110264757,-7271
32-31,110268663,-7531
32-32,110272569,-4400
32-1,110276480,628
32-2,110280386,3982
32-3,110284292,3366
32-4,110288198,-376
32-5,110292104,-4044
32-6,110296010,-4531
32-7,110299916,-1678
32-8,110303822,2656
32-9,110307728,6063
32-10,110311634,6144
32-11,110315540,2885
32-12,110319446,-1518
32-13,110323352,-4501
32-14,110327258,-4264
32-15,110331164,-977
32-16,110335070,3502
32-17,110338976,6330
32-18,110342882,5462
32-19,110346788,1532
32-20,110350694,-2992
32-21,110354600,-5428
32-22,110358506,-4380
32-23,110362412,-360
32-24,110366318,4193
32-25,110370224,6276
32-26,110374130,4758
32-27,110378036,432
32-28,110381942,-4483
32-29,110385848,-7342
32-30,110389754,-6599
32-31,110393660,-2360
32-32,110397566,2780
32-1,110401478,5081
32-2,110405384,3151
32-3,110409290,-1417
32-4,110413196,-5290
32-5,110417102,-5717
32-6,110421008,-2673
32-7,110424914,2217
32-8,110428820,5813
32-9,110432726,5447
32-10,110436632,1773
32-11,110440538,-2477
32-12,110444444,-4342
32-13,110448350,-2807
32-14,110452256,997
32-15,110456162,4968
32-16,110460068,6457
32-17,110463974,4337
32-18,110467880,38
32-19,110471786,-3985
32-20,110475692,-5435
32-21,110479598,-3408
32-22,110483504,1032
32-23,110487410,5151
32-24,110491316,6060
32-25,110495222,3382
32-26,110499128,-1206
32-27,110503034,-5169
32-28,110506940,-6294
32-29,110510846,-3975
32-30,110514752,730
32-31,110518658,4852
32-32,110522564,5412
32-1,110526476,2123
32-2,110530382,-2753
32-3,110534288,-5978
32-4,110538194,-5436
32-5,110542100,-1600
32-6,110546006,3129
32-7,110549912,5743
32-8,110553818,4749
32-9,110557724,744
32-10,110561630,-4153
32-11,110565536,-7153
32-12,110569442,-6613
32-13,110573348,-2403
32-14,110577254,3005
32-15,110581160,5398
32-16,110585066,3473
32-17,110588972,-694
32-18,110592878,-3696
32-19,110596784,-3222
32-20,110600690,-59
32-21,110604596,3867
32-22,110608502,6302
32-23,110612408,5571
32-24,110616314,2233
32-25,110620220,-1910
32-26,110624126,-4987
32-27,110628032,-5497
32-28,110631938,-3070
32-29,110635844,896
32-30,110639750,3825
32-31,110643656,3803
32-32,110647562,660
32-1,110651473,-3966
32-2,110655379,-7087
32-3,110659285,-6642
32-4,110663191,-2440
32-5,110667097,2967
32-6,110671003,5337
32-7,110674909,3446
32-8,110678815,-656
32-9,110682721,-3670
32-10,110686627,-3309
32-11,110690533,-281
32-12,110694439,3568
32-13,110698345,6092
32-14,110702251,5390
32-15,110706157,1804
32-16,110710063,-2628
32-17,110713969,-5501
32-18,110717875,-5000
32-19,110721781,-1333
32-20,110725687,3424
32-21,110729593,6054
32-22,110733499,4608
32-23,110737405,482
32-24,110741311,-3497
32-25,110745217,-4889
32-26,110749123,-3314
32-27,110753029,-84
32-28,110756935,2828
32-29,110760841,3648
32-30,110764747,2056
32-31,110768653,-1328
32-32,110772559,-5025
32-1,110776471,-7012
32-2,110780377,-5631
32-3,110784283,-986
32-4,110788189,3927
32-5,110792095,5264
32-6,110796001,2472
32-7,110799907,-1891
32-8,110803813,-4440
32-9,110807719,-3394
32-10,110811625,160
32-11,110815531,4278
32-12,110819437,6387
32-13,110823343,4866
32-14,110827249,890
32-15,110831155,-3145
32-16,110835061,-4860
32-17,110838967,-3212
32-18,110842873,894
32-19,110846779,5087
32-20,110850685,6419
32-21,110854591,3965
32-22,110858497,-514
32-23,110862403,-4061
32-24,110866309,-4499
32-25,110870215,-1764
32-26,110874121,2199
32-27,110878027,4566
32-28,110881933,3852
32-29,110885839,651
32-30,110889745,-3420
32-31,110893651,-6471
32-32,110897557,-6955
32-1,110901468,-4272
32-2,110905374,788
32-3,110909280,4852
32-4,110913186,4860
32-5,110917092,1292
32-6,110920998,-3046
32-7,110924904,-4742
32-8,110928810,-2830
32-9,110932716,1215
32-10,110936622,5203
32-11,110940528,6424
32-12,110944434,3983
32-13,110948340,-380
32-14,110952246,-4049
32-15,110956152,-4844
32-16,110960058,-2299
32-17,110963964,2141
32-18,110967870,5750
32-19,110971776,5898
32-20,110975682,2607
32-21,110979588,-1799
32-22,110983494,-4711
32-23,110987400,-4245
32-24,110991306,-715
32-25,110995212,3456
32-26,110999118,5413
32-27,111003024,3928
32-28,111006930,-21
32-29,111010836,-4472
32-30,111014742,-7342
32-31,111018648,-7258
32-32,111022554,-3855
32-1,111026466,1202
32-2,111030372,4375
32-3,111034278,3525
32-4,111038184,-346
32-5,111042090,-4035
32-6,111045996,-4563
32-7,111049902,-1803
32-8,111053808,2459
32-9,111057714,5871
32-10,111061620,5999
32-11,111065526,2750
32-12,111069432,-1706
32-13,111073338,-4747
32-14,111077244,-4559
32-15,111081150,-1280
32-16,111085056,3253
32-17,111088962,6075
32-18,111092868,5099
32-19,111096774,1152
32-20,111100680,-3183
32-21,111104586,-5272
32-22,111108492,-3967
32-23,111112398,-42
32-24,111116304,4145
32-25,111120210,5887
32-26,111124116,4287
32-27,111128022,154
32-28,111131928,-4535
32-29,111135834,-7350
32-30,111139740,-6655
32-31,111143646,-2487
32-32,111147552,2589
32-1,111151525,4970
32-2,111155431,3189
32-3,111159337,-1412
32-4,111163243,-5577
32-5,111167149,-6414
32-6,111171055,-3631
32-7,111174961,1294
32-8,111178867,5108
32-9,111182773,4907
32-10,111186679,1248
32-11,111190585,-3084
32-12,111194491,-4965
32-13,111198397,-3340
32-14,111202303,551
32-15,111206209,4644
32-16,111210115,6239
32-17,111214021,4176
32-18,111217927,-20
32-19,111221833,-3814
32-20,111225739,-4962
32-21,111229645,-2808
32-22,111233551,1425
32-23,111237457,5141
32-24,111241363,5873
32-25,111245269,3429
32-26,111249175,-894
32-27,111253081,-5026
32-28,111256987,-6777
32-29,111260893,-5036
32-30,111264799,-472
32-31,111268705,3934
32-32,111272611,5140
32-1,111276461,2438
32-2,111280367,-2499
32-3,111284273,-6458
32-4,111288179,-6895
32-5,111292085,-3567
32-6,111295991,1768
32-7,111299897,5379
32-8,111303803,4738
32-9,111307709,934
32-10,111311615,-3019
32-11,111315521,-4063
32-12,111319427,-1782
32-13,111323333,2195
32-14,111327239,5671
32-15,111331145,6182
32-16,111335051,3290
32-17,111338957,-1187
32-18,111342863,-4696
32-19,111346769,-5145
32-20,111350675,-2243
32-21,111354581,2453
32-22,111358487,5792
32-23,111362393,5384
32-24,111366299,1950
32-25,111370205,-2047
32-26,111374111,-4341
32-27,111378017,-4037
32-28,111381923,-1477
32-29,111385829,2057
32-30,111389735,4459
32-31,111393641,4281
32-32,111397547,1360
32-1,111401459,-3186
32-2,111405365,-6697
32-3,111409271,-6794
32-4,111413177,-2901
32-5,111417083,2591
32-6,111420989,5306
32-7,111424895,3702
32-8,111428801,-359
32-9,111432707,-3564
32-10,111436613,-3386
32-11,111440519,-415
32-12,111444425,3443
32-13,111448331,6053
32-14,111452237,5489
32-15,111456143,2058
32-16,111460049,-2248
32-17,111463955,-5102
32-18,111467861,-4689
32-19,111471767,-1171
32-20,111475673,3453
32-21,111479579,6034
32-22,111483485,4589
32-23,111487391,455
32-24,111491297,-3563
32-25,111495203,-5018
32-26,111499109,-3488
32-27,111503015,-305
32-28,111506921,2582
32-29,111510827,3373
32-30,111514733,1690
32-31,111518639,-1703
32-32,111522545,-5178
32-1,111526457,-6777
32-2,111530363,-5033
32-3,111534269,-303
32-4,111538175,4457
32-5,111542081,5652
32-6,111545987,2698
32-7,111549893,-1913
32-8,111553799,-4823
32-9,111557705,-4110
32-10,111561611,-530
32-11,111565517,3949
32-12,111569423,6439
32-13,111573329,5086
32-14,111577235,1028
32-15,111581141,-3118
32-16,111585047,-4838
32-17,111588953,-3215
32-18,111592859,800
32-19,111596765,4864
32-20,111600671,6071
32-21,111604577,3548
32-22,111608483,-947
32-23,111612389,-4465
32-24,111616295,-4836
32-25,111620201,-2031
32-26,111624107,1989
32-27,111628013,4358
32-28,111631919,3608
32-29,111635825,436
32-30,111639731,-3592
32-31,111643637,-6686
32-32,111647543,-7318
32-1,111651454,-4840
32-2,111655360,83
32-3,111659266,4178
32-4,111663172,4375
32-5,111667078,1084
32-6,111670984,-2956
32-7,111674890,-4392
32-8,111678796,-2309
32-9,111682702,1713
32-10,111686608,5506
32-11,111690514,6501
32-12,111694420,3907
32-13,111698326,-482
32-14,111702232,-4094
32-15,111706138,-4843
32-16,111710044,-2339
32-17,111713950,2004
32-18,111717856,5548
32-19,111721762,5700
32-20,111725668,2445
32-21,111729574,-1967
32-22,111733480,-4936
32-23,111737386,-4481
32-24,111741292,-857
32-25,111745198,3496
32-26,111749104,5645
32-27,111753010,4218
32-28,111756916,183
32-29,111760822,-4352
32-30,111764728,-7179
32-31,111768634,-6926
32-32,111772540,-3366
32-1,111776574,1738
32-2,111780480,4852
32-3,111784386,3889
32-4,111788292,-55
32-5,111792198,-3764
32-6,111796104,-4336
32-7,111800010,-1690
32-8,111803916,2441
32-9,111807822,5777
32-10,111811728,5896
32-11,111815634,2710
32-12,111819540,-1642
32-13,111823446,-4625
32-14,111827352,-4438
32-15,111831258,-1198
32-16,111835164,3289
32-17,111839070,6099
32-18,111842976,5142
32-19,111846882,1211
32-20,111850788,-3132
32-21,111854694,-5251
32-22,111858600,-3958
32-23,111862506,-6
32-24,111866412,4221
32-25,111870318,5989
32-26,111874224,4341
32-27,111878130,100
32-28,111882036,-4666
32-29,111885942,-7473
32-30,111889848,-6711
32-31,111893754,-2487
32-32,111897660,2534
32-1,111901450,4859
32-2,111905356,3157
32-3,111909262,-1482
32-4,111913168,-6008
32-5,111917074,-7425
32-6,111920980,-5044
32-7,111924886,82
32-8,111928792,4612
32-9,111932698,5150
32-10,111936604,1896
32-11,111940510,-2453
32-12,111944416,-4533
32-13,111948322,-3028
32-14,111952228,778
32-15,111956134,4865
32-16,111960040,6559
32-17,111963946,4580
32-18,111967852,356
32-19,111971758,-3586
32-20,111975664,-4863
32-21,111979570,-2730
32-22,111983476,1552
32-23,111987382,5295
32-24,111991288,5921
32-25,111995194,3245
32-26,111999100,-1228
32-27,112003006,-5247
32-28,112006912,-6671
32-29,112010818,-4596
32-30,112014724,109
32-31,112018630,4441
32-32,112022536,5496
32-1,112026447,2637
32-2,112030353,-2441
32-3,112034259,-6544
32-4,112038165,-7105
32-5,112042071,-3794
32-6,112045977,1600
32-7,112049883,5229
32-8,112053789,4503
32-9,112057695,553
32-10,112061601,-3519
32-11,112065507,-4573
32-12,112069413,-2189
32-13,112073319,1967
32-14,112077225,5639
32-15,112081131,6257
32-16,112085037,3451
32-17,112088943,-841
32-18,112092849,-4081
32-19,112096755,-4346
32-20,112100661,-1504
32-21,112104567,2897
32-22,112108473,5998
32-23,112112379,5635
32-24,112116285,2287
32-25,112120191,-1858
32-26,112124097,-4620
32-27,112128003,-4816
32-28,112131909,-2397
32-29,112135815,1309
32-30,112139721,3953
32-31,112143627,3838
32-32,112147533,781
32-1,112151445,-3766
32-2,112155351,-6950
32-3,112159257,-6581
32-4,112163163,-2392
32-5,112167069,3079
32-6,112170975,5578
32-7,112174881,3674
32-8,112178787,-723
32-9,112182693,-4236
32-10,112186599,-4291
32-11,112190505,-1355
32-12,112194411,2746
32-13,112198317,5596
32-14,112202223,5040
32-15,112206129,1553
32-16,112210035,-2593
32-17,112213941,-4974
32-18,112217847,-4100
32-19,112221753,-447
32-20,112225659,4024
32-21,112229565,6409
32-22,112233471,4897
32-23,112237377,817
32-24,112241283,-3151
32-25,112245189,-4654
32-26,112249095,-3165
32-27,112253001,58
32-28,112256907,2984
32-29,112260813,3811
32-30,112264719,2212
32-31,112268625,-1174
32-32,112272531,-4850
32-1,112276442,-6831
32-2,112280348,-5477
32-3,112284254,-861
32-4,112288160,4052
32-5,112292066,5427
32-6,112295972,2655
32-7,112299878,-1734
32-8,112303784,-4358
32-9,112307690,-3400
32-10,112311596,107
32-11,112315502,4195
32-12,112319408,6343
32-13,112323314,4912
32-14,112327220,887
32-15,112331126,-3379
32-16,112335032,-5383
32-17,112338938,-3906
32-18,112342844,327
32-19,112346750,4829
32-20,112350656,6306
32-21,112354562,3825
32-22,112358468,-631
32-23,112362374,-3915
32-24,112366280,-3960
32-25,112370186,-1133
32-26,112374092,2517
32-27,112377998,4387
32-28,112381904,3324
32-29,112385810,188
32-30,112389716,-3684
32-31,112393622,-6848
32-32,112397528,-7777
32-1,112401684,-5573
32-2,112405590,-661
32-3,112409496,3612
32-4,112413402,4026
32-5,112417308,971
32-6,112421214,-2857
32-7,112425120,-4145
32-8,112429026,-2052
32-9,112432932,1749
32-10,112436838,5265
32-11,112440744,6277
32-12,112444650,3943
32-13,112448556,-290
32-14,112452462,-4104
32-15,112456368,-5250
32-16,112460274,-2890
32-17,112464180,1712
32-18,112468086,5692
32-19,112471992,6144
32-20,112475898,2919
32-21,112479804,-1624
32-22,112483710,-4681
32-23,112487616,-4273
32-24,112491522,-756
32-25,112495428,3488
32-26,112499334,5585
32-27,112503240,4102
32-28,112507146,-1
32-29,112511052,-4484
32-30,112514958,-7095
32-31,112518864,-6523
32-32,112522770,-2736
32-1,112526438,2318
32-2,112530344,5264
32-3,112534250,4154
32-4,112538156,-3
32-5,112542062,-4020
32-6,112545968,-4948
32-7,112549874,-2489
32-8,112553780,1814
32-9,112557686,5476
32-10,112561592,5827
32-11,112565498,2707
32-12,112569404,-1687
32-13,112573310,-4655
32-14,112577216,-4421
32-15,112581122,-1193
32-16,112585028,3288
32-17,112588934,6156
32-18,112592840,5297
32-19,112596746,1492
32-20,112600652,-2738
32-21,112604558,-4835
32-22,112608464,-3624
32-23,112612370,188
32-24,112616276,4280
32-25,112620182,5973
32-26,112624088,4376
32-27,112627994,242
32-28,112631900,-4569
32-29,112635806,-7607
32-30,112639712,-7108
32-31,112643618,-2926
32-32,112647524,2429
32-1,112651435,5091
32-2,112655341,3409
32-3,112659247,-1150
32-4,112663153,-5192
32-5,112667059,-5753
32-6,112670965,-2745
32-7,112674871,2082
32-8,112678777,5679
32-9,112682683,5396
32-10,112686589,1725
32-11,112690495,-2728
32-12,112694401,-4976
32-13,112698307,-3756
32-14,112702213,30
32-15,112706119,4298
32-16,112710025,6109
32-17,112713931,4136
32-18,112717837,-97
32-19,112721743,-3914
32-20,112725649,-5010
32-21,112729555,-2835
32-22,112733461,1378
32-23,112737367,5119
32-24,112741273,5891
32-25,112745179,3407
32-26,112749085,-956
32-27,112752991,-5008
32-28,112756897,-6547
32-29,112760803,-4552
32-30,112764709,179
32-31,112768615,4619
32-32,112772521,5790
32-1,112776433,2998
32-2,112780339,-2119
32-3,112784245,-6340
32-4,112788151,-7039
32-5,112792057,-3843
32-6,112795963,1501
32-7,112799869,5166
32-8,112803775,4545
32-9,112807681,734
32-10,112811587,-3267
32-11,112815493,-4366
32-12,112819399,-2094
32-13,112823305,1961
32-14,112827211,5613
32-15,112831117,6267
32-16,112835023,3452
32-17,112838929,-934
32-18,112842835,-4261
32-19,112846741,-4549
32-20,112850647,-1398
32-21,112854553,3208
32-22,112858459,5689
32-23,112862365,4807
32-24,112866271,2339
32-25,112870177,604
32-26,112874083,380
32-27,112877989,796
32-28,112881895,1396
32-29,112885801,2540
32-30,112889707,3545
32-31,112893613,3492
32-32,112897519,1684
32-1,112901431,-2491
32-2,112905337,-7026
32-3,112909243,-9316
32-4,112913149,-7741
32-5,112917055,-3095
32-6,112920961,817
32-7,112924867,1669
32-8,112928773,-136
32-9,112932679,-2194
32-10,112936585,-1985
32-11,112940491,580
32-12,112944397,3859
32-13,112948303,5864
32-14,112952209,5079
32-15,112956115,1795
32-16,112960021,-2367
32-17,112963927,-5273
32-18,112967833,-4900
32-19,112971739,-1385
32-20,112975645,3251
32-21,112979551,5906
32-22,112983457,4568
32-23,112987363,518
32-24,112991269,-3492
32-25,112995175,-4966
32-26,112999081,-3436
32-27,113002987,-180
32-28,113006893,2774
32-29,113010799,3599
32-30,113014705,2022
32-31,113018611,-1363
32-32,113022517,-5137
32-1,113026764,-7314
32-2,113030670,-6173
32-3,113034576,-1636
32-4,113038482,3424
32-5,113042388,5079
32-6,113046294,2482
32-7,113050200,-1891
32-8,113054106,-4623
32-9,113058012,-3592
32-10,113061918,228
32-11,113065824,3974
32-12,113069730,5205
32-13,113073636,3955
32-14,113077542,2413
32-15,113081448,2073
32-16,113085354,2705
32-17,113089260,3313
32-18,113093166,3882
32-19,113097072,4568
32-20,113100978,4595
32-21,113104884,3401
32-22,113108790,85
32-23,113112696,-4669
32-24,113116602,-8225
32-25,113120508,-8673
32-26,113124414,-5706
32-27,113128320,-1378
32-28,113132226,1084
32-29,113136132,84
32-30,113140038,-3419
32-31,113143944,-6592
32-32,113147850,-6736
32-1,113151639,-3592
32-2,113155545,1295
32-3,113159451,4823
32-4,113163357,4475
32-5,113167263,897
32-6,113171169,-3212
32-7,113175075,-4747
32-8,113178981,-2872
32-9,113182887,1118
32-10,113186793,5114
32-11,113190699,6361
32-12,113194605,3935
32-13,113198511,-404
32-14,113202417,-4028
32-15,113206323,-4820
32-16,113210229,-2363
32-17,113214135,1912
32-18,113218041,5424
32-19,113221947,5716
32-20,113225853,2629
32-21,113229759,-1789
32-22,113233665,-5014
32-23,113237571,-4951
32-24,113241477,-1512
32-25,113245383,3006
32-26,113249289,5515
32-27,113253195,4341
32-28,113257101,284
32-29,113261007,-4331
32-30,113264913,-7035
32-31,113268819,-6531
32-32,113272725,-2784
32-1,113276423,2313
32-2,113280329,5247
32-3,113284235,4117
32-4,113288141,56
32-5,113292047,-3705
32-6,113295953,-4312
32-7,113299859,-1725
32-8,113303765,2356
32-9,113307671,5622
32-10,113311577,5747
32-11,113315483,2613
32-12,113319389,-1809
32-13,113323295,-5031
32-14,113327201,-5112
32-15,113331107,-1968
32-16,113335013,2724
32-17,113338919,5845
32-18,113342825,5099
32-19,113346731,1400
32-20,113350637,-2576
32-21,113354543,-4231
32-22,113358449,-2719
32-23,113362355,977
32-24,113366261,4704
32-25,113370167,6089
32-26,113374073,4341
32-27,113377979,206
32-28,113381885,-4492
32-29,113385791,-7334
32-30,113389697,-6565
32-31,113393603,-2229
32-32,113397509,3042
32-1,113401421,5330
32-2,113405327,3258
32-3,113409233,-1331
32-4,113413139,-4991
32-5,113417045,-5052
32-6,113420951,-1852
32-7,113424857,2624
32-8,113428763,5650
32-9,113432669,5169
32-10,113436575,1521
32-11,113440481,-3174
32-12,113444387,-6225
32-13,113448293,-5920
32-14,113452199,-2280
32-15,113456105,2748
32-16,113460011,5650
32-17,113463917,4427
32-18,113467823,303
32-19,113471729,-3739
32-20,113475635,-4901
32-21,113479541,-2701
32-22,113483447,1527
32-23,113487353,5297
32-24,113491259,6060
32-25,113495165,3547
32-26,113499071,-866
32-27,113502977,-4961
32-28,113506883,-6454
32-29,113510789,-4229
32-30,113514695,336
32-31,113518601,3813
32-32,113522507,4259
32-1,113526419,2776
32-2,113530325,1551
32-3,113534231,1764
32-4,113538137,2907
32-5,113542043,4043
32-6,113545949,5062
32-7,113549855,5267
32-8,113553761,4074
32-9,113557667,1271
32-10,113561573,-3061
32-11,113565479,-7213
32-12,113569385,-9356
32-13,113573291,-8115
32-14,113577197,-4024
32-15,113581103,-363
32-16,113585009,642
32-17,113588915,-783
32-18,113592821,-2498
32-19,113596727,-2159
32-20,113600633,370
32-21,113604539,3588
32-22,113608445,5426
32-23,113612351,4589
32-24,113616257,1575
32-25,113620163,-2262
32-26,113624069,-5266
32-27,113627975,-5770
32-28,113631881,-3340
32-29,113635787,694
32-30,113639693,3772
32-31,113643599,3990
32-32,113647505,1115
32-1,113651416,-3459
32-2,113655322,-6868
32-3,113659228,-6958
32-4,113663134,-3297
32-5,113667040,1957
32-6,113670946,4682
32-7,113674852,3226
32-8,113678758,-762
32-9,113682664,-4077
32-10,113686570,-4086
32-11,113690476,-1065
32-12,113694382,3172
32-13,113698288,6230
32-14,113702194,5894
32-15,113706100,2448
32-16,113710006,-1876
32-17,113713912,-4526
32-18,113717818,-3858
32-19,113721724,-278
32-20,113725630,4216
32-21,113729536,6620
32-22,113733442,5104
32-23,113737348,1045
32-24,113741254,-2883
32-25,113745160,-4388
32-26,113749066,-3024
32-27,113752972,-15
32-28,113756878,2754
32-29,113760784,3567
32-30,113764690,2172
32-31,113768596,-962
32-32,113772502,-4712
32-1,113776445,-7168
32-2,113780351,-6426
32-3,113784257,-2130
32-4,113788163,2988
32-5,113792069,4855
32-6,113795975,2479
