32-1,36264424,-27606
32-2,36268330,-32578
32-3,36272236,-29149
32-4,36276142,-6607
32-5,36280048,19129
32-6,36283954,27831
32-7,36287860,26012
32-8,36291766,-4068
32-9,36295672,-32587
32-10,36299578,-15830
32-11,36303484,18323
32-12,36307390,25854
32-13,36311296,22697
32-14,36315202,28563
32-15,36319108,20637
32-16,36323014,-16458
32-17,36326920,-32768
32-18,36330826,-20858
32-19,36334732,10771
32-20,36338638,24224
32-21,36342544,23103
32-22,36346450,28498
32-23,36350356,11807
32-24,36354262,-29170
32-25,36358168,-32768
32-26,36362074,-7518
32-27,36365980,10824
32-28,36369886,18327
32-29,36373792,21651
32-30,36377698,20726
32-31,36381604,-2795
32-32,36385510,-31892
32-1,36389574,-32727
32-2,36393480,-24538
32-3,36397386,1677
32-4,36401292,22116
32-5,36405198,27583
32-6,36409104,20538
32-7,36413010,-14593
32-8,36416916,-32730
32-9,36420822,-13226
32-10,36424728,18261
32-11,36428634,25585
32-12,36432540,23671
32-13,36436446,28156
32-14,36440352,11456
32-15,36444258,-27522
32-16,36448164,-32768
32-17,36452070,-6480
32-18,36455976,20368
32-19,36459882,24069
32-20,36463788,24928
32-21,36467694,27274
32-22,36471600,-216
32-23,36475506,-32768
32-24,36479412,-28956
32-25,36483318,6995
32-26,36487224,22092
32-27,36491130,15258
32-28,36495036,24393
32-29,36498942,19386
32-30,36502848,-19058
32-31,36506754,-32768
32-32,36510660,-32359
32-1,36514419,-20133
32-2,36518325,7441
32-3,36522231,23641
32-4,36526137,28327
32-5,36530043,14386
32-6,36533949,-24541
32-7,36537855,-32321
32-8,36541761,-3585
32-9,36545667,23386
32-10,36549573,25119
32-11,36553479,24160
32-12,36557385,26967
32-13,36561291,1819
32-14,36565197,-32768
32-15,36569103,-30729
32-16,36573009,1956
32-17,36576915,23829
32-18,36580821,24326
32-19,36584727,26495
32-20,36588633,22657
32-21,36592539,-12364
32-22,36596445,-32768
32-23,36600351,-20528
32-24,36604257,11632
32-25,36608163,25363
32-26,36612069,21191
32-27,36615975,21627
32-28,36619881,9634
32-29,36623787,-23187
32-30,36627693,-32768
32-31,36631599,-32134
32-32,36635505,-19493
32-1,36639417,5342
32-2,36643323,24457
32-3,36647229,28324
32-4,36651135,2989
32-5,36655041,-32480
32-6,36658947,-27982
32-7,36662853,7773
32-8,36666759,26446
32-9,36670665,23159
32-10,36674571,25656
32-11,36678477,24450
32-12,36682383,-9169
32-13,36686289,-32768
32-14,36690195,-23091
32-15,36694101,11054
32-16,36698007,25883
32-17,36701913,23113
32-18,36705819,26678
32-19,36709725,15565
32-20,36713631,-22658
32-21,36717537,-32768
32-22,36721443,-12258
32-23,36725349,17626
32-24,36729255,24206
32-25,36733161,25363
32-26,36737067,25634
32-27,36740973,-4155
32-28,36744879,-32768
32-29,36748785,-32359
32-30,36752691,-30605
32-31,36756597,-10892
32-32,36760503,17185
32-1,36764415,29356
32-2,36768321,23445
32-3,36772227,-8397
32-4,36776133,-32208
32-5,36780039,-28180
32-6,36783945,2191
32-7,36787851,22554
32-8,36791757,23930
32-9,36795663,27905
32-10,36799569,18617
32-11,36803475,-20300
32-12,36807381,-32392
32-13,36811287,-12453
32-14,36815193,18578
32-15,36819099,25111
32-16,36823005,23010
32-17,36826911,27611
32-18,36830817,7374
32-19,36834723,-30259
32-20,36838629,-32727
32-21,36842535,-8461
32-22,36846441,18863
32-23,36850347,24298
32-24,36854253,24755
32-25,36858159,24058
32-26,36862065,-7061
32-27,36865971,-32768
32-28,36869877,-30192
32-29,36873783,-13925
32-30,36877689,2567
32-31,36881595,20142
32-32,36885501,30374
32-1,36889412,15630
32-2,36893318,-19450
32-3,36897224,-32426
32-4,36901130,-32021
32-5,36905036,-12610
32-6,36908942,14943
32-7,36912848,27055
32-8,36916754,29250
32-9,36920660,9269
32-10,36924566,-29842
32-11,36928472,-30218
32-12,36932378,5355
32-13,36936284,25734
32-14,36940190,23269
32-15,36944096,25399
32-16,36948002,27142
32-17,36951908,-3842
32-18,36955814,-32768
32-19,36959720,-25289
32-20,36963626,9831
32-21,36967532,25681
32-22,36971438,22374
32-23,36975344,26775
32-24,36979250,19137
32-25,36983156,-15969
32-26,36987062,-32768
32-27,36990968,-30661
32-28,36994874,-2993
32-29,36998780,16286
32-30,37002686,19047
32-31,37006592,26810
32-32,37010498,9464
32-1,37014410,-27535
32-2,37018316,-32491
32-3,37022222,-31412
32-4,37026128,-15312
32-5,37030034,13125
32-6,37033940,28081
32-7,37037846,26458
32-8,37041752,-3689
32-9,37045658,-32303
32-10,37049564,-16953
32-11,37053470,17426
32-12,37057376,26174
32-13,37061282,23234
32-14,37065188,28973
32-15,37069094,21253
32-16,37073000,-15874
32-17,37076906,-32768
32-18,37080812,-20579
32-19,37084718,11210
32-20,37088624,24353
32-21,37092530,22800
32-22,37096436,28543
32-23,37100342,12228
32-24,37104248,-29454
32-25,37108154,-31371
32-26,37112060,-391
32-27,37115966,16252
32-28,37119872,18818
32-29,37123778,21018
32-30,37127684,20942
32-31,37131590,-2768
32-32,37135496,-32025
32-1,37139591,-32768
32-2,37143497,-27307
32-3,37147403,-3586
32-4,37151309,19790
32-5,37155215,28024
32-6,37159121,20982
32-7,37163027,-14833
32-8,37166933,-32649
32-9,37170839,-6877
32-10,37174745,22376
32-11,37178651,25283
32-12,37182557,23664
32-13,37186463,28455
32-14,37190369,11586
32-15,37194275,-26361
32-16,37198181,-32768
32-17,37202087,-12583
32-18,37205993,16327
32-19,37209899,24219
32-20,37213805,25077
32-21,37217711,27168
32-22,37221617,267
32-23,37225523,-32768
32-24,37229429,-29297
32-25,37233335,6397
32-26,37237241,21914
32-27,37241147,15761
32-28,37245053,24324
32-29,37248959,18398
32-30,37252865,-19925
32-31,37256771,-32768
32-32,37260677,-32359
32-1,37264405,-23782
32-2,37268311,2617
32-3,37272217,22050
32-4,37276123,28680
32-5,37280029,14207
32-6,37283935,-25000
32-7,37287841,-31523
32-8,37291747,3340
32-9,37295653,26169
32-10,37299559,24544
32-11,37303465,24596
32-12,37307371,27118
32-13,37311277,2106
32-14,37315183,-32768
32-15,37319089,-32359
32-16,37322995,-4164
32-17,37326901,21323
32-18,37330807,24977
32-19,37334713,26380
32-20,37338619,23094
32-21,37342525,-11449
32-22,37346431,-32768
32-23,37350337,-20367
32-24,37354243,11780
32-25,37358149,25397
32-26,37362055,21616
32-27,37365961,22086
32-28,37369867,11006
32-29,37373773,-22175
32-30,37377679,-32768
32-31,37381585,-25027
32-32,37385491,3091
32-1,37389403,21153
32-2,37393309,25288
32-3,37397215,26891
32-4,37401121,2983
32-5,37405027,-32261
32-6,37408933,-32638
32-7,37412839,-13213
32-8,37416745,15088
32-9,37420651,24073
32-10,37424557,25222
32-11,37428463,23586
32-12,37432369,-8792
32-13,37436275,-32768
32-14,37440181,-23769
32-15,37444087,10058
32-16,37447993,25723
32-17,37451899,23367
32-18,37455805,26930
32-19,37459711,16249
32-20,37463617,-22275
32-21,37467523,-32768
32-22,37471429,-11768
32-23,37475335,18067
32-24,37479241,24265
32-25,37483147,25302
32-26,37487053,25658
32-27,37490959,-3595
32-28,37494865,-32768
32-29,37498771,-32618
32-30,37502677,-29123
32-31,37506583,-5686
32-32,37510489,19991
32-1,37514400,28977
32-2,37518306,23761
32-3,37522212,-7659
32-4,37526118,-32591
32-5,37530024,-31208
32-6,37533930,-3780
32-7,37537836,19775
32-8,37541742,24375
32-9,37545648,27854
32-10,37549554,18421
32-11,37553460,-20249
32-12,37557366,-32625
32-13,37561272,-13261
32-14,37565178,18035
32-15,37569084,25215
32-16,37572990,23065
32-17,37576896,27795
32-18,37580802,7474
32-19,37584708,-31376
32-20,37588614,-32768
32-21,37592520,-1659
32-22,37596426,23504
32-23,37600332,24211
32-24,37604238,24797
32-25,37608144,24493
32-26,37612050,-7337
32-27,37615956,-32768
32-28,37619862,-30499
32-29,37623768,-15804
32-30,37627674,345
32-31,37631580,19354
32-32,37635486,30660
32-1,37639398,15582
32-2,37643304,-19784
32-3,37647210,-32359
32-4,37651116,-31955
32-5,37655022,-13754
32-6,37658928,13892
32-7,37662834,26990
32-8,37666740,29176
32-9,37670646,8923
32-10,37674552,-29851
32-11,37678458,-30782
32-12,37682364,4210
32-13,37686270,25498
32-14,37690176,23678
32-15,37694082,25653
32-16,37697988,27209
32-17,37701894,-3702
32-18,37705800,-32768
32-19,37709706,-26438
32-20,37713612,8071
32-21,37717518,25321
32-22,37721424,22611
32-23,37725330,26776
32-24,37729236,18957
32-25,37733142,-16168
32-26,37737048,-32768
32-27,37740954,-31873
32-28,37744860,-7787
32-29,37748766,11067
32-30,37752672,16734
32-31,37756578,26364
32-32,37760484,9538
32-1,37764396,-27098
32-2,37768302,-32323
32-3,37772208,-28791
32-4,37776114,-5280
32-5,37780020,20392
32-6,37783926,27955
32-7,37787832,25856
32-8,37791738,-2539
32-9,37795644,-32392
32-10,37799550,-22353
32-11,37803456,12505
32-12,37807362,25544
32-13,37811268,22877
32-14,37815174,28106
32-15,37819080,21770
32-16,37822986,-16043
32-17,37826892,-32768
32-18,37830798,-15484
32-19,37834704,16408
32-20,37838610,24735
32-21,37842516,22280
32-22,37846422,28526
32-23,37850328,12105
32-24,37854234,-28769
32-25,37858140,-32768
32-26,37862046,-7305
32-27,37865952,11790
32-28,37869858,18627
32-29,37873764,20545
32-30,37877670,19882
32-31,37881576,-2180
32-32,37885482,-31364
32-1,37889576,-32737
32-2,37893482,-24777
32-3,37897388,1645
32-4,37901294,22215
32-5,37905200,27330
32-6,37909106,20657
32-7,37913012,-13725
32-8,37916918,-32746
32-9,37920824,-14308
32-10,37924730,17353
32-11,37928636,25443
32-12,37932542,23606
32-13,37936448,28259
32-14,37940354,12399
32-15,37944260,-26787
32-16,37948166,-32768
32-17,37952072,-6476
32-18,37955978,20167
32-19,37959884,23659
32-20,37963790,24628
32-21,37967696,26749
32-22,37971602,399
32-23,37975508,-32768
32-24,37979414,-32359
32-25,37983320,-671
32-26,37987226,19613
32-27,37991132,16865
32-28,37995038,24465
32-29,37998944,18760
32-30,38002850,-18814
32-31,38006756,-32710
32-32,38010662,-32301
32-1,38014391,-16235
32-2,38018297,11324
32-3,38022203,23944
32-4,38026109,27536
32-5,38030015,14485
32-6,38033921,-24397
32-7,38037827,-32357
32-8,38041733,-3470
32-9,38045639,23293
32-10,38049545,24877
32-11,38053451,24209
32-12,38057357,26858
32-13,38061263,2314
32-14,38065169,-32768
32-15,38069075,-32376
32-16,38072981,-4486
32-17,38076887,21184
32-18,38080793,24913
32-19,38084699,26190
32-20,38088605,23361
32-21,38092511,-11947
32-22,38096417,-32768
32-23,38100323,-14234
32-24,38104229,17407
32-25,38108135,25538
32-26,38112041,20756
32-27,38115947,22846
32-28,38119853,11133
32-29,38123759,-22681
32-30,38127665,-32768
32-31,38131571,-32359
32-32,38135477,-23187
32-1,38139389,1372
32-2,38143295,23432
32-3,38147201,29193
32-4,38151107,3910
32-5,38155013,-32390
32-6,38158919,-24275
32-7,38162825,12404
32-8,38166731,27038
32-9,38170637,22549
32-10,38174543,26085
32-11,38178449,24386
32-12,38182355,-8472
32-13,38186261,-32768
32-14,38190167,-27832
32-15,38194073,4244
32-16,38197979,24334
32-17,38201885,23888
32-18,38205791,26381
32-19,38209697,16157
32-20,38213603,-22002
32-21,38217509,-32768
32-22,38221415,-12065
32-23,38225321,17559
32-24,38229227,23966
32-25,38233133,25314
32-26,38237039,25303
32-27,38240945,-4145
32-28,38244851,-32768
32-29,38248757,-32565
32-30,38252663,-28817
32-31,38256569,-4428
32-32,38260475,20856
32-1,38264386,28787
32-2,38268292,23565
32-3,38272198,-7452
32-4,38276104,-32566
32-5,38280010,-31993
32-6,38283916,-5543
32-7,38287822,18850
32-8,38291728,24258
32-9,38295634,27669
32-10,38299540,18752
32-11,38303446,-19674
32-12,38307352,-32566
32-13,38311258,-13765
32-14,38315164,17691
32-15,38319070,25364
32-16,38322976,23076
32-17,38326882,27689
32-18,38330788,7782
32-19,38334694,-31007
32-20,38338600,-32768
32-21,38342506,-2578
32-22,38346412,22750
32-23,38350318,24029
32-24,38354224,24501
32-25,38358130,24441
32-26,38362036,-7035
32-27,38365942,-32768
32-28,38369848,-30566
32-29,38373754,-16266
32-30,38377660,-627
32-31,38381566,18790
32-32,38385472,30706
32-1,38389384,15863
32-2,38393290,-19634
32-3,38397196,-32340
32-4,38401102,-31936
32-5,38405008,-13903
32-6,38408914,13440
32-7,38412820,26741
32-8,38416726,29327
32-9,38420632,9210
32-10,38424538,-29768
32-11,38428444,-30636
32-12,38432350,4424
32-13,38436256,25417
32-14,38440162,23515
32-15,38444068,25661
32-16,38447974,27463
32-17,38451880,-3401
32-18,38455786,-32768
32-19,38459692,-26382
32-20,38463598,8467
32-21,38467504,25649
32-22,38471410,22677
32-23,38475316,26791
32-24,38479222,19514
32-25,38483128,-15851
32-26,38487034,-32768
32-27,38490940,-29334
32-28,38494846,-686
32-29,38498752,16966
32-30,38502658,18782
32-31,38506564,26830
32-32,38510470,9457
32-1,38514382,-27386
32-2,38518288,-32545
32-3,38522194,-29668
32-4,38526100,-7995
32-5,38530006,18412
32-6,38533912,27969
32-7,38537818,25597
32-8,38541724,-3262
32-9,38545630,-32528
32-10,38549536,-23104
32-11,38553442,11313
32-12,38557348,25246
32-13,38561254,23046
32-14,38565160,27974
32-15,38569066,21264
32-16,38572972,-16492
32-17,38576878,-32768
32-18,38580784,-16333
32-19,38584690,15867
32-20,38588596,24828
32-21,38592502,22304
32-22,38596408,28557
32-23,38600314,12109
32-24,38604220,-28706
32-25,38608126,-32768
32-26,38612032,-9171
32-27,38615938,9729
32-28,38619844,18101
32-29,38623750,21024
32-30,38627656,19993
32-31,38631562,-2722
32-32,38635468,-31484
32-1,38639379,-32680
32-2,38643285,-27154
32-3,38647191,-4394
32-4,38651097,18958
32-5,38655003,27783
32-6,38658909,20470
32-7,38662815,-14370
32-8,38666721,-32541
32-9,38670627,-13401
32-10,38674533,18404
32-11,38678439,25726
32-12,38682345,23705
32-13,38686251,28308
32-14,38690157,12136
32-15,38694063,-25931
32-16,38697969,-32768
32-17,38701875,-13263
32-18,38705781,14776
32-19,38709687,23476
32-20,38713593,24793
32-21,38717499,27014
32-22,38721405,597
32-23,38725311,-32768
32-24,38729217,-28388
32-25,38733123,8424
32-26,38737029,23003
32-27,38740935,16146
32-28,38744841,24839
32-29,38748747,19338
32-30,38752653,-19085
32-31,38756559,-32768
32-32,38760465,-32359
32-1,38764377,-24680
32-2,38768283,-757
32-3,38772189,20183
32-4,38776095,28783
32-5,38780001,14615
32-6,38783907,-24250
32-7,38787813,-32130
32-8,38791719,-2621
32-9,38795625,24340
32-10,38799531,25525
32-11,38803437,24444
32-12,38807343,27649
32-13,38811249,3280
32-14,38815155,-32768
32-15,38819061,-30845
32-16,38822967,2498
32-17,38826873,24354
32-18,38830779,24388
32-19,38834685,26555
32-20,38838591,23761
32-21,38842497,-10854
32-22,38846403,-32768
32-23,38850309,-20317
32-24,38854215,12273
32-25,38858121,25741
32-26,38862027,21274
32-27,38865933,22205
32-28,38869839,11536
32-29,38873745,-21711
32-30,38877651,-32768
32-31,38881557,-32283
32-32,38885463,-17437
32-1,38889374,8421
32-2,38893280,25083
32-3,38897186,28106
32-4,38901092,4709
32-5,38904998,-32349
32-6,38908904,-29182
32-7,38912810,6134
32-8,38916716,25792
32-9,38920622,23341
32-10,38924528,25601
32-11,38928434,24330
32-12,38932340,-7997
32-13,38936246,-32768
32-14,38940152,-27657
32-15,38944058,4700
32-16,38947964,24647
32-17,38951870,23819
32-18,38955776,26393
32-19,38959682,16414
32-20,38963588,-22570
32-21,38967494,-32768
32-22,38971400,-5109
32-23,38975306,21479
32-24,38979212,22921
32-25,38983118,24488
32-26,38987024,25511
32-27,38990930,-4247
32-28,38994836,-32768
32-29,38998742,-32359
32-30,39002648,-31540
32-31,39006554,-19035
32-32,39010460,8486
32-1,39014372,27361
32-2,39018278,23158
32-3,39022184,-8591
32-4,39026090,-31955
32-5,39029996,-30781
32-6,39033902,-3491
32-7,39037808,20278
32-8,39041714,23772
32-9,39045620,27163
32-10,39049526,19370
32-11,39053432,-19793
32-12,39057338,-32015
32-13,39061244,-5771
32-14,39065150,22827
32-15,39069056,24502
32-16,39072962,22482
32-17,39076868,27384
32-18,39080774,7597
32-19,39084680,-29572
32-20,39088586,-32485
32-21,39092492,-8239
32-22,39096398,19525
32-23,39100304,23982
32-24,39104210,23925
32-25,39108116,23953
32-26,39112022,-6350
32-27,39115928,-32768
32-28,39119834,-30908
32-29,39123740,-16742
32-30,39127646,-1000
32-31,39131552,18313
32-32,39135458,30073
32-1,39139370,15519
32-2,39143276,-19559
32-3,39147182,-32308
32-4,39151088,-31904
32-5,39154994,-13350
32-6,39158900,13849
32-7,39162806,26010
32-8,39166712,28950
32-9,39170618,9003
32-10,39174524,-30022
32-11,39178430,-26090
32-12,39182336,11343
32-13,39186242,27165
32-14,39190148,22698
32-15,39194054,25916
32-16,39197960,27234
32-17,39201866,-2992
32-18,39205772,-32768
32-19,39209678,-29994
32-20,39213584,2728
32-21,39217490,24209
32-22,39221396,23722
32-23,39225302,26979
32-24,39229208,20200
32-25,39233114,-15116
32-26,39237020,-32768
32-27,39240926,-29079
32-28,39244832,-99
32-29,39248738,17835
32-30,39252644,19259
32-31,39256550,27079
32-32,39260456,9967
32-1,39264367,-27438
32-2,39268273,-32580
32-3,39272179,-30936
32-4,39276085,-15036
32-5,39279991,11912
32-6,39283897,27183
32-7,39287803,26439
32-8,39291709,-3232
32-9,39295615,-32380
32-10,39299521,-21221
32-11,39303427,13689
32-12,39307333,26020
32-13,39311239,23206
32-14,39315145,28503
32-15,39319051,22160
32-16,39322957,-15790
32-17,39326863,-32768
32-18,39330769,-15669
32-19,39334675,16632
32-20,39338581,25243
32-21,39342487,22518
32-22,39346393,28706
32-23,39350299,12453
32-24,39354205,-28560
32-25,39358111,-32768
32-26,39362017,-8445
32-27,39365923,10747
32-28,39369829,18653
32-29,39373735,21528
32-30,39377641,21001
32-31,39381547,-1882
32-32,39385453,-31522
32-1,39389365,-32737
32-2,39393271,-25029
32-3,39397177,1053
32-4,39401083,21975
32-5,39404989,27560
32-6,39408895,20834
32-7,39412801,-13824
32-8,39416707,-32737
32-9,39420613,-14240
32-10,39424519,17542
32-11,39428425,25587
32-12,39432331,23804
32-13,39436237,28472
32-14,39440143,12467
32-15,39444049,-26752
32-16,39447955,-32768
32-17,39451861,-7121
32-18,39455767,20243
32-19,39459673,24111
32-20,39463579,24855
32-21,39467485,27622
32-22,39471391,786
32-23,39475297,-32768
32-24,39479203,-29812
32-25,39483109,6194
32-26,39487015,22089
32-27,39490921,15427
32-28,39494827,24312
32-29,39498733,19713
32-30,39502639,-18793
32-31,39506545,-32768
32-32,39510451,-32359
32-1,39514424,-24343
32-2,39518330,232
32-3,39522236,20708
32-4,39526142,28486
32-5,39530048,14167
32-6,39533954,-24423
32-7,39537860,-32142
32-8,39541766,-2997
32-9,39545672,24078
32-10,39549578,25684
32-11,39553484,24704
32-12,39557390,27643
32-13,39561296,2907
32-14,39565202,-32768
32-15,39569108,-30851
32-16,39573014,1949
32-17,39576920,23901
32-18,39580826,24323
32-19,39584732,26575
32-20,39588638,23581
32-21,39592544,-11123
32-22,39596450,-32768
32-23,39600356,-20779
32-24,39604262,11605
32-25,39608168,25500
32-26,39612074,21118
32-27,39615980,21782
32-28,39619886,11292
32-29,39623792,-21742
32-30,39627698,-32768
32-31,39631604,-32185
32-32,39635510,-19048
32-1,39639360,5500
32-2,39643266,23932
32-3,39647172,28256
32-4,39651078,4379
32-5,39654984,-32497
32-6,39658890,-28383
32-7,39662796,7860
32-8,39666702,26938
32-9,39670608,23576
32-10,39674514,25758
32-11,39678420,25207
32-12,39682326,-7824
32-13,39686232,-32768
32-14,39690138,-23032
32-15,39694044,11347
32-16,39697950,26139
32-17,39701856,23484
32-18,39705762,27207
32-19,39709668,16759
32-20,39713574,-20851
32-21,39717480,-32768
32-22,39721386,-17237
32-23,39725292,12745
32-24,39729198,23707
32-25,39733104,26124
32-26,39737010,25765
32-27,39740916,-3638
32-28,39744822,-32768
32-29,39748728,-32454
32-30,39752634,-30373
32-31,39756540,-9409
32-32,39760446,18215
32-1,39764358,29489
32-2,39768264,24182
32-3,39772170,-6943
32-4,39776076,-32364
32-5,39779982,-31960
32-6,39783888,-8886
32-7,39787794,17320
32-8,39791700,25123
32-9,39795606,28503
32-10,39799512,20309
32-11,39803418,-19104
32-12,39807324,-32354
32-13,39811230,-6657
32-14,39815136,23197
32-15,39819042,25882
32-16,39822948,23272
32-17,39826854,28412
32-18,39830760,8864
32-19,39834666,-30190
32-20,39838572,-32768
32-21,39842478,-2535
32-22,39846384,23285
32-23,39850290,24660
32-24,39854196,25240
32-25,39858102,25427
32-26,39862008,-5682
32-27,39865914,-32768
32-28,39869820,-31712
32-29,39873726,-19431
32-30,39877632,-3937
32-31,39881538,17745
32-32,39885444,31243
32-1,39889355,16905
32-2,39893261,-18658
32-3,39897167,-32263
32-4,39901073,-30625
32-5,39904979,-7843
32-6,39908885,18048
32-7,39912791,26841
32-8,39916697,29344
32-9,39920603,10377
32-10,39924509,-29337
32-11,39928415,-30168
32-12,39932321,5698
32-13,39936227,26276
32-14,39940133,23745
32-15,39944039,25827
32-16,39947945,27629
32-17,39951851,-2325
32-18,39955757,-32768
32-19,39959663,-29861
32-20,39963569,3080
32-21,39967475,24414
32-22,39971381,23745
32-23,39975287,26813
32-24,39979193,20286
32-25,39983099,-15148
32-26,39987005,-32768
32-27,39990911,-24501
32-28,39994817,5929
32-29,39998723,20139
32-30,40002629,19074
32-31,40006535,27117
32-32,40010441,10442
32-1,40014353,-27019
32-2,40018259,-32751
32-3,40022165,-31888
32-4,40026071,-16834
32-5,40029977,11465
32-6,40033883,27821
32-7,40037789,27261
32-8,40041695,-2750
32-9,40045601,-32532
32-10,40049507,-16925
32-11,40053413,17725
32-12,40057319,26159
32-13,40061225,22853
32-14,40065131,28728
32-15,40069037,21690
32-16,40072943,-15149
32-17,40076849,-32768
32-18,40080755,-21853
32-19,40084661,10277
32-20,40088567,24675
32-21,40092473,23196
32-22,40096379,28561
32-23,40100285,13193
32-24,40104191,-28059
32-25,40108097,-32768
32-26,40112003,-8372
32-27,40115909,10522
32-28,40119815,18654
32-29,40123721,21789
32-30,40127627,21185
32-31,40131533,-1627
32-32,40135439,-31413
32-1,40139686,-32745
32-2,40143592,-25083
32-3,40147498,1148
32-4,40151404,22125
32-5,40155310,27925
32-6,40159216,21604
32-7,40163122,-14114
32-8,40167028,-32759
32-9,40170934,-6640
32-10,40174840,22463
32-11,40178746,25106
32-12,40182652,23537
32-13,40186558,28602
32-14,40190464,12230
32-15,40194370,-25887
32-16,40198276,-32768
32-17,40202182,-13472
32-18,40206088,15824
32-19,40209994,24300
32-20,40213900,24878
32-21,40217806,27525
32-22,40221712,1682
32-23,40225618,-32768
32-24,40229524,-29894
32-25,40233430,6178
32-26,40237336,22261
32-27,40241242,15494
32-28,40245148,24053
32-29,40249054,19868
32-30,40252960,-18370
32-31,40256866,-32768
32-32,40260772,-32359
32-1,40264348,-23575
32-2,40268254,1749
32-3,40272160,21503
32-4,40276066,28499
32-5,40279972,14509
32-6,40283878,-24116
32-7,40287784,-32189
32-8,40291690,-3266
32-9,40295596,23685
32-10,40299502,25448
32-11,40303408,24625
32-12,40307314,27751
32-13,40311220,3213
32-14,40315126,-32768
32-15,40319032,-30723
32-16,40322938,2123
32-17,40326844,24082
32-18,40330750,24502
32-19,40334656,26750
32-20,40338562,23879
32-21,40342468,-10935
32-22,40346374,-32768
32-23,40350280,-20653
32-24,40354186,11989
32-25,40358092,25839
32-26,40361998,21601
32-27,40365904,22292
32-28,40369810,12485
32-29,40373716,-21044
32-30,40377622,-32768
32-31,40381528,-24823
32-32,40385434,3898
32-1,40389346,21642
32-2,40393252,25234
32-3,40397158,27334
32-4,40401064,4240
32-5,40404970,-31649
32-6,40408876,-32685
32-7,40412782,-13901
32-8,40416688,14705
32-9,40420594,24271
32-10,40424500,25190
32-11,40428406,23818
32-12,40432312,-7881
32-13,40436218,-32768
32-14,40440124,-24165
32-15,40444030,9902
32-16,40447936,25800
32-17,40451842,23575
32-18,40455748,27111
32-19,40459654,16748
32-20,40463560,-21695
32-21,40467466,-32768
32-22,40471372,-11841
32-23,40475278,18194
32-24,40479184,24288
32-25,40483090,25319
32-26,40486996,26360
32-27,40490902,-2877
32-28,40494808,-32768
32-29,40498714,-32630
32-30,40502620,-31059
32-31,40506526,-12175
32-32,40510432,15999
32-1,40514344,29013
32-2,40518250,23995
32-3,40522156,-7483
32-4,40526062,-32453
32-5,40529968,-29085
32-6,40533874,1166
32-7,40537780,22205
32-8,40541686,23938
32-9,40545592,27876
32-10,40549498,19506
32-11,40553404,-19097
32-12,40557310,-32632
32-13,40561216,-14561
32-14,40565122,17285
32-15,40569028,25511
32-16,40572934,23087
32-17,40576840,27517
32-18,40580746,8233
32-19,40584652,-30548
32-20,40588558,-32768
32-21,40592464,-3046
32-22,40596370,22746
32-23,40600276,24416
32-24,40604182,24804
32-25,40608088,24877
32-26,40611994,-6157
32-27,40615900,-32768
32-28,40619806,-30574
32-29,40623712,-15653
32-30,40627618,52
32-31,40631524,18746
32-32,40635430,30552
32-1,40639341,16779
32-2,40643247,-18582
32-3,40647153,-32378
32-4,40651059,-31973
32-5,40654965,-14205
32-6,40658871,13292
32-7,40662777,26584
32-8,40666683,29131
32-9,40670589,10015
32-10,40674495,-29067
32-11,40678401,-31409
32-12,40682307,3671
32-13,40686213,25564
32-14,40690119,23604
32-15,40694025,25320
32-16,40697931,27421
32-17,40701837,-2263
32-18,40705743,-32768
32-19,40709649,-29459
32-20,40713555,3093
32-21,40717461,23770
32-22,40721367,23306
32-23,40725273,26492
32-24,40729179,19721
32-25,40733085,-14892
32-26,40736991,-32768
32-27,40740897,-30089
32-28,40744803,-533
32-29,40748709,18706
32-30,40752615,20043
32-31,40756521,26947
32-32,40760427,10491
32-1,40764461,-26418
32-2,40768367,-32601
32-3,40772273,-29501
32-4,40776179,-6980
32-5,40780085,18980
32-6,40783991,27882
32-7,40787897,26364
32-8,40791803,-1688
32-9,40795709,-32634
32-10,40799615,-23456
32-11,40803521,11288
32-12,40807427,25342
32-13,40811333,23226
32-14,40815239,28136
32-15,40819145,21969
32-16,40823051,-14500
32-17,40826957,-32768
32-18,40830863,-22410
32-19,40834769,10026
32-20,40838675,24734
32-21,40842581,22932
32-22,40846487,28431
32-23,40850393,13475
32-24,40854299,-28303
32-25,40858205,-32260
32-26,40862111,-2163
32-27,40866017,15515
32-28,40869923,18963
32-29,40873829,20407
32-30,40877735,20626
32-31,40881641,-1897
32-32,40885547,-31473
32-1,40889337,-32768
32-2,40893243,-29481
32-3,40897149,-8890
32-4,40901055,17068
32-5,40904961,28288
32-6,40908867,21447
32-7,40912773,-13821
32-8,40916679,-32544
32-9,40920585,-8877
32-10,40924491,21045
32-11,40928397,25068
32-12,40932303,23563
32-13,40936209,28602
32-14,40940115,12669
32-15,40944021,-25409
32-16,40947927,-32768
32-17,40951833,-13261
32-18,40955739,15963
32-19,40959645,24054
32-20,40963551,24435
32-21,40967457,27792
32-22,40971363,1711
32-23,40975269,-32768
32-24,40979175,-25513
32-25,40983081,12582
32-26,40986987,23775
32-27,40990893,15250
32-28,40994799,24589
32-29,40998705,19397
32-30,41002611,-19197
32-31,41006517,-32768
32-32,41010423,-32300
32-1,41014334,-28080
32-2,41018240,-7152
32-3,41022146,16593
32-4,41026052,28670
32-5,41029958,14658
32-6,41033864,-24668
32-7,41037770,-31153
32-8,41041676,3779
32-9,41045582,26438
32-10,41049488,24518
32-11,41053394,24597
32-12,41057300,27530
32-13,41061206,3321
32-14,41065112,-32429
32-15,41069018,-32543
32-16,41072924,-4411
32-17,41076830,21094
32-18,41080736,24759
32-19,41084642,26224
32-20,41088548,23447
32-21,41092454,-10741
32-22,41096360,-32768
32-23,41100266,-20938
32-24,41104172,11677
32-25,41108078,25449
32-26,41111984,21196
32-27,41115890,22062
32-28,41119796,12360
32-29,41123702,-21062
32-30,41127608,-32768
32-31,41131514,-25214
32-32,41135420,3379
32-1,41139332,21126
32-2,41143238,24833
32-3,41147144,27007
32-4,41151050,3974
32-5,41154956,-31606
32-6,41158862,-32655
32-7,41162768,-14481
32-8,41166674,14522
32-9,41170580,24318
32-10,41174486,24984
32-11,41178392,23949
32-12,41182298,-7444
32-13,41186204,-32768
32-14,41190110,-24466
32-15,41194016,9450
32-16,41197922,25484
32-17,41201828,23284
32-18,41205734,26713
32-19,41209640,16537
32-20,41213546,-21642
32-21,41217452,-32768
32-22,41221358,-12653
32-23,41225264,17225
32-24,41229170,23840
32-25,41233076,25191
32-26,41236982,26005
32-27,41240888,-2886
32-28,41244794,-32768
32-29,41248700,-32768
32-30,41252606,-29521
32-31,41256512,-6499
32-32,41260418,19052
32-1,41264329,28110
32-2,41268235,23642
32-3,41272141,-6902
32-4,41276047,-32710
32-5,41279953,-32301
32-6,41283859,-6057
32-7,41287765,18717
32-8,41291671,23895
32-9,41295577,27055
32-10,41299483,18998
32-11,41303389,-19007
32-12,41307295,-32695
32-13,41311201,-15017
32-14,41315107,16868
32-15,41319013,25338
32-16,41322919,22817
32-17,41326825,27336
32-18,41330731,8409
32-19,41334637,-30418
32-20,41338543,-32768
32-21,41342449,-3427
32-22,41346355,22519
32-23,41350261,24393
32-24,41354167,24790
32-25,41358073,24826
32-26,41361979,-6299
32-27,41365885,-32768
32-28,41369791,-30778
32-29,41373697,-16449
32-30,41377603,-638
32-31,41381509,18699
32-32,41385415,30610
32-1,41389327,16419
32-2,41393233,-19014
32-3,41397139,-32348
32-4,41401045,-31944
32-5,41404951,-15122
32-6,41408857,12234
32-7,41412763,26291
32-8,41416669,29063
32-9,41420575,9634
32-10,41424481,-29220
32-11,41428387,-31495
32-12,41432293,3250
32-13,41436199,25404
32-14,41440105,23693
32-15,41444011,25163
32-16,41447917,27474
32-17,41451823,-2457
32-18,41455729,-32768
32-19,41459635,-27158
32-20,41463541,7743
32-21,41467447,25714
32-22,41471353,22991
32-23,41475259,26721
32-24,41479165,19638
32-25,41483071,-15254
32-26,41486977,-32768
32-27,41490883,-30580
32-28,41494789,-2507
32-29,41498695,16784
32-30,41502601,19317
32-31,41506507,26936
32-32,41510413,10171
32-1,41514325,-26927
32-2,41518231,-32526
32-3,41522137,-30672
32-4,41526043,-13088
32-5,41529949,13997
32-6,41533855,27584
32-7,41537761,26394
32-8,41541667,-2349
32-9,41545573,-32396
32-10,41549479,-22821
32-11,41553385,12188
32-12,41557291,25620
32-13,41561197,22853
32-14,41565103,28008
32-15,41569009,21958
32-16,41572915,-14621
32-17,41576821,-32768
32-18,41580727,-22086
32-19,41584633,9056
32-20,41588539,23502
32-21,41592445,22733
32-22,41596351,28072
32-23,41600257,13098
32-24,41604163,-27865
32-25,41608069,-32768
32-26,41611975,-7247
32-27,41615881,12529
32-28,41619787,19280
32-29,41623693,20808
32-30,41627599,20723
32-31,41631505,-1017
32-32,41635411,-30824
32-1,41639353,-32768
32-2,41643259,-27157
32-3,41647165,-2670
32-4,41651071,20774
32-5,41654977,27988
32-6,41658883,21190
32-7,41662789,-12834
32-8,41666695,-32702
32-9,41670601,-15036
32-10,41674507,17144
32-11,41678413,25379
32-12,41682319,23395
32-13,41686225,28433
32-14,41690131,13433
32-15,41694037,-26078
32-16,41697943,-32768
32-17,41701849,-6614
32-18,41705755,20487
32-19,41709661,23728
32-20,41713567,24419
32-21,41717473,27733
32-22,41721379,2079
32-23,41725285,-32768
32-24,41729191,-31785
32-25,41733097,2658
32-26,41737003,20852
32-27,41740909,15955
32-28,41744815,23991
32-29,41748721,19258
32-30,41752627,-18639
32-31,41756533,-32765
32-32,41760439,-32356
32-1,41764320,-24368
32-2,41768226,699
32-3,41772132,20841
32-4,41776038,28141
32-5,41779944,14875
32-6,41783850,-23509
32-7,41787756,-32163
32-8,41791662,-3201
32-9,41795568,23968
32-10,41799474,25498
32-11,41803380,24643
32-12,41807286,27298
32-13,41811192,3544
32-14,41815098,-32223
32-15,41819004,-32633
32-16,41822910,-6126
32-17,41826816,20330
32-18,41830722,24625
32-19,41834628,25912
32-20,41838534,23895
32-21,41842440,-10996
32-22,41846346,-32768
32-23,41850252,-14758
32-24,41854158,17533
32-25,41858064,25657
32-26,41861970,20361
32-27,41865876,22575
32-28,41869782,12103
32-29,41873688,-21138
32-30,41877594,-32768
32-31,41881500,-31978
32-32,41885406,-14537
32-1,41889318,11173
32-2,41893224,25223
32-3,41897130,27982
32-4,41901036,5683
32-5,41904942,-32012
32-6,41908848,-29892
32-7,41912754,5344
32-8,41916660,25521
32-9,41920566,23206
32-10,41924472,25012
32-11,41928378,24061
32-12,41932284,-7465
32-13,41936190,-32768
32-14,41940096,-28527
32-15,41944002,3549
32-16,41947908,24084
32-17,41951814,23806
32-18,41955720,26258
32-19,41959626,16799
32-20,41963532,-20967
32-21,41967438,-32768
32-22,41971344,-12986
32-23,41975250,16864
32-24,41979156,23614
32-25,41983062,25126
32-26,41986968,25806
32-27,41990874,-3234
32-28,41994780,-32768
32-29,41998686,-32768
32-30,42002592,-29745
32-31,42006498,-7123
32-32,42010404,18849
32-1,42014315,28395
32-2,42018221,24073
32-3,42022127,-6538
32-4,42026033,-32710
32-5,42029939,-32085
32-6,42033845,-4185
32-7,42037751,20123
32-8,42041657,24086
32-9,42045563,27112
32-10,42049469,19434
32-11,42053375,-18652
32-12,42057281,-32752
32-13,42061187,-14777
32-14,42065093,17226
32-15,42068999,25400
32-16,42072905,22629
32-17,42076811,27158
32-18,42080717,8546
32-19,42084623,-30325
32-20,42088529,-32768
32-21,42092435,-3134
32-22,42096341,22478
32-23,42100247,24003
32-24,42104153,24407
32-25,42108059,24972
32-26,42111965,-5715
32-27,42115871,-32768
32-28,42119777,-30975
32-29,42123683,-16836
32-30,42127589,-1118
32-31,42131495,18614
32-32,42135401,30757
32-1,42139313,16436
32-2,42143219,-19046
32-3,42147125,-32334
32-4,42151031,-31930
32-5,42154937,-14835
32-6,42158843,12357
32-7,42162749,25992
32-8,42166655,28889
32-9,42170561,9874
32-10,42174467,-29138
32-11,42178373,-31587
32-12,42182279,3234
32-13,42186185,25194
32-14,42190091,23361
32-15,42193997,24944
32-16,42197903,27357
32-17,42201809,-2396
32-18,42205715,-32768
32-19,42209621,-27464
32-20,42213527,7159
32-21,42217433,25499
32-22,42221339,22959
32-23,42225245,26666
32-24,42229151,20014
32-25,42233057,-14903
32-26,42236963,-32768
32-27,42240869,-30308
32-28,42244775,-1747
32-29,42248681,16896
32-30,42252587,18765
32-31,42256493,26656
32-32,42260399,10323
32-1,42264310,-26684
32-2,42268216,-32535
32-3,42272122,-29918
32-4,42276028,-8654
32-5,42279934,17774
32-6,42283840,27630
32-7,42287746,26270
32-8,42291652,-1663
32-9,42295558,-32524
32-10,42299464,-23812
32-11,42303370,10992
32-12,42307276,25164
32-13,42311182,22706
32-14,42315088,27684
32-15,42318994,22224
32-16,42322900,-14924
32-17,42326806,-32768
32-18,42330712,-17908
32-19,42334618,14871
32-20,42338524,25109
32-21,42342430,22290
32-22,42346336,28349
32-23,42350242,13189
32-24,42354148,-27695
32-25,42358054,-32768
32-26,42361960,-9815
32-27,42365866,9756
32-28,42369772,18413
32-29,42373678,21028
32-30,42377584,20279
32-31,42381490,-1802
32-32,42385396,-31034
32-1,42389339,-32697
32-2,42393245,-26273
32-3,42397151,-916
32-4,42401057,21374
32-5,42404963,27714
32-6,42408869,20950
32-7,42412775,-13189
32-8,42416681,-32661
32-9,42420587,-15185
32-10,42424493,16646
32-11,42428399,25073
32-12,42432305,23363
32-13,42436211,28205
32-14,42440117,12926
32-15,42444023,-26054
32-16,42447929,-32768
32-17,42451835,-8629
32-18,42455741,19215
32-19,42459647,23681
32-20,42463553,24032
32-21,42467459,27128
32-22,42471365,1574
32-23,42475271,-32768
32-24,42479177,-30937
32-25,42483083,4561
32-26,42486989,21851
32-27,42490895,15922
32-28,42494801,24197
32-29,42498707,19936
32-30,42502613,-18366
32-31,42506519,-32768
32-32,42510425,-32359
32-1,42514306,-26925
32-2,42518212,-4467
32-3,42522118,18342
32-4,42526024,28214
32-5,42529930,14664
32-6,42533836,-23484
32-7,42537742,-32036
32-8,42541648,-4449
32-9,42545554,23267
32-10,42549460,25428
32-11,42553366,24145
32-12,42557272,27348
32-13,42561178,3626
32-14,42565084,-32768
32-15,42568990,-31099
32-16,42572896,1469
32-17,42576802,23286
32-18,42580708,23833
32-19,42584614,26337
32-20,42588520,23655
32-21,42592426,-9939
32-22,42596332,-32768
32-23,42600238,-25755
32-24,42604144,4387
32-25,42608050,23595
32-26,42611956,21599
32-27,42615862,20328
32-28,42619768,10960
32-29,42623674,-20519
32-30,42627580,-32768
32-31,42631486,-32164
32-32,42635392,-13940
32-1,42639303,12191
32-2,42643209,25553
32-3,42647115,28005
32-4,42651021,6230
32-5,42654927,-31697
32-6,42658833,-30499
32-7,42662739,4710
32-8,42666645,25840
32-9,42670551,23878
32-10,42674457,25366
32-11,42678363,25285
32-12,42682269,-6927
32-13,42686175,-32768
32-14,42690081,-23613
32-15,42693987,10643
32-16,42697893,25840
32-17,42701799,23306
32-18,42705705,26784
32-19,42709611,17322
32-20,42713517,-20518
32-21,42717423,-32768
32-22,42721329,-13394
32-23,42725235,17012
32-24,42729141,23919
32-25,42733047,25219
32-26,42736953,26506
32-27,42740859,-2449
32-28,42744765,-32768
32-29,42748671,-32359
32-30,42752577,-31555
32-31,42756483,-20424
32-32,42760389,6752
32-1,42764301,27430
32-2,42768207,24998
32-3,42772113,-6881
32-4,42776019,-31961
32-5,42779925,-31293
32-6,42783831,-3951
32-7,42787737,20822
32-8,42791643,24791
32-9,42795549,27806
32-10,42799455,20711
32-11,42803361,-18431
32-12,42807267,-32069
32-13,42811173,-7137
32-14,42815079,22785
32-15,42818985,25772
32-16,42822891,23405
32-17,42826797,28379
32-18,42830703,9344
32-19,42834609,-28698
32-20,42838515,-32595
32-21,42842421,-9087
32-22,42846327,19519
32-23,42850233,25223
32-24,42854139,24978
32-25,42858045,25417
32-26,42861951,-4718
32-27,42865857,-32768
32-28,42869763,-29102
32-29,42873669,-10876
32-30,42877575,4059
32-31,42881481,19703
32-32,42885387,30376
32-1,42889299,17093
32-2,42893205,-18546
32-3,42897111,-32521
32-4,42901017,-32114
32-5,42904923,-19327
32-6,42908829,7943
32-7,42912735,25303
32-8,42916641,29744
32-9,42920547,10280
32-10,42924453,-29021
32-11,42928359,-27483
32-12,42932265,9871
32-13,42936171,27152
32-14,42940077,22636
32-15,42943983,25144
32-16,42947889,26993
32-17,42951795,-2090
32-18,42955701,-32768
32-19,42959607,-31081
32-20,42963513,1050
32-21,42967419,23795
32-22,42971325,23815
32-23,42975231,26342
32-24,42979137,20196
32-25,42983043,-14318
32-26,42986949,-32768
32-27,42990855,-30265
32-28,42994761,-1719
32-29,42998667,17280
32-30,43002573,19502
32-31,43006479,27038
32-32,43010385,10586
32-1,43014296,-26520
32-2,43018202,-32561
32-3,43022108,-30030
32-4,43026014,-9127
32-5,43029920,17387
32-6,43033826,27805
32-7,43037732,27118
32-8,43041638,-1869
32-9,43045544,-32547
32-10,43049450,-17779
32-11,43053356,17152
32-12,43057262,25799
32-13,43061168,22283
32-14,43065074,28215
32-15,43068980,22319
32-16,43072886,-14040
32-17,43076792,-32768
32-18,43080698,-22590
32-19,43084604,9873
32-20,43088510,24590
32-21,43092416,22807
32-22,43096322,28113
32-23,43100228,13743
32-24,43104134,-27266
32-25,43108040,-32768
32-26,43111946,-10025
32-27,43115852,9321
32-28,43119758,18164
32-29,43123664,21128
32-30,43127570,20927
32-31,43131476,-1485
32-32,43135382,-31275
32-1,43139355,-32696
32-2,43143261,-28671
32-3,43147167,-8426
32-4,43151073,16511
32-5,43154979,27930
32-6,43158885,21402
32-7,43162791,-13496
32-8,43166697,-32480
32-9,43170603,-13226
32-10,43174509,18464
32-11,43178415,25483
32-12,43182321,23475
32-13,43186227,28825
32-14,43190133,13960
32-15,43194039,-25538
32-16,43197945,-32768
32-17,43201851,-7212
32-18,43205757,20432
32-19,43209663,23963
32-20,43213569,24347
32-21,43217475,27911
32-22,43221381,2250
32-23,43225287,-32768
32-24,43229193,-30768
32-25,43233099,5184
32-26,43237005,22292
32-27,43240911,15517
32-28,43244817,23647
32-29,43248723,20221
32-30,43252629,-17759
32-31,43256535,-32768
32-32,43260441,-32359
32-1,43264292,-25040
32-2,43268198,-378
32-3,43272104,20563
32-4,43276010,28289
32-5,43279916,15063
32-6,43283822,-23244
32-7,43287728,-32148
32-8,43291634,-3673
32-9,43295540,23670
32-10,43299446,25559
32-11,43303352,24708
32-12,43307258,27821
32-13,43311164,3653
32-14,43315070,-32768
32-15,43318976,-31230
32-16,43322882,1360
32-17,43326788,23654
32-18,43330694,24304
32-19,43334600,26461
32-20,43338506,23921
32-21,43342412,-10337
32-22,43346318,-32768
32-23,43350224,-21373
32-24,43354130,11639
32-25,43358036,25719
32-26,43361942,20991
32-27,43365848,22145
32-28,43369754,12262
32-29,43373660,-21255
32-30,43377566,-32768
32-31,43381472,-32359
32-32,43385378,-19704
32-1,43389289,4811
32-2,43393195,23463
32-3,43397101,28207
32-4,43401007,5275
32-5,43404913,-32012
32-6,43408819,-29417
32-7,43412725,6265
32-8,43416631,26544
32-9,43420537,23746
32-10,43424443,25252
32-11,43428349,24955
32-12,43432255,-7032
32-13,43436161,-32768
32-14,43440067,-24707
32-15,43443973,9339
32-16,43447879,25477
32-17,43451785,23366
32-18,43455691,26907
32-19,43459597,16997
32-20,43463503,-20222
32-21,43467409,-32768
32-22,43471315,-18277
32-23,43475221,11610
32-24,43479127,23149
32-25,43483033,25627
32-26,43486939,25631
32-27,43490845,-3031
32-28,43494751,-32768
32-29,43498657,-32716
32-30,43502563,-30830
32-31,43506469,-10543
32-32,43510375,16933
32-1,43514287,28582
32-2,43518193,24456
32-3,43522099,-6022
32-4,43526005,-32591
32-5,43529911,-32184
32-6,43533817,-5185
32-7,43537723,19520
32-8,43541629,24265
32-9,43545535,27173
32-10,43549441,19898
32-11,43553347,-17815
32-12,43557253,-32632
32-13,43561159,-15208
32-14,43565065,16298
32-15,43568971,25188
32-16,43572877,23002
32-17,43576783,27341
32-18,43580689,9054
32-19,43584595,-29958
32-20,43588501,-32768
32-21,43592407,-3060
32-22,43596313,22875
32-23,43600219,24347
32-24,43604125,24751
32-25,43608031,25399
32-26,43611937,-5150
32-27,43615843,-32768
32-28,43619749,-30657
32-29,43623655,-15067
32-30,43627561,1066
32-31,43631467,19222
32-32,43635373,30732
32-1,43639284,17856
32-2,43643190,-18043
32-3,43647096,-32426
32-4,43651002,-32021
32-5,43654908,-22473
32-6,43658814,4108
32-7,43662720,24701
32-8,43666626,30567
32-9,43670532,11007
32-10,43674438,-28349
32-11,43678344,-27634
32-12,43682250,9692
32-13,43686156,27811
32-14,43690062,23440
32-15,43693968,25553
32-16,43697874,27701
32-17,43701780,-1067
32-18,43705686,-32768
32-19,43709592,-30881
32-20,43713498,1522
32-21,43717404,23927
32-22,43721310,23860
32-23,43725216,26302
32-24,43729122,20312
32-25,43733028,-14300
32-26,43736934,-32768
32-27,43740840,-26199
32-28,43744746,3977
32-29,43748652,19503
32-30,43752558,19277
32-31,43756464,26934
32-32,43760370,10554
32-1,43764282,-26527
32-2,43768188,-32706
32-3,43772094,-31394
32-4,43776000,-13773
32-5,43779906,14040
32-6,43783812,27621
32-7,43787718,26863
32-8,43791624,-1849
32-9,43795530,-32568
32-10,43799436,-19668
32-11,43803342,15606
32-12,43807248,25894
32-13,43811154,22348
32-14,43815060,27819
32-15,43818966,22189
32-16,43822872,-13898
32-17,43826778,-32768
32-18,43830684,-22687
32-19,43834590,9755
32-20,43838496,24678
32-21,43842402,22646
32-22,43846308,28020
32-23,43850214,14165
32-24,43854120,-27496
32-25,43858026,-32554
32-26,43861932,-2804
32-27,43865838,15188
32-28,43869744,19131
32-29,43873650,20660
32-30,43877556,20894
32-31,43881462,-1089
32-32,43885368,-31057
32-1,43889280,-32768
32-2,43893186,-28511
32-3,43897092,-5851
32-4,43900998,18901
32-5,43904904,28001
32-6,43908810,21539
32-7,43912716,-13422
32-8,43916622,-32620
32-9,43920528,-8132
32-10,43924434,21515
32-11,43928340,24687
32-12,43932246,23132
32-13,43936152,28742
32-14,43940058,13494
32-15,43943964,-24789
32-16,43947870,-32768
32-17,43951776,-14053
32-18,43955682,15464
32-19,43959588,24083
32-20,43963494,24484
32-21,43967400,27691
32-22,43971306,3000
32-23,43975212,-32768
32-24,43979118,-30693
32-25,43983024,5485
32-26,43986930,22317
32-27,43990836,15874
32-28,43994742,23780
32-29,43998648,19275
32-30,44002554,-18363
32-31,44006460,-32768
32-32,44010366,-32359
32-1,44014277,-24903
32-2,44018183,48
32-3,44022089,20639
32-4,44025995,28140
32-5,44029901,15157
32-6,44033807,-23098
32-7,44037713,-32157
32-8,44041619,-4650
32-9,44045525,22939
32-10,44049431,25367
32-11,44053337,24521
32-12,44057243,27999
32-13,44061149,4286
32-14,44065055,-32768
32-15,44068961,-31550
32-16,44072867,907
32-17,44076773,23040
32-18,44080679,23766
32-19,44084585,26108
32-20,44088491,23755
32-21,44092397,-10351
32-22,44096303,-32768
32-23,44100209,-22073
32-24,44104115,10729
32-25,44108021,25436
32-26,44111927,21125
32-27,44115833,21943
32-28,44119739,13019
32-29,44123645,-20431
32-30,44127551,-32768
32-31,44131457,-25661
32-32,44135363,2954
32-1,44139275,21101
32-2,44143181,24818
32-3,44147087,27666
32-4,44150993,4290
32-5,44154899,-30325
32-6,44158805,-32672
32-7,44162711,-27489
32-8,44166617,-3899
32-9,44170523,19319
32-10,44174429,26714
32-11,44178335,23900
32-12,44182241,-7073
32-13,44186147,-32660
32-14,44190053,-20793
32-15,44193959,13563
32-16,44197865,26160
32-17,44201771,23375
32-18,44205677,27427
32-19,44209583,17364
32-20,44213489,-20691
32-21,44217395,-32768
32-22,44221301,-13852
32-23,44225207,16289
32-24,44229113,23952
32-25,44233019,25484
32-26,44236925,26483
32-27,44240831,-2006
32-28,44244737,-32484
32-29,44248643,-32768
32-30,44252549,-29531
32-31,44256455,-6861
32-32,44260361,18713
32-1,44264273,28182
32-2,44268179,24421
32-3,44272085,-5814
32-4,44275991,-32725
32-5,44279897,-32221
32-6,44283803,-4998
32-7,44287709,18549
32-8,44291615,25209
32-9,44295521,26822
32-10,44299427,17299
32-11,44303333,5516
32-12,44307239,16802
32-13,44311145,25835
32-14,44315051,24043
32-15,44318957,23019
32-16,44322863,22055
32-17,44326769,26180
32-18,44330675,7206
32-19,44334581,-29488
32-20,44338487,-32768
32-21,44342393,-30965
32-22,44346299,-30561
32-23,44350205,-14074
32-24,44354111,15140
32-25,44358017,25132
32-26,44361923,-5767
32-27,44365829,-31847
32-28,44369735,-27135
32-29,44373641,-8948
32-30,44377547,5374
32-31,44381453,20567
32-32,44385359,31349
32-1,44389270,17819
32-2,44393176,-18097
32-3,44397082,-31713
32-4,44400988,-31317
32-5,44404894,-18718
32-6,44408800,8481
32-7,44412706,26215
32-8,44416612,30450
32-9,44420518,11776
32-10,44424424,-27277
32-11,44428330,-31315
32-12,44432236,2384
32-13,44436142,25977
32-14,44440048,25085
32-15,44443954,25956
32-16,44447860,28777
32-17,44451766,-138
32-18,44455672,-32276
32-19,44459578,-27348
32-20,44463484,7172
32-21,44467390,26123
32-22,44471296,23893
32-23,44475202,27276
32-24,44479108,20946
32-25,44483014,-13521
32-26,44486920,-32682
32-27,44490826,-32274
32-28,44494732,-9147
32-29,44498638,10132
32-30,44502544,16753
32-31,44506450,26876
32-32,44510356,11325
32-1,44514268,-25775
32-2,44518174,-32250
32-3,44522080,-29268
32-4,44525986,-6813
32-5,44529892,19482
32-6,44533798,28469
32-7,44537704,27524
32-8,44541610,211
32-9,44545516,-32344
32-10,44549422,-24201
32-11,44553328,10999
32-12,44557234,26023
32-13,44561140,23426
32-14,44565046,28164
32-15,44568952,23822
32-16,44572858,-13364
32-17,44576764,-32768
32-18,44580670,-17167
32-19,44584576,15845
32-20,44588482,25451
32-21,44592388,22333
32-22,44596294,28291
32-23,44600200,14087
32-24,44604106,-26407
32-25,44608012,-32768
32-26,44611918,-13732
32-27,44615824,5631
32-28,44619730,17203
32-29,44623636,20602
32-30,44627542,19792
32-31,44631448,-549
32-32,44635354,-30189
32-1,44639296,-32596
32-2,44643202,-25442
32-3,44647108,895
32-4,44651014,22560
32-5,44654920,28101
32-6,44658826,22177
32-7,44662732,-11637
32-8,44666638,-32650
32-9,44670544,-14820
32-10,44674450,17226
32-11,44678356,25433
32-12,44682262,23761
32-13,44686168,28661
32-14,44690074,14120
32-15,44693980,-24377
32-16,44697886,-32768
32-17,44701792,-13664
32-18,44705698,15893
32-19,44709604,24167
32-20,44713510,24218
32-21,44717416,27941
32-22,44721322,2990
32-23,44725228,-32768
32-24,44729134,-26525
32-25,44733040,11877
32-26,44736946,24113
32-27,44740852,15437
32-28,44744758,24319
32-29,44748664,20033
32-30,44752570,-18168
32-31,44756476,-32768
32-32,44760382,-32359
32-1,44764263,-28281
32-2,44768169,-7603
32-3,44772075,16291
32-4,44775981,28629
32-5,44779887,15802
32-6,44783793,-23314
32-7,44787699,-31662
32-8,44791605,2542
32-9,44795511,26296
32-10,44799417,25255
32-11,44803323,25128
32-12,44807229,28123
32-13,44811135,4589
32-14,44815041,-31698
32-15,44818947,-32587
32-16,44822853,-4831
32-17,44826759,20735
32-18,44830665,24667
32-19,44834571,26412
32-20,44838477,24543
32-21,44842383,-9099
32-22,44846289,-32768
32-23,44850195,-22024
32-24,44854101,10875
32-25,44858007,25422
32-26,44861913,21100
32-27,44865819,22248
32-28,44869725,14016
32-29,44873631,-19625
32-30,44877537,-32768
32-31,44881443,-25321
32-32,44885349,4214
32-1,44889261,21998
32-2,44893167,24840
32-3,44897073,27344
32-4,44900979,5503
32-5,44904885,-30842
32-6,44908791,-32708
32-7,44912697,-14542
32-8,44916603,14971
32-9,44920509,24713
32-10,44924415,24695
32-11,44928321,24002
32-12,44932227,-6355
32-13,44936133,-32768
32-14,44940039,-25593
32-15,44943945,7982
32-16,44947851,25266
32-17,44951757,23757
32-18,44955663,27018
32-19,44959569,17682
32-20,44963475,-20358
32-21,44967381,-32768
32-22,44971287,-13273
32-23,44975193,16755
32-24,44979099,23734
32-25,44983005,25240
32-26,44986911,26205
32-27,44990817,-2360
32-28,44994723,-32529
32-29,44998629,-32768
32-30,45002535,-29744
32-31,45006441,-7288
32-32,45010347,18452
32-1,45014258,27875
32-2,45018164,24290
32-3,45022070,-5509
32-4,45025976,-32712
32-5,45029882,-32303
32-6,45033788,-6751
32-7,45037694,18578
32-8,45041600,24072
32-9,45045506,27031
32-10,45049412,20043
32-11,45053318,-17574
32-12,45057224,-32720
32-13,45061130,-15651
32-14,45065036,16719
32-15,45068942,25653
32-16,45072848,22910
32-17,45076754,27384
32-18,45080660,9265
32-19,45084566,-29697
32-20,45088472,-32768
32-21,45092378,-4307
32-22,45096284,22066
32-23,45100190,24580
32-24,45104096,24829
32-25,45108002,25343
32-26,45111908,-5194
32-27,45115814,-32768
32-28,45119720,-30920
32-29,45123626,-16954
32-30,45127532,-1611
32-31,45131438,18124
32-32,45135344,30690
32-1,45139256,17391
32-2,45143162,-18044
32-3,45147068,-32345
32-4,45150974,-31941
32-5,45154880,-14898
32-6,45158786,12148
32-7,45162692,25904
32-8,45166598,29348
32-9,45170504,11367
32-10,45174410,-28112
32-11,45178316,-31991
32-12,45182222,2305
32-13,45186128,25438
32-14,45190034,24007
32-15,45193940,24789
32-16,45197846,27664
32-17,45201752,-913
32-18,45205658,-32768
32-19,45209564,-28288
32-20,45213470,6430
32-21,45217376,25644
32-22,45221282,23252
32-23,45225188,26388
32-24,45229094,20041
32-25,45233000,-14327
32-26,45236906,-32768
32-27,45240812,-30768
32-28,45244718,-2627
32-29,45248624,16463
32-30,45252530,18914
32-31,45256436,26948
32-32,45260342,10804
32-1,45264254,-26623
32-2,45268160,-32526
32-3,45272066,-31473
32-4,45275972,-17662
32-5,45279878,9690
32-6,45283784,27215
32-7,45287690,27388
32-8,45291596,-1455
32-9,45295502,-32293
32-10,45299408,-23669
32-11,45303314,11476
32-12,45307220,26063
32-13,45311126,23211
32-14,45315032,28046
32-15,45318938,23491
32-16,45322844,-13401
32-17,45326750,-32768
32-18,45330656,-18649
32-19,45334562,14494
32-20,45338468,25353
32-21,45342374,22283
32-22,45346280,28155
32-23,45350186,14095
32-24,45354092,-26675
32-25,45357998,-32768
32-26,45361904,-11365
32-27,45365810,8567
32-28,45369716,18460
32-29,45373622,20922
32-30,45377528,20393
32-31,45381434,-628
32-32,45385340,-30488
32-1,45389251,-32685
32-2,45393157,-28156
32-3,45397063,-6524
32-4,45400969,18002
32-5,45404875,28036
32-6,45408781,21576
32-7,45412687,-12598
32-8,45416593,-32533
32-9,45420499,-14547
32-10,45424405,17728
32-11,45428311,25511
32-12,45432217,23519
32-13,45436123,28785
32-14,45440029,14255
32-15,45443935,-24264
32-16,45447841,-32768
32-17,45451747,-14145
32-18,45455653,14636
32-19,45459559,23656
32-20,45463465,24422
32-21,45467371,27643
32-22,45471277,3312
32-23,45475183,-32768
32-24,45479089,-30111
32-25,45482995,7056
32-26,45486901,23559
32-27,45490807,16667
32-28,45494713,24559
32-29,45498619,20541
32-30,45502525,-17531
32-31,45506431,-32768
32-32,45510337,-32359
32-1,45514249,-27575
32-2,45518155,-5817
32-3,45522061,17740
32-4,45525967,28700
32-5,45529873,16086
32-6,45533779,-22332
32-7,45537685,-32042
32-8,45541591,-4301
32-9,45545497,23530
32-10,45549403,26064
32-11,45553309,25063
32-12,45557215,28700
32-13,45561121,5490
32-14,45565027,-32172
32-15,45568933,-31355
32-16,45572839,1670
32-17,45576745,23782
32-18,45580651,24328
32-19,45584557,26730
32-20,45588463,24851
32-21,45592369,-8778
32-22,45596275,-32768
32-23,45600181,-23991
32-24,45604087,8368
32-25,45607993,25383
32-26,45611899,21243
32-27,45615805,21408
32-28,45619711,13582
32-29,45623617,-19229
32-30,45627523,-32768
32-31,45631429,-32027
32-32,45635335,-13423
32-1,45639308,12399
32-2,45643214,25267
32-3,45647120,27919
32-4,45651026,6998
32-5,45654932,-31178
32-6,45658838,-30453
32-7,45662744,5039
32-8,45666650,26069
32-9,45670556,23902
32-10,45674462,25351
32-11,45678368,24987
32-12,45682274,-6079
32-13,45686180,-32768
32-14,45690086,-28855
32-15,45693992,2963
32-16,45697898,24115
32-17,45701804,24426
32-18,45705710,27061
32-19,45709616,18240
32-20,45713522,-20728
32-21,45717428,-32768
32-22,45721334,-6059
32-23,45725240,21649
32-24,45729146,23758
32-25,45733052,25394
32-26,45736958,27117
32-27,45740864,-2025
32-28,45744770,-32548
32-29,45748676,-32768
32-30,45752582,-30951
32-31,45756488,-10582
32-32,45760394,17024
32-1,45764244,28546
32-2,45768150,24635
32-3,45772056,-5297
32-4,45775962,-32653
32-5,45779868,-32245
32-6,45783774,-7124
32-7,45787680,18392
32-8,45791586,24372
32-9,45795492,27257
32-10,45799398,20553
32-11,45803304,-16972
32-12,45807210,-32676
32-13,45811116,-15407
32-14,45815022,17038
32-15,45818928,25887
32-16,45822834,22946
32-17,45826740,27317
32-18,45830646,9616
32-19,45834552,-29363
32-20,45838458,-32768
32-21,45842364,-4387
32-22,45846270,21950
32-23,45850176,24724
32-24,45854082,25020
32-25,45857988,25395
32-26,45861894,-4926
32-27,45865800,-32768
32-28,45869706,-31146
32-29,45873612,-17431
32-30,45877518,-2521
32-31,45881424,17414
32-32,45885330,30667
32-1,45889242,17671
32-2,45893148,-17852
32-3,45897054,-32322
32-4,45900960,-31918
32-5,45904866,-14620
32-6,45908772,12498
32-7,45912678,25714
32-8,45916584,29738
32-9,45920490,11761
32-10,45924396,-28399
32-11,45928302,-27928
32-12,45932208,9683
32-13,45936114,27738
32-14,45940020,23344
32-15,45943926,25195
32-16,45947832,27603
32-17,45951738,-536
32-18,45955644,-32768
32-19,45959550,-31656
32-20,45963456,300
32-21,45967362,23721
32-22,45971268,24273
32-23,45975174,26448
32-24,45979080,20520
32-25,45982986,-13582
32-26,45986892,-32768
32-27,45990798,-30910
32-28,45994704,-2789
32-29,45998610,16573
32-30,46002516,19062
32-31,46006422,26826
32-32,46010328,11149
32-1,46014239,-25995
32-2,46018145,-32535
32-3,46022051,-30140
32-4,46025957,-9670
32-5,46029863,17010
32-6,46033769,28031
32-7,46037675,27290
32-8,46041581,-401
32-9,46045487,-32532
32-10,46049393,-24497
32-11,46053299,10457
32-12,46057205,25347
32-13,46061111,22725
32-14,46065017,27586
32-15,46068923,23428
32-16,46072829,-13431
32-17,46076735,-32768
32-18,46080641,-18689
32-19,46084547,14584
32-20,46088453,25506
32-21,46092359,22108
32-22,46096265,28077
32-23,46100171,14541
32-24,46104077,-26431
32-25,46107983,-32768
32-26,46111889,-10795
32-27,46115795,9001
32-28,46119701,18550
32-29,46123607,21326
32-30,46127513,20828
32-31,46131419,-597
32-32,46135325,-30581
32-1,46139237,-32708
32-2,46143143,-26596
32-3,46147049,-1414
32-4,46150955,21448
32-5,46154861,28189
32-6,46158767,22086
32-7,46162673,-11791
32-8,46166579,-32701
32-9,46170485,-15583
32-10,46174391,16644
32-11,46178297,25336
32-12,46182203,23583
32-13,46186109,28799
32-14,46190015,14382
32-15,46193921,-25126
32-16,46197827,-32768
32-17,46201733,-8833
32-18,46205639,19485
32-19,46209545,23876
32-20,46213451,23929
32-21,46217357,27751
32-22,46221263,3066
32-23,46225169,-32768
32-24,46229075,-31454
32-25,46232981,4507
32-26,46236887,22207
32-27,46240793,15639
32-28,46244699,23792
32-29,46248605,20827
32-30,46252511,-17098
32-31,46256417,-32768
32-32,46260323,-32359
32-1,46264357,-26274
32-2,46268263,-3343
32-3,46272169,18948
32-4,46276075,28406
32-5,46279981,15366
32-6,46283887,-22800
32-7,46287793,-32085
32-8,46291699,-4950
32-9,46295605,22958
32-10,46299511,25666
32-11,46303417,24581
32-12,46307323,27858
32-13,46311229,4595
32-14,46315135,-32350
32-15,46319041,-32045
32-16,46322947,33
32-17,46326853,22865
32-18,46330759,24037
32-19,46334665,26273
32-20,46338571,24450
32-21,46342477,-9232
32-22,46346383,-32768
32-23,46350289,-22624
32-24,46354195,10217
32-25,46358101,25557
32-26,46362007,20802
32-27,46365913,21452
32-28,46369819,13219
32-29,46373725,-19800
32-30,46377631,-32768
32-31,46381537,-32359
32-32,46385443,-19044
32-1,46389232,6719
32-2,46393138,24552
32-3,46397044,28644
32-4,46400950,7250
32-5,46404856,-30665
32-6,46408762,-31012
32-7,46412668,3867
32-8,46416574,25921
32-9,46420480,24130
32-10,46424386,25087
32-11,46428292,25392
32-12,46432198,-5804
32-13,46436104,-32768
32-14,46440010,-25218
32-15,46443916,8533
32-16,46447822,25515
32-17,46451728,23926
32-18,46455634,27074
32-19,46459540,17903
32-20,46463446,-19938
32-21,46467352,-32768
32-22,46471258,-13135
32-23,46475164,16900
32-24,46479070,23580
32-25,46482976,24916
32-26,46486882,26582
32-27,46490788,-1717
32-28,46494694,-32765
32-29,46498600,-32768
32-30,46502506,-31664
32-31,46506412,-16981
32-32,46510318,10665
32-1,46514230,27877
32-2,46518136,25309
32-3,46522042,-5415
32-4,46525948,-32483
32-5,46529854,-32078
32-6,46533760,-5723
32-7,46537666,19907
32-8,46541572,24579
32-9,46545478,27096
32-10,46549384,21073
32-11,46553290,-17276
32-12,46557196,-32549
32-13,46561102,-9445
32-14,46565008,21490
32-15,46568914,25604
32-16,46572820,22785
32-17,46576726,27620
32-18,46580632,9663
32-19,46584538,-28259
32-20,46588444,-32768
32-21,46592350,-10688
32-22,46596256,18223
32-23,46600162,25056
32-24,46604068,25026
32-25,46607974,25635
32-26,46611880,-3998
32-27,46615786,-32768
32-28,46619692,-29641
32-29,46623598,-12368
32-30,46627504,2517
32-31,46631410,19063
32-32,46635316,30448
32-1,46639228,18116
32-2,46643134,-17455
32-3,46647040,-32495
32-4,46650946,-32089
32-5,46654852,-19489
32-6,46658758,7550
32-7,46662664,25049
32-8,46666570,29855
32-9,46670476,11603
32-10,46674382,-28038
32-11,46678288,-28859
32-12,46682194,8296
32-13,46686100,27409
32-14,46690006,23288
32-15,46693912,25069
32-16,46697818,27754
32-17,46701724,-270
32-18,46705630,-32768
32-19,46709536,-31657
32-20,46713442,301
32-21,46717348,23752
32-22,46721254,24283
32-23,46725160,26259
32-24,46729066,20814
32-25,46732972,-13339
32-26,46736878,-32768
32-27,46740784,-26609
32-28,46744690,3520
32-29,46748596,19367
32-30,46752502,19254
32-31,46756408,27286
32-32,46760314,11731
32-1,46764225,-25890
32-2,46768131,-32719
32-3,46772037,-31551
32-4,46775943,-14626
32-5,46779849,13145
32-6,46783755,27540
32-7,46787661,27739
32-8,46791567,-729
32-9,46795473,-32581
32-10,46799379,-18953
32-11,46803285,16667
32-12,46807191,26090
32-13,46811097,21938
32-14,46815003,27587
32-15,46818909,22780
32-16,46822815,-12921
32-17,46826721,-32768
32-18,46830627,-23766
32-19,46834533,8785
32-20,46838439,24689
32-21,46842345,22794
32-22,46846251,27788
32-23,46850157,14805
32-24,46854063,-26064
32-25,46857969,-32768
32-26,46861875,-11413
32-27,46865781,8316
32-28,46869687,18313
32-29,46873593,21286
32-30,46877499,21079
32-31,46881405,-50
32-32,46885311,-30385
32-1,46889436,-32701
32-2,46893342,-26602
32-3,46897248,-1513
32-4,46901154,21339
32-5,46905060,27893
32-6,46908966,21841
32-7,46912872,-11721
32-8,46916778,-32686
32-9,46920684,-15948
32-10,46924590,16207
32-11,46928496,25023
32-12,46932402,23331
32-13,46936308,28544
32-14,46940214,14519
32-15,46944120,-24856
32-16,46948026,-32768
32-17,46951932,-9162
32-18,46955838,19303
32-19,46959744,23890
32-20,46963650,23864
32-21,46967556,27871
32-22,46971462,3544
32-23,46975368,-32768
32-24,46979274,-31714
32-25,46983180,4039
32-26,46987086,22174
32-27,46990992,15670
32-28,46994898,23107
32-29,46998804,19991
32-30,47002710,-17434
32-31,47006616,-32768
32-32,47010522,-32359
32-1,47014221,-26455
32-2,47018127,-3078
32-3,47022033,19249
32-4,47025939,28567
32-5,47029845,15946
32-6,47033751,-22430
32-7,47037657,-32104
32-8,47041563,-4585
32-9,47045469,23078
32-10,47049375,25575
32-11,47053281,24673
32-12,47057187,28201
32-13,47061093,5006
32-14,47064999,-32271
32-15,47068905,-31849
32-16,47072811,539
32-17,47076717,23010
32-18,47080623,23730
32-19,47084529,26025
32-20,47088435,24538
32-21,47092341,-9073
32-22,47096247,-32768
32-23,47100153,-22676
32-24,47104059,10480
32-25,47107965,25675
32-26,47111871,21070
32-27,47115777,21826
32-28,47119683,14124
32-29,47123589,-19168
32-30,47127495,-32768
32-31,47131401,-26034
32-32,47135307,2833
32-1,47139218,21387
32-2,47143124,24619
32-3,47147030,26984
32-4,47150936,5773
32-5,47154842,-30297
32-6,47158748,-32678
32-7,47162654,-15985
32-8,47166560,13286
32-9,47170466,24498
32-10,47174372,24940
32-11,47178278,23904
32-12,47182184,-6208
32-13,47186090,-32768
32-14,47189996,-25719
32-15,47193902,8050
32-16,47197808,25171
32-17,47201714,23628
32-18,47205620,27065
32-19,47209526,17815
32-20,47213432,-20041
32-21,47217338,-32768
32-22,47221244,-14144
32-23,47225150,16362
32-24,47229056,23921
32-25,47232962,25009
32-26,47236868,26833
32-27,47240774,-1095
32-28,47244680,-32768
32-29,47248586,-32768
32-30,47252492,-31827
32-31,47256398,-20864
32-32,47260304,5823
32-1,47264216,26519
32-2,47268122,25686
32-3,47272028,-5654
32-4,47275934,-32357
32-5,47279840,-29928
32-6,47283746,760
32-7,47287652,22980
32-8,47291558,23986
32-9,47295464,27224
32-10,47299370,21224
32-11,47303276,-16506
32-12,47307182,-32578
32-13,47311088,-15620
32-14,47314994,16992
32-15,47318900,26106
32-16,47322806,23194
32-17,47326712,27491
32-18,47330618,10142
32-19,47334524,-28868
32-20,47338430,-32768
32-21,47342336,-4427
32-22,47346242,21960
32-23,47350148,24515
32-24,47354054,24689
32-25,47357960,25665
32-26,47361866,-4042
32-27,47365772,-32768
32-28,47369678,-30816
32-29,47373584,-15859
32-30,47377490,-435
32-31,47381396,18444
32-32,47385302,30749
32-1,47389213,18420
32-2,47393119,-16831
32-3,47397025,-32408
32-4,47400931,-32003
32-5,47404837,-14855
32-6,47408743,12329
32-7,47412649,25691
32-8,47416555,29162
32-9,47420461,12517
32-10,47424367,-27092
32-11,47428273,-32077
32-12,47432179,1190
32-13,47436085,25278
32-14,47439991,24250
32-15,47443897,24631
32-16,47447803,28107
32-17,47451709,282
32-18,47455615,-32768
32-19,47459521,-28144
32-20,47463427,6727
32-21,47467333,25844
32-22,47471239,23630
32-23,47475145,26799
32-24,47479051,20968
32-25,47482957,-13107
32-26,47486863,-32768
32-27,47490769,-32231
32-28,47494675,-6577
32-29,47498581,13929
32-30,47502487,19035
32-31,47506393,27124
32-32,47510299,11702
32-1,47514211,-25319
32-2,47518117,-32457
32-3,47522023,-29911
32-4,47525929,-8502
32-5,47529835,17991
32-6,47533741,27878
32-7,47537647,27320
32-8,47541553,621
32-9,47545459,-32496
32-10,47549365,-24450
32-11,47553271,11040
32-12,47557177,25781
32-13,47561083,22848
32-14,47564989,27653
32-15,47568895,23562
32-16,47572801,-12153
32-17,47576707,-32768
32-18,47580613,-23727
32-19,47584519,8893
32-20,47588425,24972
32-21,47592331,22965
32-22,47596237,28118
32-23,47600143,15499
32-24,47604049,-26229
32-25,47607955,-32768
32-26,47611861,-3836
32-27,47615767,15078
32-28,47619673,19952
32-29,47623579,20917
32-30,47627485,21288
32-31,47631391,421
32-32,47635297,-30229
32-1,47639270,-32768
32-2,47643176,-28748
32-3,47647082,-6447
32-4,47650988,18795
32-5,47654894,28340
32-6,47658800,22353
32-7,47662706,-12064
32-8,47666612,-32639
32-9,47670518,-10116
32-10,47674424,20513
32-11,47678330,24776
32-12,47682236,23009
32-13,47686142,28652
32-14,47690048,14311
32-15,47693954,-23869
32-16,47697860,-32768
32-17,47701766,-15060
32-18,47705672,14877
32-19,47709578,23826
32-20,47713484,23857
32-21,47717390,27640
32-22,47721296,4356
32-23,47725202,-32768
32-24,47729108,-31790
32-25,47733014,4043
32-26,47736920,22269
32-27,47740826,16193
32-28,47744732,23597
32-29,47748638,20000
32-30,47752544,-17501
32-31,47756450,-32768
32-32,47760356,-32359
32-1,47764206,-26515
32-2,47768112,-3075
32-3,47772018,18946
32-4,47775924,28507
32-5,47779830,16054
32-6,47783736,-22907
32-7,47787642,-31862
32-8,47791548,2368
32-9,47795454,26051
32-10,47799360,25069
32-11,47803266,25142
32-12,47807172,28228
32-13,47811078,4936
32-14,47814984,-31472
32-15,47818890,-32704
32-16,47822796,-6134
32-17,47826702,19813
32-18,47830608,24129
32-19,47834514,25856
32-20,47838420,24497
32-21,47842326,-8695
32-22,47846232,-32768
32-23,47850138,-23108
32-24,47854044,9842
32-25,47857950,25393
32-26,47861856,20921
32-27,47865762,21937
32-28,47869668,14313
32-29,47873574,-18983
32-30,47877480,-32768
32-31,47881386,-29270
32-32,47885292,-5135
32-1,47889204,16796
32-2,47893110,24827
32-3,47897016,26856
32-4,47900922,5424
32-5,47904828,-30155
32-6,47908734,-32478
32-7,47912640,-14904
32-8,47916546,14890
32-9,47920452,25079
32-10,47924358,25064
32-11,47928264,24517
32-12,47932170,-5601
32-13,47936076,-32768
32-14,47939982,-25704
32-15,47943888,8101
32-16,47947794,25442
32-17,47951700,23863
32-18,47955606,27138
32-19,47959512,18031
32-20,47963418,-19933
32-21,47967324,-32768
32-22,47971230,-14046
32-23,47975136,16425
32-24,47979042,23923
32-25,47982948,25321
32-26,47986854,26886
32-27,47990760,-1051
32-28,47994666,-32122
32-29,47998572,-32768
32-30,48002478,-29552
32-31,48006384,-6796
32-32,48010290,18586
32-1,48014202,27995
32-2,48018108,25211
32-3,48022014,-4499
32-4,48025920,-32748
32-5,48029826,-32339
32-6,48033732,-16346
32-7,48037638,11041
32-8,48041544,23914
32-9,48045450,27479
32-10,48049356,20413
32-11,48053262,-17026
32-12,48057168,-32555
32-13,48061074,-10837
32-14,48064980,20529
32-15,48068886,25943
32-16,48072792,22934
32-17,48076698,27717
32-18,48080604,10183
32-19,48084510,-28760
32-20,48088416,-32768
32-21,48092322,-4842
32-22,48096228,21812
32-23,48100134,24582
32-24,48104040,25184
32-25,48107946,25987
32-26,48111852,-4552
32-27,48115758,-32768
32-28,48119664,-31067
32-29,48123570,-17219
32-30,48127476,-1613
32-31,48131382,18271
32-32,48135288,30993
32-1,48139199,18514
32-2,48143105,-17084
32-3,48147011,-32371
32-4,48150917,-31967
32-5,48154823,-15838
32-6,48158729,11128
32-7,48162635,25644
32-8,48166541,29332
32-9,48170447,12004
32-10,48174353,-27437
32-11,48178259,-32005
32-12,48182165,1200
32-13,48186071,25278
32-14,48189977,24140
32-15,48193883,24368
32-16,48197789,27567
32-17,48201695,-64
32-18,48205601,-32768
32-19,48209507,-29126
32-20,48213413,5163
32-21,48217319,25404
32-22,48221225,23633
32-23,48225131,26560
32-24,48229037,21114
32-25,48232943,-12937
32-26,48236849,-32768
32-27,48240755,-31158
32-28,48244661,-3387
32-29,48248567,16382
32-30,48252473,19636
32-31,48256379,27412
32-32,48260285,12087
32-1,48264197,-25136
32-2,48268103,-32559
32-3,48272009,-29989
32-4,48275915,-7747
32-5,48279821,18666
32-6,48283727,27723
32-7,48287633,27299
32-8,48291539,1101
32-9,48295445,-32618
32-10,48299351,-25313
32-11,48303257,10246
32-12,48307163,25808
32-13,48311069,22954
32-14,48314975,27502
32-15,48318881,23697
32-16,48322787,-11916
32-17,48326693,-32768
32-18,48330599,-23938
32-19,48334505,7678
32-20,48338411,23970
32-21,48342317,23134
32-22,48346223,27727
32-23,48350129,14748
32-24,48354035,-25425
32-25,48357941,-32768
32-26,48361847,-14641
32-27,48365753,4963
32-28,48369659,17381
32-29,48373565,20768
32-30,48377471,19804
32-31,48381377,219
32-32,48385283,-29552
32-1,48389255,-32598
32-2,48393161,-25817
32-3,48397067,668
32-4,48400973,22615
32-5,48404879,28079
32-6,48408785,22604
32-7,48412691,-10650
32-8,48416597,-32661
32-9,48420503,-15747
32-10,48424409,16917
32-11,48428315,25508
32-12,48432221,23441
32-13,48436127,28746
32-14,48440033,15510
32-15,48443939,-23979
32-16,48447845,-32768
32-17,48451751,-9495
32-18,48455657,19578
32-19,48459563,24111
32-20,48463469,23931
32-21,48467375,28196
32-22,48471281,4665
32-23,48475187,-32768
32-24,48479093,-32578
32-25,48482999,832
32-26,48486905,21043
32-27,48490811,16592
32-28,48494717,23632
32-29,48498623,20235
32-30,48502529,-17005
32-31,48506435,-32768
32-32,48510341,-32359
32-1,48514192,-25464
32-2,48518098,-830
32-3,48522004,20429
32-4,48525910,28214
32-5,48529816,16223
32-6,48533722,-21752
32-7,48537628,-32167
32-8,48541534,-4383
32-9,48545440,23208
32-10,48549346,25509
32-11,48553252,24905
32-12,48557158,28186
32-13,48561064,5412
32-14,48564970,-31386
32-15,48568876,-32661
32-16,48572782,-5499
32-17,48576688,20394
32-18,48580594,24276
32-19,48584500,25795
32-20,48588406,25240
32-21,48592312,-8659
32-22,48596218,-32768
32-23,48600124,-16595
32-24,48604030,16784
32-25,48607936,26035
32-26,48611842,20002
32-27,48615748,22416
32-28,48619654,14335
32-29,48623560,-19053
32-30,48627466,-32768
32-31,48631372,-32359
32-32,48635278,-15417
32-1,48639190,10577
32-2,48643096,24962
32-3,48647002,27668
32-4,48650908,7754
32-5,48654814,-29744
32-6,48658720,-32279
32-7,48662626,-2859
32-8,48666532,22846
32-9,48670438,24665
32-10,48674344,24900
32-11,48678250,25296
32-12,48682156,-5196
32-13,48686062,-32768
32-14,48689968,-25352
32-15,48693874,8445
32-16,48697780,25260
32-17,48701686,23606
32-18,48705592,26961
32-19,48709498,18095
32-20,48713404,-19648
32-21,48717310,-32768
32-22,48721216,-14075
32-23,48725122,16245
32-24,48729028,23721
32-25,48732934,25299
32-26,48736840,26596
32-27,48740746,-1438
32-28,48744652,-32115
32-29,48748558,-32768
32-30,48752464,-29491
32-31,48756370,-6122
32-32,48760276,19223
32-1,48764187,27581
32-2,48768093,24699
32-3,48771999,-4265
32-4,48775905,-32756
32-5,48779811,-32347
32-6,48783717,-6680
32-7,48787623,19047
32-8,48791529,24060
32-9,48795435,26632
32-10,48799341,20805
32-11,48803247,-16246
32-12,48807153,-32768
32-13,48811059,-17034
32-14,48814965,15624
32-15,48818871,25623
32-16,48822777,22799
32-17,48826683,26988
32-18,48830589,10010
32-19,48834495,-28846
32-20,48838401,-32768
32-21,48842307,-5612
32-22,48846213,21197
32-23,48850119,24372
32-24,48854025,24637
32-25,48857931,25709
32-26,48861837,-4068
32-27,48865743,-32768
32-28,48869649,-31231
32-29,48873555,-17491
32-30,48877461,-2313
32-31,48881367,17623
32-32,48885273,30996
32-1,48889185,18606
32-2,48893091,-17394
32-3,48896997,-32347
32-4,48900903,-31943
32-5,48904809,-19697
32-6,48908715,7063
32-7,48912621,24714
32-8,48916527,29471
32-9,48920433,12120
32-10,48924339,-27102
32-11,48928245,-31878
32-12,48932151,962
32-13,48936057,25205
32-14,48939963,24361
32-15,48943869,24616
32-16,48947775,28176
32-17,48951681,721
32-18,48955587,-32768
32-19,48959493,-28872
32-20,48963399,5656
32-21,48967305,25577
32-22,48971211,23614
32-23,48975117,26382
32-24,48979023,20776
32-25,48982929,-13078
32-26,48986835,-32768
32-27,48990741,-31516
32-28,48994647,-3819
32-29,48998553,16128
32-30,49002459,19343
32-31,49006365,27487
32-32,49010271,12280
32-1,49014183,-25340
32-2,49018089,-32544
32-3,49021995,-30343
32-4,49025901,-10201
32-5,49029807,16486
32-6,49033713,27716
32-7,49037619,27485
32-8,49041525,627
32-9,49045431,-32537
32-10,49049337,-25377
32-11,49053243,9987
32-12,49057149,25750
32-13,49061055,22946
32-14,49064961,27354
32-15,49068867,23838
32-16,49072773,-12443
32-17,49076679,-32768
32-18,49080585,-19542
32-19,49084491,14145
32-20,49088397,25596
32-21,49092303,22142
32-22,49096209,27749
32-23,49100115,14578
32-24,49104021,-25911
32-25,49107927,-32768
32-26,49111833,-12206
32-27,49115739,8398
32-28,49119645,18790
32-29,49123551,20921
32-30,49127457,20744
32-31,49131363,-67
32-32,49135269,-30473
32-1,49139272,-32687
32-2,49143178,-30326
32-3,49147084,-14247
32-4,49150990,12092
32-5,49154896,27575
32-6,49158802,22154
32-7,49162708,-12142
32-8,49166614,-32345
32-9,49170520,-15670
32-10,49174426,16757
32-11,49178332,25541
32-12,49182238,23491
32-13,49186144,28966
32-14,49190050,15596
32-15,49193956,-23791
32-16,49197862,-32768
32-17,49201768,-10064
32-18,49205674,18917
32-19,49209580,23931
32-20,49213486,23584
32-21,49217392,28079
32-22,49221298,4794
32-23,49225204,-32768
32-24,49229110,-32049
32-25,49233016,3754
32-26,49236922,22379
32-27,49240828,16316
32-28,49244734,23571
32-29,49248640,20496
32-30,49252546,-16711
32-31,49256452,-32768
32-32,49260358,-32359
32-1,49264178,-26165
32-2,49268084,-2316
32-3,49271990,19837
32-4,49275896,28424
32-5,49279802,16268
32-6,49283708,-21667
32-7,49287614,-32136
32-8,49291520,-5260
32-9,49295426,23079
32-10,49299332,26020
32-11,49303238,25124
32-12,49307144,28981
32-13,49311050,6231
32-14,49314956,-31695
32-15,49318862,-31961
32-16,49322768,485
32-17,49326674,23152
32-18,49330580,24077
32-19,49334486,26290
32-20,49338392,25484
32-21,49342298,-7770
32-22,49346204,-32768
32-23,49350110,-22336
32-24,49354016,11098
32-25,49357922,26098
32-26,49361828,20847
32-27,49365734,21440
32-28,49369640,14276
32-29,49373546,-18491
32-30,49377452,-32768
32-31,49381358,-32359
32-32,49385264,-15841
32-1,49389176,10267
32-2,49393082,24877
32-3,49396988,28032
32-4,49400894,8092
32-5,49404800,-30113
32-6,49408706,-31603
32-7,49412612,2843
32-8,49416518,25269
32-9,49420424,24218
32-10,49424330,25031
32-11,49428236,25467
32-12,49432142,-5157
32-13,49436048,-32768
32-14,49439954,-25267
32-15,49443860,8500
32-16,49447766,25114
32-17,49451672,23761
32-18,49455578,27320
32-19,49459484,18417
32-20,49463390,-18258
32-21,49467296,-32768
32-22,49471202,-20297
32-23,49475108,10918
32-24,49479014,23661
32-25,49482920,25822
32-26,49486826,26650
32-27,49490732,-723
32-28,49494638,-31910
32-29,49498544,-32768
32-30,49502450,-30004
32-31,49506356,-8307
32-32,49510262,17757
32-1,49514173,27794
32-2,49518079,25201
32-3,49521985,-3825
32-4,49525891,-32719
32-5,49529797,-32310
32-6,49533703,-7037
32-7,49537609,18940
32-8,49541515,24297
32-9,49545421,26807
32-10,49549327,21433
32-11,49553233,-16582
32-12,49557139,-32757
32-13,49561045,-10154
32-14,49564951,20936
32-15,49568857,25631
32-16,49572763,22989
32-17,49576669,27715
32-18,49580575,10238
32-19,49584481,-27814
32-20,49588387,-32768
32-21,49592293,-11176
32-22,49596199,17780
32-23,49600105,24849
32-24,49604011,24756
32-25,49607917,25469
32-26,49611823,-3393
32-27,49615729,-32768
32-28,49619635,-31254
32-29,49623541,-16886
32-30,49627447,-2094
32-31,49631353,17368
32-32,49635259,30719
32-1,49639171,18647
32-2,49643077,-16708
32-3,49646983,-32359
32-4,49650889,-31593
32-5,49654795,-10083
32-6,49658701,16003
32-7,49662607,25965
32-8,49666513,28994
32-9,49670419,13003
32-10,49674325,-26340
32-11,49678231,-32157
32-12,49682137,-5334
32-13,49686043,22188
32-14,49689949,24767
32-15,49693855,24271
32-16,49697761,27753
32-17,49701667,766
32-18,49705573,-32768
32-19,49709479,-29092
32-20,49713385,5281
32-21,49717291,25438
32-22,49721197,23812
32-23,49725103,26574
32-24,49729009,21078
32-25,49732915,-12788
32-26,49736821,-32768
32-27,49740727,-31494
32-28,49744633,-3786
32-29,49748539,16343
32-30,49752445,19608
32-31,49756351,27453
32-32,49760257,12578
32-1,49764168,-24962
32-2,49768074,-32558
32-3,49771980,-30350
32-4,49775886,-10170
32-5,49779792,16437
32-6,49783698,27605
32-7,49787604,27681
32-8,49791510,1194
32-9,49795416,-32558
32-10,49799322,-25245
32-11,49803228,10167
32-12,49807134,25544
32-13,49811040,22551
32-14,49814946,26995
32-15,49818852,23844
32-16,49822758,-12066
32-17,49826664,-32768
32-18,49830570,-20177
32-19,49834476,13368
32-20,49838382,25501
32-21,49842288,22138
32-22,49846194,27587
32-23,49850100,14798
32-24,49854006,-25704
32-25,49857912,-32768
32-26,49861818,-12848
32-27,49865724,7109
32-28,49869630,18121
32-29,49873536,21279
32-30,49877442,21232
32-31,49881348,178
32-32,49885254,-30366
32-1,49889288,-32670
32-2,49893194,-29485
32-3,49897100,-10703
32-4,49901006,15283
32-5,49904912,28206
32-6,49908818,22033
32-7,49912724,-10512
32-8,49916630,-32449
32-9,49920536,-24589
32-10,49924442,7819
32-11,49928348,24763
32-12,49932254,24436
32-13,49936160,28699
32-14,49940066,16286
32-15,49943972,-23419
32-16,49947878,-32721
32-17,49951784,-9717
32-18,49955690,19417
32-19,49959596,24275
32-20,49963502,23755
32-21,49967408,28284
32-22,49971314,5065
32-23,49975220,-32768
32-24,49979126,-32370
32-25,49983032,3491
32-26,49986938,22439
32-27,49990844,15883
32-28,49994750,23027
32-29,49998656,20874
32-30,50002562,-16387
32-31,50006468,-32768
32-32,50010374,-32359
32-1,50014164,-28092
32-2,50018070,-6926
32-3,50021976,17039
32-4,50025882,28377
32-5,50029788,16114
32-6,50033694,-21840
32-7,50037600,-32016
32-8,50041506,-5971
32-9,50045412,22441
32-10,50049318,25983
32-11,50053224,25044
32-12,50057130,28708
32-13,50061036,5885
32-14,50064942,-31849
32-15,50068848,-32058
32-16,50072754,479
32-17,50076660,23385
32-18,50080566,24183
32-19,50084472,26445
32-20,50088378,25477
32-21,50092284,-7804
32-22,50096190,-32768
32-23,50100096,-23684
32-24,50104002,9546
32-25,50107908,25706
32-26,50111814,20759
32-27,50115720,21680
32-28,50119626,14653
32-29,50123532,-18863
32-30,50127438,-32768
32-31,50131344,-32359
32-32,50135250,-20818
32-1,50139161,3051
32-2,50143067,22439
32-3,50146973,28492
32-4,50150879,7550
32-5,50154785,-30464
32-6,50158691,-30878
32-7,50162597,4104
32-8,50166503,26114
32-9,50170409,24373
32-10,50174315,25280
32-11,50178221,25885
32-12,50182127,-4757
32-13,50186033,-32768
32-14,50189939,-25624
32-15,50193845,8240
32-16,50197751,25278
32-17,50201657,23817
32-18,50205563,27368
32-19,50209469,18567
32-20,50213375,-18418
32-21,50217281,-32768
32-22,50221187,-19698
32-23,50225093,10145
32-24,50228999,22676
32-25,50232905,25675
32-26,50236811,26604
32-27,50240717,-928
32-28,50244623,-31995
32-29,50248529,-32767
32-30,50252435,-30925
32-31,50256341,-11009
32-32,50260247,16384
32-1,50264159,28021
32-2,50268065,25297
32-3,50271971,-3586
32-4,50275877,-32662
32-5,50279783,-32254
32-6,50283689,-6438
32-7,50287595,19663
32-8,50291501,24522
32-9,50295407,26507
32-10,50299313,21260
32-11,50303219,-16192
32-12,50307125,-32720
32-13,50311031,-11534
32-14,50314937,20289
32-15,50318843,25952
32-16,50322749,22856
32-17,50326655,27751
32-18,50330561,10992
32-19,50334467,-28123
32-20,50338373,-32768
32-21,50342279,-5483
32-22,50346185,21664
32-23,50350091,24937
32-24,50353997,25221
32-25,50357903,26560
32-26,50361809,-2838
32-27,50365715,-32768
32-28,50369621,-31013
32-29,50373527,-16018
32-30,50377433,-769
32-31,50381339,17953
32-32,50385245,30532
32-1,50389157,19310
32-2,50393063,-15784
32-3,50396969,-32414
32-4,50400875,-32009
32-5,50404781,-14714
32-6,50408687,12212
32-7,50412593,25606
32-8,50416499,29016
32-9,50420405,13003
32-10,50424311,-25780
32-11,50428217,-32103
32-12,50432123,-5879
32-13,50436029,21304
32-14,50439935,24675
32-15,50443841,24566
32-16,50447747,27428
32-17,50451653,1031
32-18,50455559,-32768
32-19,50459465,-31599
32-20,50463371,1172
32-21,50467277,24449
32-22,50471183,24578
32-23,50475089,26526
32-24,50478995,21503
32-25,50482901,-12425
32-26,50486807,-32768
32-27,50490713,-26980
32-28,50494619,3100
32-29,50498525,19507
32-30,50502431,19793
32-31,50506337,27688
32-32,50510243,12690
32-1,50514154,-25084
32-2,50518060,-32745
32-3,50521966,-31642
32-4,50525872,-14742
32-5,50529778,12873
32-6,50533684,27147
32-7,50537590,27953
32-8,50541496,785
32-9,50545402,-32618
32-10,50549308,-20774
32-11,50553214,15434
32-12,50557120,26405
32-13,50561026,22293
32-14,50564932,27798
32-15,50568838,24371
32-16,50572744,-10871
32-17,50576650,-32768
32-18,50580556,-24430
32-19,50584462,8708
32-20,50588368,25215
32-21,50592274,23067
32-22,50596180,27778
32-23,50600086,15956
32-24,50603992,-24887
32-25,50607898,-32768
32-26,50611804,-11852
32-27,50615710,8555
32-28,50619616,18693
32-29,50623522,21285
32-30,50627428,21148
32-31,50631334,796
32-32,50635240,-29854
32-1,50639304,-32721
32-2,50643210,-27082
32-3,50647116,-2292
32-4,50651022,20875
32-5,50654928,28077
32-6,50658834,22956
32-7,50662740,-11341
32-8,50666646,-32704
32-9,50670552,-9726
32-10,50674458,21033
32-11,50678364,24738
32-12,50682270,22751
32-13,50686176,28876
32-14,50690082,15243
32-15,50693988,-23174
32-16,50697894,-32768
32-17,50701800,-16008
32-18,50705706,14424
32-19,50709612,24104
32-20,50713518,23762
32-21,50717424,27798
32-22,50721330,5532
32-23,50725236,-32768
32-24,50729142,-32531
32-25,50733048,3229
32-26,50736954,22108
32-27,50740860,16167
32-28,50744766,23098
32-29,50748672,19572
32-30,50752578,-17329
32-31,50756484,-32768
32-32,50760390,-32359
32-1,50764149,-26258
32-2,50768055,-313
32-3,50771961,21668
32-4,50775867,28307
32-5,50779773,16364
32-6,50783679,-20865
32-7,50787585,-32193
32-8,50791491,-7852
32-9,50795397,20826
32-10,50799303,25420
32-11,50803209,24716
32-12,50807115,28182
32-13,50811021,5675
32-14,50814927,-31835
32-15,50818833,-32607
32-16,50822739,-1010
32-17,50826645,22168
32-18,50830551,23622
32-19,50834457,25840
32-20,50838363,25025
32-21,50842269,-7912
32-22,50846175,-32768
32-23,50850081,-23814
32-24,50853987,9500
32-25,50857893,25589
32-26,50861799,20754
32-27,50865705,21388
32-28,50869611,14967
32-29,50873517,-18103
32-30,50877423,-32768
32-31,50881329,-26759
32-32,50885235,2042
32-1,50889147,21051
32-2,50893053,24244
32-3,50896959,26655
32-4,50900865,6324
32-5,50904771,-29662
32-6,50908677,-32660
32-7,50912583,-17256
32-8,50916489,12202
32-9,50920395,24333
32-10,50924301,24619
32-11,50928207,23934
32-12,50932113,-5073
32-13,50936019,-32768
32-14,50939925,-26874
32-15,50943831,6408
32-16,50947737,24535
32-17,50951643,23657
32-18,50955549,26992
32-19,50959455,18404
32-20,50963361,-19162
32-21,50967267,-32768
32-22,50971173,-15078
32-23,50975079,15608
32-24,50978985,23659
32-25,50982891,24838
32-26,50986797,27095
32-27,50990703,-115
32-28,50994609,-32251
32-29,50998515,-32768
32-30,51002421,-31649
32-31,51006327,-19066
32-32,51010233,7471
32-1,51014145,26377
32-2,51018051,25716
32-3,51021957,-4558
32-4,51025863,-32415
32-5,51029769,-31132
32-6,51033675,-570
32-7,51037581,22842
32-8,51041487,24049
32-9,51045393,26654
32-10,51049299,21345
32-11,51053205,-15603
32-12,51057111,-32607
32-13,51061017,-17497
32-14,51064923,15415
32-15,51068829,26059
32-16,51072735,23573
32-17,51076641,27549
32-18,51080547,10738
32-19,51084453,-27509
32-20,51088359,-32768
32-21,51092265,-11114
32-22,51096171,17856
32-23,51100077,24928
32-24,51103983,25238
32-25,51107889,26220
32-26,51111795,-3113
32-27,51115701,-32768
32-28,51119607,-31120
32-29,51123513,-16788
32-30,51127419,-1456
32-31,51131325,17972
32-32,51135231,30883
32-1,51139142,19440
32-2,51143048,-15937
32-3,51146954,-32399
32-4,51150860,-31994
32-5,51154766,-15838
32-6,51158672,11331
32-7,51162578,25437
32-8,51166484,29417
32-9,51170390,13675
32-10,51174296,-26194
32-11,51178202,-32069
32-12,51182108,523
32-13,51186014,25437
32-14,51189920,24518
32-15,51193826,24496
32-16,51197732,28010
32-17,51201638,1463
32-18,51205544,-32768
32-19,51209450,-32207
32-20,51213356,-1710
32-21,51217262,22209
32-22,51221168,24494
32-23,51225074,26457
32-24,51228980,21054
32-25,51232886,-12182
32-26,51236792,-32768
32-27,51240698,-30459
32-28,51244604,-1851
32-29,51248510,17515
32-30,51252416,19921
32-31,51256322,27450
32-32,51260228,12713
32-1,51264140,-24637
32-2,51268046,-32620
32-3,51271952,-30502
32-4,51275858,-9800
32-5,51279764,16931
32-6,51283670,27531
32-7,51287576,27564
32-8,51291482,1837
32-9,51295388,-32635
32-10,51299294,-26202
32-11,51303200,9345
32-12,51307106,25595
32-13,51311012,22716
32-14,51314918,26769
32-15,51318824,24284
32-16,51322730,-10992
32-17,51326636,-32768
32-18,51330542,-20695
32-19,51334448,13615
32-20,51338354,25993
32-21,51342260,22334
32-22,51346166,27743
32-23,51350072,15905
32-24,51353978,-24331
32-25,51357884,-32768
32-26,51361790,-15324
32-27,51365696,4659
32-28,51369602,17263
32-29,51373508,20487
32-30,51377414,19802
32-31,51381320,727
32-32,51385226,-29302
32-1,51389290,-32591
32-2,51393196,-26571
32-3,51397102,-994
32-4,51401008,21804
32-5,51404914,28097
32-6,51408820,22902
32-7,51412726,-10080
32-8,51416632,-32626
32-9,51420538,-15847
32-10,51424444,16781
32-11,51428350,25201
32-12,51432256,23225
32-13,51436162,28780
32-14,51440068,15953
32-15,51443974,-22685
32-16,51447880,-32768
32-17,51451786,-15447
32-18,51455692,15000
32-19,51459598,24246
32-20,51463504,23594
32-21,51467410,28204
32-22,51471316,5778
32-23,51475222,-32768
32-24,51479128,-28551
32-25,51483034,9818
32-26,51486940,24137
32-27,51490846,15759
32-28,51494752,23660
32-29,51498658,20511
32-30,51502564,-16742
32-31,51506470,-32768
32-32,51510376,-32359
32-1,51514135,-29016
32-2,51518041,-8715
32-3,51521947,15871
32-4,51525853,28453
32-5,51529759,16866
32-6,51533665,-21823
32-7,51537571,-31977
32-8,51541477,964
32-9,51545383,25497
32-10,51549289,25080
32-11,51553195,25059
32-12,51557101,28616
32-13,51561007,6144
32-14,51564913,-30712
32-15,51568819,-32588
32-16,51572725,-6430
32-17,51576631,19875
32-18,51580537,24429
32-19,51584443,26133
32-20,51588349,25636
32-21,51592255,-7014
32-22,51596161,-32768
32-23,51600067,-23612
32-24,51603973,9877
32-25,51607879,25724
32-26,51611785,20768
32-27,51615691,21564
32-28,51619597,15094
32-29,51623503,-17921
32-30,51627409,-32768
32-31,51631315,-29138
32-32,51635221,-3315
32-1,51639133,18536
32-2,51643039,24699
32-3,51646945,26741
32-4,51650851,6561
32-5,51654757,-28732
32-6,51658663,-32553
32-7,51662569,-20366
32-8,51666475,9310
32-9,51670381,24690
32-10,51674287,25648
32-11,51678193,24721
32-12,51682099,-4095
32-13,51686005,-32768
32-14,51689911,-26485
32-15,51693817,7073
32-16,51697723,24915
32-17,51701629,23857
32-18,51705535,27162
32-19,51709441,18988
32-20,51713347,-18692
32-21,51717253,-32768
32-22,51721159,-14582
32-23,51725065,16040
32-24,51728971,23533
32-25,51732877,25035
32-26,51736783,26822
32-27,51740689,-909
32-28,51744595,-31981
32-29,51748501,-32768
32-30,51752407,-30162
32-31,51756313,-8451
32-32,51760219,17703
32-1,51764192,27782
32-2,51768098,25729
32-3,51772004,-2985
32-4,51775910,-32731
32-5,51779816,-32322
32-6,51783722,-7731
32-7,51787628,18499
32-8,51791534,24488
32-9,51795440,26857
32-10,51799346,21464
32-11,51803252,-15176
32-12,51807158,-32768
32-13,51811064,-17554
32-14,51814970,15420
32-15,51818876,26102
32-16,51822782,23479
32-17,51826688,27594
32-18,51830594,10982
32-19,51834500,-28175
32-20,51838406,-32768
32-21,51842312,-5810
32-22,51846218,21176
32-23,51850124,24602
32-24,51854030,24992
32-25,51857936,26505
32-26,51861842,-3083
32-27,51865748,-32768
32-28,51869654,-31243
32-29,51873560,-17554
32-30,51877466,-2514
32-31,51881372,17559
32-32,51885278,31149
32-1,51889128,20018
32-2,51893034,-15591
32-3,51896940,-32385
32-4,51900846,-31981
32-5,51904752,-18801
32-6,51908658,8385
32-7,51912564,25119
32-8,51916470,29323
32-9,51920376,12929
32-10,51924282,-26209
32-11,51928188,-31967
32-12,51932094,-823
32-13,51936000,24734
32-14,51939906,24731
32-15,51943812,24400
32-16,51947718,27807
32-17,51951624,1028
32-18,51955530,-32768
32-19,51959436,-29620
32-20,51963342,4632
32-21,51967248,25410
32-22,51971154,23951
32-23,51975060,26539
32-24,51978966,21091
32-25,51982872,-12567
32-26,51986778,-32768
32-27,51990684,-31797
32-28,51994590,-4513
32-29,51998496,15726
32-30,52002402,19386
32-31,52006308,27608
32-32,52010214,12845
32-1,52014126,-24817
32-2,52018032,-32542
32-3,52021938,-30619
32-4,52025844,-11075
32-5,52029750,15860
32-6,52033656,27780
32-7,52037562,27989
32-8,52041468,1822
32-9,52045374,-32535
32-10,52049280,-26699
32-11,52053186,8474
32-12,52057092,25579
32-13,52060998,23108
32-14,52064904,27152
32-15,52068810,24533
32-16,52072716,-11000
32-17,52076622,-32768
32-18,52080528,-21159
32-19,52084434,12624
32-20,52088340,25718
32-21,52092246,22436
32-22,52096152,27751
32-23,52100058,15958
32-24,52103964,-24065
32-25,52107870,-32768
32-26,52111776,-18374
32-27,52115682,-96
32-28,52119588,15355
32-29,52123494,21091
32-30,52127400,19972
32-31,52131306,912
32-32,52135212,-28827
32-1,52139307,-32487
32-2,52143213,-26322
32-3,52147119,-236
32-4,52151025,22333
32-5,52154931,28357
32-6,52158837,23326
32-7,52162743,-9537
32-8,52166649,-32558
32-9,52170555,-16435
32-10,52174461,16711
32-11,52178367,25707
32-12,52182273,23488
32-13,52186179,29144
32-14,52190085,16811
32-15,52193991,-22966
32-16,52197897,-32768
32-17,52201803,-9591
32-18,52205709,19694
32-19,52209615,24185
32-20,52213521,23413
32-21,52217427,28254
32-22,52221333,6172
32-23,52225239,-32505
32-24,52229145,-32768
32-25,52233051,333
32-26,52236957,21016
32-27,52240863,16372
32-28,52244769,23087
32-29,52248675,20422
32-30,52252581,-16367
32-31,52256487,-32768
32-32,52260393,-32359
32-1,52264121,-26313
32-2,52268027,-2206
32-3,52271933,20042
32-4,52275839,28225
32-5,52279745,16619
32-6,52283651,-20881
32-7,52287557,-32150
32-8,52291463,-5814
32-9,52295369,22545
32-10,52299275,25595
32-11,52303181,24705
32-12,52307087,28379
32-13,52310993,6750
32-14,52314899,-30424
32-15,52318805,-32647
32-16,52322711,-6948
32-17,52326617,19545
32-18,52330523,24309
32-19,52334429,25986
32-20,52338335,25832
32-21,52342241,-6545
32-22,52346147,-32768
32-23,52350053,-23186
32-24,52353959,9665
32-25,52357865,25657
32-26,52361771,20344
32-27,52365677,19981
32-28,52369583,14098
32-29,52373489,-17688
32-30,52377395,-32768
32-31,52381301,-32359
32-32,52385207,-14555
32-1,52389241,11997
32-2,52393147,25111
32-3,52397053,27795
32-4,52400959,8868
32-5,52404865,-29662
32-6,52408771,-31572
32-7,52412677,3231
32-8,52416583,25499
32-9,52420489,24431
32-10,52424395,25336
32-11,52428301,25499
32-12,52432207,-4094
32-13,52436113,-32768
32-14,52440019,-29879
32-15,52443925,1613
32-16,52447831,23656
32-17,52451737,24704
32-18,52455643,27425
32-19,52459549,20044
32-20,52463455,-18656
32-21,52467361,-32768
32-22,52471267,-7339
32-23,52475173,21258
32-24,52479079,23545
32-25,52482985,24741
32-26,52486891,27442
32-27,52490797,-403
32-28,52494703,-32290
32-29,52498609,-32768
32-30,52502515,-31755
32-31,52506421,-18713
32-32,52510327,8157
32-1,52514116,26590
32-2,52518022,25921
32-3,52521928,-3568
32-4,52525834,-32444
32-5,52529740,-32039
32-6,52533646,-6476
32-7,52537552,19967
32-8,52541458,24980
32-9,52545364,26936
32-10,52549270,21822
32-11,52553176,-14754
32-12,52557082,-32546
32-13,52560988,-16851
32-14,52564894,16085
32-15,52568800,26186
32-16,52572706,23388
32-17,52576612,27653
32-18,52580518,11415
32-19,52584424,-27782
32-20,52588330,-32768
32-21,52592236,-5292
32-22,52596142,21382
32-23,52600048,24480
32-24,52603954,24971
32-25,52607860,26647
32-26,52611766,-2631
32-27,52615672,-32768
32-28,52619578,-31430
32-29,52623484,-17297
32-30,52627390,-2590
32-31,52631296,16992
32-32,52635202,30818
32-1,52639114,19738
32-2,52643020,-15784
32-3,52646926,-32367
32-4,52650832,-31963
32-5,52654738,-15265
32-6,52658644,11743
32-7,52662550,25295
32-8,52666456,29344
32-9,52670362,14093
32-10,52674268,-25939
32-11,52678174,-32057
32-12,52682080,794
32-13,52685986,25598
32-14,52689892,24779
32-15,52693798,24550
32-16,52697704,28211
32-17,52701610,1649
32-18,52705516,-32768
32-19,52709422,-29442
32-20,52713328,4992
32-21,52717234,25741
32-22,52721140,24348
32-23,52725046,26911
32-24,52728952,21804
32-25,52732858,-11946
32-26,52736764,-32768
32-27,52740670,-31567
32-28,52744576,-4010
32-29,52748482,16233
32-30,52752388,19749
32-31,52756294,27875
32-32,52760200,13417
32-1,52764112,-24523
32-2,52768018,-32576
32-3,52771924,-31534
32-4,52775830,-15195
32-5,52779736,12456
32-6,52783642,27673
32-7,52787548,28540
32-8,52791454,1998
32-9,52795360,-32470
32-10,52799266,-26183
32-11,52803172,9385
32-12,52807078,25969
32-13,52810984,23030
32-14,52814890,27157
32-15,52818796,24935
32-16,52822702,-10579
32-17,52826608,-32768
32-18,52830514,-20840
32-19,52834420,13340
32-20,52838326,26307
32-21,52842232,22713
32-22,52846138,27902
32-23,52850044,16107
32-24,52853950,-24503
32-25,52857856,-32768
32-26,52861762,-13233
32-27,52865668,7071
32-28,52869574,18464
32-29,52873480,21423
32-30,52877386,21371
32-31,52881292,1147
32-32,52885198,-29816
32-1,52889292,-32692
32-2,52893198,-29579
32-3,52897104,-10793
32-4,52901010,15224
32-5,52904916,28425
32-6,52908822,23345
32-7,52912728,-10667
32-8,52916634,-32486
32-9,52920540,-15497
32-10,52924446,17409
32-11,52928352,25689
32-12,52932258,23398
32-13,52936164,29292
32-14,52940070,16817
32-15,52943976,-23018
32-16,52947882,-32768
32-17,52951788,-9450
32-18,52955694,20206
32-19,52959600,24572
32-20,52963506,23679
32-21,52967412,28472
32-22,52971318,5994
32-23,52975224,-32768
32-24,52979130,-32768
32-25,52983036,1787
32-26,52986942,21493
32-27,52990848,15735
32-28,52994754,22907
32-29,52998660,20940
32-30,53002566,-15923
32-31,53006472,-32768
32-32,53010378,-32359
32-1,53014229,-26634
32-2,53018135,-3193
32-3,53022041,19388
32-4,53025947,28386
32-5,53029853,16862
32-6,53033759,-20765
32-7,53037665,-32132
32-8,53041571,-6426
32-9,53045477,22181
32-10,53049383,25733
32-11,53053289,24748
32-12,53057195,28713
32-13,53061101,6839
32-14,53065007,-31180
32-15,53068913,-32616
32-16,53072819,-505
32-17,53076725,22709
32-18,53080631,23667
32-19,53084537,25982
32-20,53088443,25712
32-21,53092349,-6416
32-22,53096255,-32768
32-23,53100161,-27725
32-24,53104067,2804
32-25,53107973,23543
32-26,53111879,21188
32-27,53115785,19951
32-28,53119691,14139
32-29,53123597,-17182
32-30,53127503,-32768
32-31,53131409,-32359
32-32,53135315,-14435
32-1,53139104,12181
32-2,53143010,25101
32-3,53146916,27697
32-4,53150822,9130
32-5,53154728,-29344
32-6,53158634,-32336
32-7,53162540,1981
32-8,53166446,25297
32-9,53170352,24561
32-10,53174258,24884
32-11,53178164,25662
32-12,53182070,-4168
32-13,53185976,-32768
32-14,53189882,-25706
32-15,53193788,8239
32-16,53197694,25298
32-17,53201600,23777
32-18,53205506,27205
32-19,53209412,19514
32-20,53213318,-17879
32-21,53217224,-32768
32-22,53221130,-15233
32-23,53225036,15910
32-24,53228942,23576
32-25,53232848,24641
32-26,53236754,27171
32-27,53240660,262
32-28,53244566,-32008
32-29,53248472,-32768
32-30,53252378,-31722
32-31,53256284,-19054
32-32,53260190,7598
32-1,53264102,26397
32-2,53268008,26234
32-3,53271914,-3084
32-4,53275820,-32441
32-5,53279726,-32036
32-6,53283632,-5892
32-7,53287538,20586
32-8,53291444,24918
32-9,53295350,26787
32-10,53299256,22496
32-11,53303162,-14995
32-12,53307068,-32561
32-13,53310974,-10526
32-14,53314880,21144
32-15,53318786,26276
32-16,53322692,23359
32-17,53326598,27801
32-18,53330504,11121
32-19,53334410,-26827
32-20,53338316,-32768
32-21,53342222,-11810
32-22,53346128,17403
32-23,53350034,24983
32-24,53353940,25080
32-25,53357846,26251
32-26,53361752,-2449
32-27,53365658,-32768
32-28,53369564,-30288
32-29,53373470,-13577
32-30,53377376,1256
32-31,53381282,18238
32-32,53385188,30478
32-1,53389100,20168
32-2,53393006,-15308
32-3,53396912,-32499
32-4,53400818,-32093
32-5,53404724,-19883
32-6,53408630,6804
32-7,53412536,24256
32-8,53416442,29670
32-9,53420348,13764
32-10,53424254,-26265
32-11,53428160,-30519
32-12,53432066,6120
32-13,53435972,27372
32-14,53439878,24047
32-15,53443784,24705
32-16,53447690,27986
32-17,53451596,1941
32-18,53455502,-32768
32-19,53459408,-32359
32-20,53463314,-1572
32-21,53467220,23310
32-22,53471126,24960
32-23,53475032,26434
32-24,53478938,21618
32-25,53482844,-11345
32-26,53486750,-32768
32-27,53490656,-31999
32-28,53494562,-4751
32-29,53498468,15874
32-30,53502374,19991
32-31,53506280,28132
32-32,53510186,13334
32-1,53514097,-24770
32-2,53518003,-32559
32-3,53521909,-31439
32-4,53525815,-15193
32-5,53529721,12313
32-6,53533627,27309
32-7,53537533,28849
32-8,53541439,1860
32-9,53545345,-32451
32-10,53549251,-20927
32-11,53553157,15703
32-12,53557063,27038
32-13,53560969,22479
32-14,53564875,27495
32-15,53568781,24632
32-16,53572687,-10021
32-17,53576593,-32768
32-18,53580499,-25358
32-19,53584405,7725
32-20,53588311,25283
32-21,53592217,23351
32-22,53596123,27861
32-23,53600029,16840
32-24,53603935,-23932
32-25,53607841,-32768
32-26,53611747,-12718
32-27,53615653,7922
32-28,53619559,19047
32-29,53623465,21654
32-30,53627371,21449
32-31,53631277,1688
32-32,53635183,-29382
32-1,53639431,-32732
32-2,53643337,-27217
32-3,53647243,-2647
32-4,53651149,20937
32-5,53655055,28349
32-6,53658961,23114
32-7,53662867,-9926
32-8,53666773,-32733
32-9,53670679,-17455
32-10,53674585,15292
32-11,53678491,24995
32-12,53682397,23082
32-13,53686303,28765
32-14,53690209,16742
32-15,53694115,-22922
32-16,53698021,-32768
32-17,53701927,-10588
32-18,53705833,19259
32-19,53709739,24589
32-20,53713645,23565
32-21,53717551,28424
32-22,53721457,6418
32-23,53725363,-32657
32-24,53729269,-32768
32-25,53733175,2119
32-26,53737081,22086
32-27,53740987,16335
32-28,53744893,22793
32-29,53748799,20328
32-30,53752705,-15842
32-31,53756611,-32768
32-32,53760517,-32359
32-1,53764093,-23599
32-2,53767999,4291
32-3,53771905,23640
32-4,53775811,28387
32-5,53779717,17409
32-6,53783623,-20013
32-7,53787529,-32334
32-8,53791435,-8248
32-9,53795341,20518
32-10,53799247,25161
32-11,53803153,24530
32-12,53807059,28318
32-13,53810965,6393
32-14,53814871,-31341
32-15,53818777,-32749
32-16,53822683,-2970
32-17,53826589,21163
32-18,53830495,23571
32-19,53834401,25738
32-20,53838307,25478
32-21,53842213,-6943
32-22,53846119,-32768
32-23,53850025,-24544
32-24,53853931,9032
32-25,53857837,25817
32-26,53861743,20547
32-27,53865649,21405
32-28,53869555,15322
32-29,53873461,-17909
32-30,53877367,-32768
32-31,53881273,-32359
32-32,53885179,-18054
32-1,53889090,8105
32-2,53892996,24349
32-3,53896902,27890
32-4,53900808,8418
32-5,53904714,-29473
32-6,53908620,-32222
32-7,53912526,931
32-8,53916432,24675
32-9,53920338,24719
32-10,53924244,25211
32-11,53928150,25593
32-12,53932056,-4302
32-13,53935962,-32768
32-14,53939868,-27243
32-15,53943774,5731
32-16,53947680,24339
32-17,53951586,23855
32-18,53955492,27197
32-19,53959398,19302
32-20,53963304,-18018
32-21,53967210,-32768
32-22,53971116,-15764
32-23,53975022,15197
32-24,53978928,23393
32-25,53982834,24420
32-26,53986740,27049
32-27,53990646,465
32-28,53994552,-31959
32-29,53998458,-32768
32-30,54002364,-31662
32-31,54006270,-18982
32-32,54010176,7517
32-1,54014088,26102
32-2,54017994,26282
32-3,54021900,-3087
32-4,54025806,-32438
32-5,54029712,-31300
32-6,54033618,-448
32-7,54037524,23181
32-8,54041430,24475
32-9,54045336,26895
32-10,54049242,22013
32-11,54053148,-13866
32-12,54057054,-32672
32-13,54060960,-22479
32-14,54064866,9259
32-15,54068772,24824
32-16,54072678,24028
32-17,54076584,26931
32-18,54080490,11288
32-19,54084396,-26941
32-20,54088302,-32768
32-21,54092208,-9966
32-22,54096114,18510
32-23,54100020,24669
32-24,54103926,24634
32-25,54107832,27407
32-26,54111738,-3614
32-27,54115644,-32768
32-28,54119550,-10636
32-29,54123456,16477
32-30,54127362,18487
32-31,54131268,20810
32-32,54135174,28717
32-1,54139086,21068
32-2,54142992,-14058
32-3,54146898,-32768
32-4,54150804,-31648
32-5,54154710,-30821
32-6,54158616,-30412
32-7,54162522,-8522
32-8,54166428,22532
32-9,54170334,14402
32-10,54174240,-26516
32-11,54178146,-29138
32-12,54182052,6028
32-13,54185958,26683
32-14,54189864,24635
32-15,54193770,24914
32-16,54197676,28411
32-17,54201582,2588
32-18,54205488,-32278
32-19,54209394,-28789
32-20,54213300,6525
32-21,54217206,26612
32-22,54221112,24301
32-23,54225018,26952
32-24,54228924,22323
32-25,54232830,-10746
32-26,54236736,-32717
32-27,54240642,-32309
32-28,54244548,-9022
32-29,54248454,12857
32-30,54252360,19993
32-31,54256266,28101
32-32,54260172,13497
32-1,54264083,-23930
32-2,54267989,-32426
32-3,54271895,-28665
32-4,54275801,-4859
32-5,54279707,19773
32-6,54283613,27277
32-7,54287519,28153
32-8,54291425,3201
32-9,54295331,-32585
32-10,54299237,-26002
32-11,54303143,10064
32-12,54307049,26059
32-13,54310955,22772
32-14,54314861,26895
32-15,54318767,24423
32-16,54322673,-9974
32-17,54326579,-32768
32-18,54330485,-25485
32-19,54334391,7674
32-20,54338297,25354
32-21,54342203,23047
32-22,54346109,27531
32-23,54350015,16944
32-24,54353921,-24315
32-25,54357827,-32768
32-26,54361733,-5615
32-27,54365639,14114
32-28,54369545,20055
32-29,54373451,20751
32-30,54377357,21565
32-31,54381263,1994
32-32,54385169,-29503
32-1,54389264,-32768
32-2,54393170,-30824
32-3,54397076,-13195
32-4,54400982,14512
32-5,54404888,28893
32-6,54408794,24100
32-7,54412700,-10141
32-8,54416606,-32528
32-9,54420512,-11006
32-10,54424418,20679
32-11,54428324,25290
32-12,54432230,22960
32-13,54436136,29162
32-14,54440042,16620
32-15,54443948,-21831
32-16,54447854,-32768
32-17,54451760,-16697
32-18,54455666,14176
32-19,54459572,24259
32-20,54463478,23581
32-21,54467384,27896
32-22,54471290,6777
32-23,54475196,-32363
32-24,54479102,-32768
32-25,54483008,1750
32-26,54486914,21858
32-27,54490820,16690
32-28,54494726,23197
32-29,54498632,20591
32-30,54502538,-16064
32-31,54506444,-32768
32-32,54510350,-32359
32-1,54514078,-27310
32-2,54517984,-4340
32-3,54521890,18583
32-4,54525796,28424
32-5,54529702,17113
32-6,54533608,-21322
32-7,54537514,-32096
32-8,54541420,1029
32-9,54545326,25328
32-10,54549232,24694
32-11,54553138,25021
32-12,54557044,28969
32-13,54560950,6777
32-14,54564856,-30354
32-15,54568762,-32715
32-16,54572668,-7739
32-17,54576574,18957
32-18,54580480,24208
32-19,54584386,25923
32-20,54588292,26007
32-21,54592198,-5977
32-22,54596104,-32768
32-23,54600010,-24711
32-24,54603916,8902
32-25,54607822,25845
32-26,54611728,20806
32-27,54615634,21636
32-28,54619540,15847
32-29,54623446,-17212
32-30,54627352,-32768
32-31,54631258,-32198
32-32,54635164,-12019
32-1,54639076,13707
32-2,54642982,24806
32-3,54646888,27195
32-4,54650794,9071
32-5,54654700,-28772
32-6,54658606,-32384
32-7,54662512,-4936
32-8,54666418,21953
32-9,54670324,24933
32-10,54674230,24663
32-11,54678136,25318
32-12,54682042,-4085
32-13,54685948,-32768
32-14,54689854,-26830
32-15,54693760,6453
32-16,54697666,24592
32-17,54701572,23727
32-18,54705478,27224
32-19,54709384,19529
32-20,54713290,-17994
32-21,54717196,-32768
32-22,54721102,-15607
32-23,54725008,15428
32-24,54728914,23517
32-25,54732820,24654
32-26,54736726,27193
32-27,54740632,862
32-28,54744538,-31178
32-29,54748444,-32768
32-30,54752350,-29961
32-31,54756256,-7950
32-32,54760162,17827
32-1,54764074,27393
32-2,54767980,25828
32-3,54771886,-1951
32-4,54775792,-32751
32-5,54779698,-32342
32-6,54783604,-8002
32-7,54787510,18548
32-8,54791416,24338
32-9,54795322,26162
32-10,54799228,21063
32-11,54803134,-14767
32-12,54807040,-32768
32-13,54810946,-18749
32-14,54814852,14298
32-15,54818758,25779
32-16,54822664,23248
32-17,54826570,27091
32-18,54830476,11051
32-19,54834382,-27747
32-20,54838288,-32768
32-21,54842194,-6522
32-22,54846100,20786
32-23,54850006,24546
32-24,54853912,25171
32-25,54857818,27040
32-26,54861724,-2294
32-27,54865630,-32768
32-28,54869536,-31545
32-29,54873442,-18066
32-30,54877348,-2820
32-31,54881254,17323
32-32,54885160,30797
32-1,54889071,20168
32-2,54892977,-14975
32-3,54896883,-32373
32-4,54900789,-31968
32-5,54904695,-15545
32-6,54908601,11645
32-7,54912507,25054
32-8,54916413,28746
32-9,54920319,14223
32-10,54924225,-25246
32-11,54928131,-32056
32-12,54932037,-1377
32-13,54935943,24691
32-14,54939849,24822
32-15,54943755,24147
32-16,54947661,27874
32-17,54951567,2102
32-18,54955473,-32768
32-19,54959379,-30505
32-20,54963285,3007
32-21,54967191,24790
32-22,54971097,24168
32-23,54975003,26497
32-24,54978909,21681
32-25,54982815,-11378
32-26,54986721,-32768
32-27,54990627,-32359
32-28,54994533,-11306
32-29,54998439,8080
32-30,55002345,16114
32-31,55006251,27510
32-32,55010157,13937
32-1,55014069,-23856
32-2,55017975,-32338
32-3,55021881,-30143
32-4,55025787,-9123
32-5,55029693,17526
32-6,55033599,27690
32-7,55037505,28320
32-8,55041411,3515
32-9,55045317,-32408
32-10,55049223,-26518
32-11,55053129,9758
32-12,55057035,26543
32-13,55060941,23111
32-14,55064847,27050
32-15,55068753,25662
32-16,55072659,-9427
32-17,55076565,-32768
32-18,55080471,-20580
32-19,55084377,13931
32-20,55088283,26436
32-21,55092189,22549
32-22,55096095,27780
32-23,55100001,16842
32-24,55103907,-23674
32-25,55107813,-32768
32-26,55111719,-12858
32-27,55115625,7879
32-28,55119531,18933
32-29,55123437,21096
32-30,55127343,20855
32-31,55131249,2258
32-32,55135155,-28735
32-1,55139250,-32729
32-2,55143156,-27408
32-3,55147062,-2861
32-4,55150968,20818
32-5,55154874,28223
32-6,55158780,23526
32-7,55162686,-8875
32-8,55166592,-32740
32-9,55170498,-17473
32-10,55174404,15661
32-11,55178310,24872
32-12,55182216,22634
32-13,55186122,28295
32-14,55190028,16697
32-15,55193934,-21657
32-16,55197840,-32768
32-17,55201746,-16804
32-18,55205652,13959
32-19,55209558,23996
32-20,55213464,22992
32-21,55217370,27836
32-22,55221276,7035
32-23,55225182,-32638
32-24,55229088,-30211
32-25,55232994,8125
32-26,55236900,23884
32-27,55240806,15867
32-28,55244712,23094
32-29,55248618,20322
32-30,55252524,-16409
32-31,55256430,-32768
32-32,55260336,-32359
32-1,55264064,-28789
32-2,55267970,-5859
32-3,55271876,19092
32-4,55275782,28814
32-5,55279688,17277
32-6,55283594,-20308
32-7,55287500,-32085
32-8,55291406,-3278
32-9,55295312,23251
32-10,55299218,25026
32-11,55303124,24792
32-12,55307030,28615
32-13,55310936,7189
32-14,55314842,-30005
32-15,55318748,-32632
32-16,55322654,-7749
32-17,55326560,18939
32-18,55330466,24035
32-19,55334372,25323
32-20,55338278,26031
32-21,55342184,-6184
32-22,55346090,-32768
32-23,55349996,-19227
32-24,55353902,15162
32-25,55357808,26448
32-26,55361714,19554
32-27,55365620,21251
32-28,55369526,15689
32-29,55373432,-17050
32-30,55377338,-32768
32-31,55381244,-32359
32-32,55385150,-16807
32-1,55389062,9331
32-2,55392968,24421
32-3,55396874,27575
32-4,55400780,9268
32-5,55404686,-28218
32-6,55408592,-32277
32-7,55412498,-5687
32-8,55416404,21412
32-9,55420310,25042
32-10,55424216,24808
32-11,55428122,25403
32-12,55432028,-3691
32-13,55435934,-32768
32-14,55439840,-27163
32-15,55443746,5909
32-16,55447652,24281
32-17,55451558,23646
32-18,55455464,27072
32-19,55459370,19653
32-20,55463276,-17653
32-21,55467182,-32768
32-22,55471088,-15670
32-23,55474994,15239
32-24,55478900,23228
32-25,55482806,24313
32-26,55486712,26708
32-27,55490618,139
32-28,55494524,-31854
32-29,55498430,-32768
32-30,55502336,-31645
32-31,55506242,-17865
32-32,55510148,8577
32-1,55514059,25906
32-2,55517965,25861
32-3,55521871,-2609
32-4,55525777,-32464
32-5,55529683,-32059
32-6,55533589,-7610
32-7,55537495,19475
32-8,55541401,24979
32-9,55545307,26739
32-10,55549213,22415
32-11,55553119,-13600
32-12,55557025,-32564
32-13,55560931,-17903
32-14,55564837,15401
32-15,55568743,26450
32-16,55572649,23733
32-17,55576555,27805
32-18,55580461,12085
32-19,55584367,-27100
32-20,55588273,-32768
32-21,55592179,-6511
32-22,55596085,20747
32-23,55599991,24544
32-24,55603897,24983
32-25,55607803,26936
32-26,55611709,-2103
32-27,55615615,-32768
32-28,55619521,-31662
32-29,55623427,-18733
32-30,55627333,-4265
32-31,55631239,16262
32-32,55635145,30544
32-1,55639057,20031
32-2,55642963,-15172
32-3,55646869,-32324
32-4,55650775,-31920
32-5,55654681,-16110
32-6,55658587,11001
32-7,55662493,25008
32-8,55666399,29079
32-9,55670305,14554
32-10,55674211,-25181
32-11,55678117,-32003
32-12,55682023,-765
32-13,55685929,25066
32-14,55689835,24972
32-15,55693741,24229
32-16,55697647,27933
32-17,55701553,2300
32-18,55705459,-32768
32-19,55709365,-30572
32-20,55713271,3129
32-21,55717177,24966
32-22,55721083,24225
32-23,55724989,26404
32-24,55728895,21604
32-25,55732801,-11452
32-26,55736707,-32768
32-27,55740613,-32340
32-28,55744519,-5732
32-29,55748425,14969
32-30,55752331,19375
32-31,55756237,27730
32-32,55760143,13619
32-1,55764055,-24162
32-2,55767961,-32530
32-3,55771867,-30776
32-4,55775773,-11777
32-5,55779679,14986
32-6,55783585,27250
32-7,55787491,28221
32-8,55791397,2936
32-9,55795303,-32511
32-10,55799209,-26994
32-11,55803115,8741
32-12,55807021,25992
32-13,55810927,22958
32-14,55814833,26617
32-15,55818739,24866
32-16,55822645,-9894
32-17,55826551,-32768
32-18,55830457,-21644
32-19,55834363,12810
32-20,55838269,26180
32-21,55842175,22360
32-22,55846081,27255
32-23,55849987,16079
32-24,55853893,-23872
32-25,55857799,-32768
32-26,55861705,-15166
32-27,55865611,5328
32-28,55869517,18134
32-29,55873423,21257
32-30,55877329,21144
32-31,55881235,2062
32-32,55885141,-29013
32-1,55889052,-32658
32-2,55892958,-29221
32-3,55896864,-9145
32-4,55900770,16521
32-5,55904676,28237
32-6,55908582,23352
32-7,55912488,-9573
32-8,55916394,-32504
32-9,55920300,-17029
32-10,55924206,16358
32-11,55928112,25635
32-12,55932018,23055
32-13,55935924,28778
32-14,55939830,17591
32-15,55943736,-21854
32-16,55947642,-32768
32-17,55951548,-10878
32-18,55955454,19290
32-19,55959360,24364
32-20,55963266,23307
32-21,55967172,28237
32-22,55971078,6995
32-23,55974984,-31276
32-24,55978890,-32768
32-25,55982796,-5370
32-26,55986702,17081
32-27,55990608,15444
32-28,55994514,22143
32-29,55998420,19921
32-30,56002326,-16086
32-31,56006232,-32768
32-32,56010138,-32359
32-1,56014050,-26834
32-2,56017956,-2625
32-3,56021862,20002
32-4,56025768,28287
32-5,56029674,17563
32-6,56033580,-19745
32-7,56037486,-32165
32-8,56041392,-6991
32-9,56045298,22048
32-10,56049204,25837
32-11,56053110,24788
32-12,56057016,29057
32-13,56060922,8183
32-14,56064828,-30430
32-15,56068734,-32672
32-16,56072640,-1136
32-17,56076546,22864
32-18,56080452,23962
32-19,56084358,25945
32-20,56088264,26417
32-21,56092170,-5193
32-22,56096076,-32768
32-23,56099982,-26440
32-24,56103888,6601
32-25,56107794,25532
32-26,56111700,20819
32-27,56115606,20312
32-28,56119512,15723
32-29,56123418,-16161
32-30,56127324,-32768
32-31,56131230,-32359
32-32,56135136,-15359
32-1,56139048,11251
32-2,56142954,24782
32-3,56146860,27551
32-4,56150766,9701
32-5,56154672,-28677
32-6,56158578,-32323
32-7,56162484,1286
32-8,56166390,24629
32-9,56170296,24297
32-10,56174202,25050
32-11,56178108,25639
32-12,56182014,-3242
32-13,56185920,-32768
32-14,56189826,-30443
32-15,56193732,552
32-16,56197638,23011
32-17,56201544,24488
32-18,56205450,27049
32-19,56209356,20410
32-20,56213262,-17734
32-21,56217168,-32768
32-22,56221074,-8501
32-23,56224980,20804
32-24,56228886,23297
32-25,56232792,24143
32-26,56236698,27525
32-27,56240604,634
32-28,56244510,-31807
32-29,56248416,-32768
32-30,56252322,-31761
32-31,56256228,-19123
32-32,56260134,7397
32-1,56264045,26117
32-2,56267951,26398
32-3,56271857,-2134
32-4,56275763,-32447
32-5,56279669,-32042
32-6,56283575,-10973
32-7,56287481,17541
32-8,56291387,25100
32-9,56295293,26397
32-10,56299199,22360
32-11,56303105,-13960
32-12,56307011,-32474
32-13,56310917,-12304
32-14,56314823,19818
32-15,56318729,26340
32-16,56322635,23670
32-17,56326541,28125
32-18,56330447,12019
32-19,56334353,-26006
32-20,56338259,-32768
32-21,56342165,-13099
32-22,56346071,16412
32-23,56349977,24984
32-24,56353883,25192
32-25,56357789,26664
32-26,56361695,-1309
32-27,56365601,-32768
32-28,56369507,-31707
32-29,56373413,-17724
32-30,56377319,-3165
32-31,56381225,16485
32-32,56385131,30651
32-1,56389043,20651
32-2,56392949,-14659
32-3,56396855,-32368
32-4,56400761,-31964
32-5,56404667,-15851
32-6,56408573,11434
32-7,56412479,25128
32-8,56416385,29489
32-9,56420291,14863
32-10,56424197,-25625
32-11,56428103,-30710
32-12,56432009,5939
32-13,56435915,27434
32-14,56439821,24140
32-15,56443727,24410
32-16,56447633,27726
32-17,56451539,2265
32-18,56455445,-32768
32-19,56459351,-32359
32-20,56463257,-3288
32-21,56467163,22182
32-22,56471069,24738
32-23,56474975,26210
32-24,56478881,21720
32-25,56482787,-10891
32-26,56486693,-32768
32-27,56490599,-32359
32-28,56494505,-5767
32-29,56498411,14992
32-30,56502317,19490
32-31,56506223,27788
32-32,56510129,13848
32-1,56514041,-23985
32-2,56517947,-32536
32-3,56521853,-30630
32-4,56525759,-11350
32-5,56529665,15249
32-6,56533571,27186
32-7,56537477,28292
32-8,56541383,3260
32-9,56545289,-32531
32-10,56549195,-27214
32-11,56553101,8449
32-12,56557007,25704
32-13,56560913,22687
32-14,56564819,26294
32-15,56568725,24818
32-16,56572631,-9662
32-17,56576537,-32768
32-18,56580443,-22022
32-19,56584349,12288
32-20,56588255,26116
32-21,56592161,22523
32-22,56596067,27428
32-23,56599973,16457
32-24,56603879,-23731
32-25,56607785,-32768
32-26,56611691,-14599
32-27,56615597,5909
32-28,56619503,18350
32-29,56623409,21652
32-30,56627315,21781
32-31,56631221,2447
32-32,56635127,-28946
32-1,56639038,-32694
32-2,56642944,-28040
32-3,56646850,-4289
32-4,56650756,20193
32-5,56654662,28424
32-6,56658568,23652
32-7,56662474,-8834
32-8,56666380,-32676
32-9,56670286,-18369
32-10,56674192,14845
32-11,56678098,25120
32-12,56682004,23013
32-13,56685910,28765
32-14,56689816,17696
32-15,56693722,-21821
32-16,56697628,-32768
32-17,56701534,-11821
32-18,56705440,18603
32-19,56709346,24380
32-20,56713252,22988
32-21,56717158,27948
32-22,56721064,6907
32-23,56724970,-32112
32-24,56728876,-32768
32-25,56732782,446
32-26,56736688,21212
32-27,56740594,15793
32-28,56744500,22039
32-29,56748406,20424
32-30,56752312,-15541
32-31,56756218,-32768
32-32,56760124,-32359
32-1,56764036,-26772
32-2,56767942,-2430
32-3,56771848,20343
32-4,56775754,28367
32-5,56779660,17104
32-6,56783566,-19999
32-7,56787472,-32165
32-8,56791378,-7902
32-9,56795284,20979
32-10,56799190,25147
32-11,56803096,24437
32-12,56807002,28728
32-13,56810908,7405
32-14,56814814,-30733
32-15,56818720,-32617
32-16,56822626,-2696
32-17,56826532,21617
32-18,56830438,23556
32-19,56834344,25511
32-20,56838250,26127
32-21,56842156,-5478
32-22,56846062,-32768
32-23,56849968,-25485
32-24,56853874,8152
32-25,56857780,25698
32-26,56861686,20318
32-27,56865592,20660
32-28,56869498,15790
32-29,56873404,-16632
32-30,56877310,-32768
32-31,56881216,-32359
32-32,56885122,-17212
32-1,56889033,9530
32-2,56892939,24419
32-3,56896845,27487
32-4,56900751,9681
32-5,56904657,-28460
32-6,56908563,-32275
32-7,56912469,361
32-8,56916375,24567
32-9,56920281,24778
32-10,56924187,25043
32-11,56928093,25931
32-12,56931999,-3200
32-13,56935905,-32768
32-14,56939811,-27127
32-15,56943717,6077
32-16,56947623,24436
32-17,56951529,23835
32-18,56955435,27311
32-19,56959341,20164
32-20,56963247,-17056
32-21,56967153,-32768
32-22,56971059,-15910
32-23,56974965,15175
32-24,56978871,23208
32-25,56982777,24122
32-26,56986683,26926
32-27,56990589,927
32-28,56994495,-31587
32-29,56998401,-32768
32-30,57002307,-31817
32-31,57006213,-19522
32-32,57010119,6793
32-1,57014031,25648
32-2,57017937,26172
32-3,57021843,-2388
32-4,57025749,-32422
32-5,57029655,-32017
32-6,57033561,-8302
32-7,57037467,19107
32-8,57041373,25014
32-9,57045279,26426
32-10,57049185,22281
32-11,57053091,-13185
32-12,57056997,-32511
32-13,57060903,-18535
32-14,57064809,13879
32-15,57068715,25883
32-16,57072621,23956
32-17,57076527,27572
32-18,57080433,12358
32-19,57084339,-26744
32-20,57088245,-32768
32-21,57092151,-5632
32-22,57096057,21562
32-23,57099963,24471
32-24,57103869,24839
32-25,57107775,27206
32-26,57111681,-1058
32-27,57115587,-32768
32-28,57119493,-32359
32-29,57123399,-20757
32-30,57127305,-5874
32-31,57131211,15623
32-32,57135117,30499
32-1,57139029,20681
32-2,57142935,-14248
32-3,57146841,-32281
32-4,57150747,-31878
32-5,57154653,-14835
32-6,57158559,12483
32-7,57162465,25316
32-8,57166371,29027
32-9,57170277,15334
32-10,57174183,-24483
32-11,57178089,-32017
32-12,57181995,-629
32-13,57185901,25278
32-14,57189807,25064
32-15,57193713,24458
32-16,57197619,28041
32-17,57201525,3055
32-18,57205431,-32768
32-19,57209337,-32359
32-20,57213243,-2929
32-21,57217149,22493
32-22,57221055,24867
32-23,57224961,26061
32-24,57228867,21922
32-25,57232773,-10644
32-26,57236679,-32768
32-27,57240585,-28387
32-28,57244491,1234
32-29,57248397,18493
32-30,57252303,19582
32-31,57256209,27899
32-32,57260115,14300
32-1,57264026,-23787
32-2,57267932,-32728
32-3,57271838,-32003
32-4,57275744,-16649
32-5,57279650,10680
32-6,57283556,26351
32-7,57287462,28729
32-8,57291368,3202
32-9,57295274,-32575
32-10,57299180,-22791
32-11,57303086,14088
32-12,57306992,26777
32-13,57310898,22115
32-14,57314804,26628
32-15,57318710,24738
32-16,57322616,-8894
32-17,57326522,-32768
32-18,57330428,-26470
32-19,57334334,6602
32-20,57338240,25139
32-21,57342146,23273
32-22,57346052,27159
32-23,57349958,16990
32-24,57353864,-23131
32-25,57357770,-32768
32-26,57361676,-14334
32-27,57365582,6299
32-28,57369488,18296
32-29,57373394,21310
32-30,57377300,21676
32-31,57381206,2641
32-32,57385112,-28789
32-1,57389024,-32700
32-2,57392930,-29678
32-3,57396836,-8804
32-4,57400742,17347
32-5,57404648,28572
32-6,57408554,24451
32-7,57412460,-9132
32-8,57416366,-32579
32-9,57420272,-11261
32-10,57424178,20639
32-11,57428084,25076
32-12,57431990,22435
32-13,57435896,28876
32-14,57439802,17337
32-15,57443708,-20979
32-16,57447614,-32768
32-17,57451520,-17738
32-18,57455426,13400
32-19,57459332,24111
32-20,57463238,23322
32-21,57467144,27564
32-22,57471050,7279
32-23,57474956,-31806
32-24,57478862,-32768
32-25,57482768,-7
32-26,57486674,20822
32-27,57490580,16048
32-28,57494486,22053
32-29,57498392,19729
32-30,57502298,-16071
32-31,57506204,-32768
32-32,57510110,-32359
32-1,57514022,-28213
32-2,57517928,-6010
32-3,57521834,18059
32-4,57525740,28527
32-5,57529646,17639
32-6,57533552,-19872
32-7,57537458,-32084
32-8,57541364,-7218
32-9,57545270,21619
32-10,57549176,25780
32-11,57553082,24922
32-12,57556988,29182
32-13,57560894,8163
32-14,57564800,-30427
32-15,57568706,-32586
32-16,57572612,-1411
32-17,57576518,22481
32-18,57580424,23688
32-19,57584330,25765
32-20,57588236,26760
32-21,57592142,-4997
32-22,57596048,-32768
32-23,57599954,-25224
32-24,57603860,8728
32-25,57607766,26054
32-26,57611672,20674
32-27,57615578,21553
32-28,57619484,16894
32-29,57623390,-16264
32-30,57627296,-32768
32-31,57631202,-32359
32-32,57635108,-17566
32-1,57639019,8812
32-2,57642925,24370
32-3,57646831,27861
32-4,57650737,9732
32-5,57654643,-28474
32-6,57658549,-32266
32-7,57662455,369
32-8,57666361,24468
32-9,57670267,24753
32-10,57674173,25152
32-11,57678079,25899
32-12,57681985,-3413
32-13,57685891,-32768
32-14,57689797,-27426
32-15,57693703,5734
32-16,57697609,24449
32-17,57701515,23818
32-18,57705421,27168
32-19,57709327,20084
32-20,57713233,-17110
32-21,57717139,-32768
32-22,57721045,-15981
32-23,57724951,15379
32-24,57728857,23515
32-25,57732763,24232
32-26,57736669,27221
32-27,57740575,1539
32-28,57744481,-31284
32-29,57748387,-32768
32-30,57752293,-31673
32-31,57756199,-18809
32-32,57760105,7308
32-1,57764017,25548
32-2,57767923,26299
32-3,57771829,-2259
32-4,57775735,-32441
32-5,57779641,-32036
32-6,57783547,-2439
32-7,57787453,22274
32-8,57791359,24597
32-9,57795265,26349
32-10,57799171,22132
32-11,57803077,-13555
32-12,57806983,-32630
32-13,57810889,-19417
32-14,57814795,13743
32-15,57818701,26046
32-16,57822607,23867
32-17,57826513,27719
32-18,57830419,12369
32-19,57834325,-25812
32-20,57838231,-32768
32-21,57842137,-13303
32-22,57846043,15268
32-23,57849949,24343
32-24,57853855,25227
32-25,57857761,26831
32-26,57861667,-1086
32-27,57865573,-32768
32-28,57869479,-31203
32-29,57873385,-15437
32-30,57877291,310
32-31,57881197,18339
32-32,57885103,30471
32-1,57889076,21192
32-2,57892982,-13488
32-3,57896888,-32489
32-4,57900794,-32083
32-5,57904700,-15739
32-6,57908606,11741
32-7,57912512,25264
32-8,57916418,29090
32-9,57920324,15596
32-10,57924230,-24226
32-11,57928136,-32206
32-12,57932042,-1746
32-13,57935948,24925
32-14,57939854,25187
32-15,57943760,23962
32-16,57947666,27879
32-17,57951572,3333
32-18,57955478,-32768
32-19,57959384,-31236
32-20,57963290,2427
32-21,57967196,24807
32-22,57971102,24284
32-23,57975008,26470
32-24,57978914,22360
32-25,57982820,-10279
32-26,57986726,-32768
32-27,57990632,-32359
32-28,57994538,-8738
32-29,57998444,11706
32-30,58002350,18176
32-31,58006256,27892
32-32,58010162,14652
32-1,58014012,-23179
32-2,58017918,-32462
32-3,58021824,-30527
32-4,58025730,-10310
32-5,58029636,16192
32-6,58033542,27188
32-7,58037448,28025
32-8,58041354,4357
32-9,58045260,-32274
32-10,58049166,-30919
32-11,58053072,1648
32-12,58056978,23259
32-13,58060884,23534
32-14,58064790,26173
32-15,58068696,24753
32-16,58072602,-8401
32-17,58076508,-32768
32-18,58080414,-25573
32-19,58084320,8108
32-20,58088226,25728
32-21,58092132,23069
32-22,58096038,27358
32-23,58099944,17636
32-24,58103850,-23238
32-25,58107756,-32768
32-26,58111662,-6893
32-27,58115568,13394
32-28,58119474,20352
32-29,58123380,20908
32-30,58127286,21475
32-31,58131192,3024
32-32,58135098,-28632
32-1,58139010,-32768
32-2,58142916,-29643
32-3,58146822,-8651
32-4,58150728,17450
32-5,58154634,28334
32-6,58158540,24113
32-7,58162446,-8937
32-8,58166352,-32644
32-9,58170258,-12731
32-10,58174164,19823
32-11,58178070,25148
32-12,58181976,22365
32-13,58185882,28656
32-14,58189788,17506
32-15,58193694,-20745
32-16,58197600,-32768
32-17,58201506,-17256
32-18,58205412,14112
32-19,58209318,24340
32-20,58213224,22793
32-21,58217130,27941
32-22,58221036,8198
32-23,58224942,-32007
32-24,58228848,-30602
32-25,58232754,7703
32-26,58236660,23795
32-27,58240566,15994
32-28,58244472,22710
32-29,58248378,20225
32-30,58252284,-15918
32-31,58256190,-32768
32-32,58260096,-32342
32-1,58264007,-30701
32-2,58267913,-13621
32-3,58271819,12630
32-4,58275725,28361
32-5,58279631,18247
32-6,58283537,-20292
32-7,58287443,-31890
32-8,58291349,-732
32-9,58295255,24587
32-10,58299161,24925
32-11,58303067,24944
32-12,58306973,29330
32-13,58310879,8254
32-14,58314785,-29407
32-15,58318691,-32518
32-16,58322597,-7721
32-17,58326503,19172
32-18,58330409,24294
32-19,58334315,25690
32-20,58338221,26572
32-21,58342127,-4387
32-22,58346033,-32768
32-23,58349939,-25212
32-24,58353845,8621
32-25,58357751,25729
32-26,58361657,20287
32-27,58365563,20971
32-28,58369469,16641
32-29,58373375,-16135
32-30,58377281,-32768
32-31,58381187,-32359
32-32,58385093,-18532
32-1,58389005,6020
32-2,58392911,22468
32-3,58396817,26883
32-4,58400723,9106
32-5,58404629,-27994
32-6,58408535,-32181
32-7,58412441,-4769
32-8,58416347,21751
32-9,58420253,24435
32-10,58424159,24204
32-11,58428065,25394
32-12,58431971,-2939
32-13,58435877,-32768
32-14,58439783,-27071
32-15,58443689,5917
32-16,58447595,23717
32-17,58451501,22830
32-18,58455407,26482
32-19,58459313,19777
32-20,58463219,-17073
32-21,58467125,-32768
32-22,58471031,-15906
32-23,58474937,14997
32-24,58478843,22663
32-25,58482749,23548
32-26,58486655,26270
32-27,58490561,841
32-28,58494467,-30762
32-29,58498373,-32768
32-30,58502279,-30243
32-31,58506185,-8108
32-32,58510091,17926
32-1,58514125,27311
32-2,58518031,26717
32-3,58521937,-64
32-4,58525843,-32768
32-5,58529749,-32359
32-6,58533655,-8558
32-7,58537561,18654
32-8,58541467,25038
32-9,58545373,26541
32-10,58549279,22206
32-11,58553185,-13187
32-12,58557091,-32768
32-13,58560997,-19354
32-14,58564903,14132
32-15,58568809,26427
32-16,58572715,23905
32-17,58576621,27726
32-18,58580527,12593
32-19,58584433,-26593
32-20,58588339,-32768
32-21,58592245,-7364
32-22,58596151,20202
32-23,58600057,24523
32-24,58603963,25017
