32-1,4755042,-787
32-2,4758948,4986
32-3,4762854,3276
32-4,4766760,2278
32-5,4770666,3937
32-6,4774572,3251
32-7,4778478,-3412
32-8,4782384,-3309
32-9,4786290,3792
32-10,4790196,4359
32-11,4794102,2613
32-12,4798008,2768
32-13,4801914,3877
32-14,4805820,1424
32-15,4809726,-2946
32-16,4813632,597
32-17,4817538,4270
32-18,4821444,3053
32-19,4825350,2336
32-20,4829256,2982
32-21,4833162,3894
32-22,4837068,-1024
32-23,4840974,-4620
32-24,4844880,1317
32-25,4848786,4637
32-26,4852692,1460
32-27,4856598,2373
32-28,4860504,4558
32-29,4864410,-9964
32-30,4868316,-30052
32-31,4872222,-24228
32-32,4876128,-4636
32-1,4879551,3523
32-2,4883457,3424
32-3,4887363,2690
32-4,4891269,4413
32-5,4895175,2018
32-6,4899081,-3503
32-7,4902987,1
32-8,4906893,4807
32-9,4910799,3551
32-10,4914705,2644
32-11,4918611,3508
32-12,4922517,4235
32-13,4926423,653
32-14,4930329,-1612
32-15,4934235,2858
32-16,4938141,4495
32-17,4942047,3170
32-18,4945953,2716
32-19,4949859,3761
32-20,4953765,3709
32-21,4957671,-3138
32-22,4961577,-3993
32-23,4965483,3061
32-24,4969389,4096
32-25,4973295,2877
32-26,4977201,1971
32-27,4981107,4417
32-28,4985013,2753
32-29,4988919,-19063
32-30,4992825,-32768
32-31,4996731,-25462
32-32,5000637,-6767
32-1,5004701,2739
32-2,5008607,4269
32-3,5012513,4729
32-4,5016419,694
32-5,5020325,-3129
32-6,5024231,2215
32-7,5028137,5457
32-8,5032043,3747
32-9,5035949,3768
32-10,5039855,4612
32-11,5043761,4197
32-12,5047667,1476
32-13,5051573,1949
32-14,5055479,4739
32-15,5059385,4195
32-16,5063291,3382
32-17,5067197,3622
32-18,5071103,4432
32-19,5075009,3032
32-20,5078915,402
32-21,5082821,2331
32-22,5086727,4425
32-23,5090633,3245
32-24,5094539,3041
32-25,5098445,4179
32-26,5102351,2874
32-27,5106257,2467
32-28,5110163,1336
32-29,5114069,-14098
32-30,5117975,-25326
32-31,5121881,-9495
32-32,5125787,3427
32-1,5129669,2849
32-2,5133575,5825
32-3,5137481,-7023
32-4,5141387,-30434
32-5,5145293,-32097
32-6,5149199,-30276
32-7,5153105,-31120
32-8,5157011,-23013
32-9,5160917,-5086
32-10,5164823,2854
32-11,5168729,-6100
32-12,5172635,-6069
32-13,5176541,4946
32-14,5180447,7767
32-15,5184353,6406
32-16,5188259,5712
32-17,5192165,9369
32-18,5196071,4135
32-19,5199977,-20317
32-20,5203883,-30692
32-21,5207789,-29597
32-22,5211695,-28833
32-23,5215601,-29579
32-24,5219507,-23815
32-25,5223413,-8322
32-26,5227319,-10249
32-27,5231225,-26902
32-28,5235131,-28345
32-29,5239037,-26936
32-30,5242943,-27242
32-31,5246849,-27315
32-32,5250755,-25383
32-1,5254666,-17295
32-2,5258572,-19191
32-3,5262478,-26202
32-4,5266384,-25874
32-5,5270290,-24821
32-6,5274196,-25230
32-7,5278102,-24926
32-8,5282008,-21826
32-9,5285914,-17342
32-10,5289820,-21148
32-11,5293726,-23862
32-12,5297632,-23564
32-13,5301538,-22112
32-14,5305444,-17996
32-15,5309350,-8476
32-16,5313256,5745
32-17,5317162,1640
32-18,5321068,-19024
32-19,5324974,-22518
32-20,5328880,-20882
32-21,5332786,-17719
32-22,5336692,-11678
32-23,5340598,2061
32-24,5344504,14523
32-25,5348410,484
32-26,5352316,-21178
32-27,5356222,-21341
32-28,5360128,-17221
32-29,5364034,-18866
32-30,5367940,-18986
32-31,5371846,-13232
32-32,5375752,-7710
32-1,5379542,-12867
32-2,5383448,-18058
32-3,5387354,-16615
32-4,5391260,-15902
32-5,5395166,-15821
32-6,5399072,-14016
32-7,5402978,-9716
32-8,5406884,-8643
32-9,5410790,-12816
32-10,5414696,-14282
32-11,5418602,-12749
32-12,5422508,-10749
32-13,5426414,-8554
32-14,5430320,-1675
32-15,5434226,7375
32-16,5438132,1213
32-17,5442038,-11092
32-18,5445944,-11645
32-19,5449850,-8174
32-20,5453756,-5085
32-21,5457662,912
32-22,5461568,14478
32-23,5465474,20648
32-24,5469380,2780
32-25,5473286,-11284
32-26,5477192,-8880
32-27,5481098,-5371
32-28,5485004,-1582
32-29,5488910,-2853
32-30,5492816,-6014
32-31,5496722,-4540
32-32,5500628,-6085
33-1,5502251,-7841
33-2,5506157,-6866
33-3,5510063,-6676
33-4,5513969,-6592
33-5,5517875,-4905
33-6,5521781,-1872
33-7,5525687,-2478
33-8,5529593,-5341
33-9,5533499,-5551
33-10,5537405,-4351
33-11,5541311,-2869
33-12,5545217,-817
33-13,5549123,6324
33-14,5553029,11436
33-15,5556935,2948
33-16,5560841,-4905
33-17,5564747,-3655
33-18,5568653,-1995
33-19,5572559,-993
33-20,5576465,3021
33-21,5580371,11952
33-22,5584277,12723
33-23,5588183,636
33-24,5592089,-4294
33-25,5595995,-1398
33-26,5599901,-1496
33-27,5603807,2139
33-28,5607713,7779
33-29,5611619,4520
33-30,5615525,-1620
33-31,5619431,-1818
33-32,5623337,-1075
33-33,5627243,-1673
32-1,5633382,-1276
32-2,5637288,-1039
32-3,5641194,410
32-4,5645100,2096
32-5,5649006,807
32-6,5652912,-707
32-7,5656818,-587
32-8,5660724,296
32-9,5664630,1238
32-10,5668536,3459
32-11,5672442,9829
32-12,5676348,11096
32-13,5680254,3058
32-14,5684160,-719
32-15,5688066,894
32-16,5691972,1839
32-17,5695878,2864
32-18,5699784,7274
32-19,5703690,14422
32-20,5707596,11313
32-21,5711502,1477
32-22,5715408,-103
32-23,5719314,1925
32-24,5723220,2587
32-25,5727126,4491
32-26,5731032,11538
32-27,5734938,16565
32-28,5738844,8115
32-29,5742750,45
32-30,5746656,1177
32-31,5750562,1668
32-32,5754468,1254
32-1,5758380,2545
32-2,5762286,6005
32-3,5766192,7335
32-4,5770098,3197
32-5,5774004,990
32-6,5777910,1734
32-7,5781816,1734
32-8,5785722,1814
32-9,5789628,3308
32-10,5793534,6286
32-11,5797440,5803
32-12,5801346,2419
32-13,5805252,1710
32-14,5809158,2550
32-15,5813064,3420
32-16,5816970,4604
32-17,5820876,9684
32-18,5824782,14688
32-19,5828688,8909
32-20,5832594,1692
32-21,5836500,2030
32-22,5840406,3354
32-23,5844312,3928
32-24,5848218,6353
32-25,5852124,13420
32-26,5856030,15682
32-27,5859936,6358
32-28,5863842,991
32-29,5867748,2661
32-30,5871654,2648
32-31,5875560,2353
32-32,5879466,4245
32-1,5883377,8009
32-2,5887283,7589
32-3,5891189,3038
32-4,5895095,2095
32-5,5899001,2809
32-6,5902907,2425
32-7,5906813,2514
32-8,5910719,3585
32-9,5914625,4929
32-10,5918531,4108
32-11,5922437,2633
32-12,5926343,2508
32-13,5930249,2997
32-14,5934155,3595
32-15,5938061,4823
32-16,5941967,9377
32-17,5945873,11319
32-18,5949779,5659
32-19,5953685,2059
32-20,5957591,2958
32-21,5961497,3379
32-22,5965403,3604
32-23,5969309,5823
32-24,5973215,10608
32-25,5977121,10025
32-26,5981027,3762
32-27,5984933,2033
32-28,5988839,3275
32-29,5992745,3125
32-30,5996651,2752
32-31,6000557,4788
32-32,6004463,8278
32-1,6008375,6546
32-2,6012281,2657
32-3,6016187,2634
32-4,6020093,2990
32-5,6023999,2574
32-6,6027905,2806
32-7,6031811,3602
32-8,6035717,4176
32-9,6039623,3466
32-10,6043529,2779
32-11,6047435,2747
32-12,6051341,3340
32-13,6055247,3921
32-14,6059153,5786
32-15,6063059,10379
32-16,6066965,9920
32-17,6070871,3996
32-18,6074777,2238
32-19,6078683,3238
32-20,6082589,3350
32-21,6086495,3833
32-22,6090401,6759
32-23,6094307,10533
32-24,6098213,7754
32-25,6102119,2552
32-26,6106025,2424
32-27,6109931,3106
32-28,6113837,2808
32-29,6117743,2849
32-30,6121649,3460
32-31,6125555,4376
32-32,6129461,3609
32-1,6133617,2598
32-2,6137523,2717
32-3,6141429,2746
32-4,6145335,2620
32-5,6149241,2945
32-6,6153147,4114
32-7,6157053,4339
32-8,6160959,3091
32-9,6164865,2523
32-10,6168771,2662
32-11,6172677,2971
32-12,6176583,3231
32-13,6180489,4918
32-14,6184395,7645
32-15,6188301,6177
32-16,6192207,2828
32-17,6196113,2485
32-18,6200019,3071
32-19,6203925,3359
32-20,6207831,4192
32-21,6211737,7816
32-22,6215643,10264
32-23,6219549,5880
32-24,6223455,2088
32-25,6227361,2717
32-26,6231267,3233
32-27,6235173,3624
32-28,6239079,3530
32-29,6242985,2797
32-30,6246891,2680
32-31,6250797,2676
32-32,6254703,2634
32-1,6258370,2514
32-2,6262276,2435
32-3,6266182,2424
32-4,6270088,2738
32-5,6273994,3450
32-6,6277900,3299
32-7,6281806,2665
32-8,6285712,2462
32-9,6289618,2600
32-10,6293524,2939
32-11,6297430,3331
32-12,6301336,5639
32-13,6305242,7559
32-14,6309148,4838
32-15,6313054,2139
32-16,6316960,2343
32-17,6320866,2761
32-18,6324772,2940
32-19,6328678,4188
32-20,6332584,7772
32-21,6336490,8370
32-22,6340396,3663
32-23,6344302,1614
32-24,6348208,2558
32-25,6352114,2359
32-26,6356020,3613
32-27,6359926,5673
32-28,6363832,4872
32-29,6367738,2875
32-30,6371644,2323
32-31,6375550,2257
32-32,6379456,2012
32-1,6383368,1981
32-2,6387274,1941
32-3,6391180,2358
32-4,6395086,2876
32-5,6398992,2500
32-6,6402898,1988
32-7,6406804,1847
32-8,6410710,2024
32-9,6414616,2273
32-10,6418522,2958
32-11,6422428,5505
32-12,6426334,6253
32-13,6430240,3156
32-14,6434146,1522
32-15,6438052,1965
32-16,6441958,2231
32-17,6445864,2446
32-18,6449770,4091
32-19,6453676,7260
32-20,6457582,6136
32-21,6461488,1942
32-22,6465394,1161
32-23,6469300,1945
32-24,6473206,2157
32-25,6477112,2825
32-26,6481018,6074
32-27,6484924,8638
32-28,6488830,4828
32-29,6492736,1092
32-30,6496642,1567
32-31,6500548,1598
32-32,6504454,1240
32-1,6508366,1697
32-2,6512272,2935
32-3,6516178,3466
32-4,6520084,2039
32-5,6523990,1231
32-6,6527896,1382
32-7,6531802,1269
32-8,6535708,1216
32-9,6539614,1698
32-10,6543520,2782
32-11,6547426,2615
32-12,6551332,1420
32-13,6555238,1117
32-14,6559144,1324
32-15,6563050,1639
32-16,6566956,2025
32-17,6570862,4195
32-18,6574768,6516
32-19,6578674,4087
32-20,6582580,950
32-21,6586486,1004
32-22,6590392,1482
32-23,6594298,1615
32-24,6598204,2525
32-25,6602110,5856
32-26,6606016,7119
32-27,6609922,2882
32-28,6613828,421
32-29,6617734,1113
32-30,6621640,962
32-31,6625546,756
32-32,6629452,1533
32-1,6633363,3131
32-2,6637269,3034
32-3,6641175,1194
32-4,6645081,755
32-5,6648987,935
32-6,6652893,709
32-7,6656799,701
32-8,6660705,1067
32-9,6664611,1601
32-10,6668517,1398
32-11,6672423,886
32-12,6676329,719
32-13,6680235,852
32-14,6684141,1085
32-15,6688047,1543
32-16,6691953,3653
32-17,6695859,4627
32-18,6699765,2061
32-19,6703671,428
32-20,6707577,801
32-21,6711483,1047
32-22,6715389,1194
32-23,6719295,2440
32-24,6723201,5303
32-25,6727107,4994
32-26,6731013,1342
32-27,6734919,379
32-28,6738825,972
32-29,6742731,672
32-30,6746637,520
32-31,6750543,980
32-32,6754449,1762
32-1,6758513,1472
32-2,6762419,706
32-3,6766325,680
32-4,6770231,652
32-5,6774137,553
32-6,6778043,588
32-7,6781949,881
32-8,6785855,1170
32-9,6789761,915
32-10,6793667,606
32-11,6797573,505
32-12,6801479,628
32-13,6805385,761
32-14,6809291,1424
32-15,6813197,3168
32-16,6817103,3123
32-17,6821009,1116
32-18,6824915,452
32-19,6828821,696
32-20,6832727,825
32-21,6836633,1071
32-22,6840539,2620
32-23,6844445,4731
32-24,6848351,3263
32-25,6852257,492
32-26,6856163,417
32-27,6860069,702
32-28,6863975,471
32-29,6867881,515
32-30,6871787,635
32-31,6875693,847
32-32,6879599,724
32-1,6883450,563
32-2,6887356,568
32-3,6891262,470
32-4,6895168,389
32-5,6899074,442
32-6,6902980,782
32-7,6906886,936
32-8,6910792,685
32-9,6914698,519
32-10,6918604,498
32-11,6922510,622
32-12,6926416,731
32-13,6930322,1634
32-14,6934228,3042
32-15,6938134,2282
32-16,6942040,625
32-17,6945946,468
32-18,6949852,617
32-19,6953758,555
32-20,6957664,815
32-21,6961570,2154
32-22,6965476,3130
32-23,6969382,1667
32-24,6973288,316
32-25,6977194,435
32-26,6981100,674
32-27,6985006,997
32-28,6988912,912
32-29,6992818,542
32-30,6996724,532
32-31,7000630,562
32-32,7004536,595
32-1,7008356,569
32-2,7012262,428
32-3,7016168,345
32-4,7020074,396
32-5,7023980,581
32-6,7027886,644
32-7,7031792,548
32-8,7035698,381
32-9,7039604,383
32-10,7043510,560
32-11,7047416,765
32-12,7051322,1966
32-13,7055228,2956
32-14,7059134,1698
32-15,7063040,442
32-16,7066946,494
32-17,7070852,546
32-18,7074758,502
32-19,7078664,956
32-20,7082570,2275
32-21,7086476,2545
32-22,7090382,965
32-23,7094288,294
32-24,7098194,524
32-25,7102100,318
32-26,7106006,894
32-27,7109912,1694
32-28,7113818,1098
32-29,7117724,393
32-30,7121630,558
32-31,7125536,530
32-32,7129442,301
32-1,7133354,262
32-2,7137260,200
32-3,7141166,372
32-4,7145072,633
32-5,7148978,556
32-6,7152884,347
32-7,7156790,208
32-8,7160696,202
32-9,7164602,225
32-10,7168508,478
32-11,7172414,1425
32-12,7176320,1695
32-13,7180226,706
32-14,7184132,198
32-15,7188038,267
32-16,7191944,322
32-17,7195850,411
32-18,7199756,1191
32-19,7203662,2664
32-20,7207568,2238
32-21,7211474,481
32-22,7215380,75
32-23,7219286,307
32-24,7223192,377
32-25,7227098,658
32-26,7231004,2141
32-27,7234910,3318
32-28,7238816,1668
32-29,7242722,101
32-30,7246628,250
32-31,7250534,140
32-32,7254440,-20
32-1,7258351,155
32-2,7262257,644
32-3,7266163,958
32-4,7270069,510
32-5,7273975,206
32-6,7277881,166
32-7,7281787,52
32-8,7285693,22
32-9,7289599,315
32-10,7293505,955
32-11,7297411,908
32-12,7301317,263
32-13,7305223,50
32-14,7309129,95
32-15,7313035,133
32-16,7316941,232
32-17,7320847,1096
32-18,7324753,2078
32-19,7328659,1251
32-20,7332565,49
32-21,7336471,-45
32-22,7340377,103
32-23,7344283,184
32-24,7348189,583
32-25,7352095,2168
32-26,7356001,2906
32-27,7359907,1044
32-28,7363813,-144
32-29,7367719,181
32-30,7371625,132
32-31,7375531,-69
32-32,7379437,213
32-1,7383349,980
32-2,7387255,1031
32-3,7391161,284
32-4,7395067,113
32-5,7398973,135
32-6,7402879,-39
32-7,7406785,-31
32-8,7410691,98
32-9,7414597,267
32-10,7418503,261
32-11,7422409,86
32-12,7426315,-66
32-13,7430221,-29
32-14,7434127,74
32-15,7438033,236
32-16,7441939,1141
32-17,7445845,1614
32-18,7449751,579
32-19,7453657,-136
32-20,7457563,-31
32-21,7461469,21
32-22,7465375,7
32-23,7469281,579
32-24,7473187,1963
32-25,7477093,1880
32-26,7480999,234
32-27,7484905,-229
32-28,7488811,94
32-29,7492717,30
32-30,7496623,-113
32-31,7500529,9
32-32,7504435,412
32-1,7508347,379
32-2,7512253,76
32-3,7516159,35
32-4,7520065,-39
32-5,7523971,-109
32-6,7527877,-86
32-7,7531783,-31
32-8,7535689,74
32-9,7539595,103
32-10,7543501,1
32-11,7547407,-109
32-12,7551313,-36
32-13,7555219,10
32-14,7559125,298
32-15,7563031,1127
32-16,7566937,1137
32-17,7570843,271
32-18,7574749,-38
32-19,7578655,7
32-20,7582561,27
32-21,7586467,127
32-22,7590373,877
32-23,7594279,1913
32-24,7598185,1316
32-25,7602091,72
32-26,7605997,-32
32-27,7609903,58
32-28,7613809,-9
32-29,7617715,63
32-30,7621621,84
32-31,7625527,138
32-32,7629433,190
32-1,7633436,191
32-2,7637342,129
32-3,7641248,31
32-4,7645154,-20
32-5,7649060,-46
32-6,7652966,-19
32-7,7656872,63
32-8,7660778,113
32-9,7664684,34
32-10,7668590,-52
32-11,7672496,-11
32-12,7676402,-2
32-13,7680308,321
32-14,7684214,892
32-15,7688120,706
32-16,7692026,148
32-17,7695932,-2
32-18,7699838,-12
32-19,7703744,-24
32-20,7707650,94
32-21,7711556,808
32-22,7715462,1327
32-23,7719368,584
32-24,7723274,-71
32-25,7727180,-12
32-26,7731086,-1
32-27,7734992,67
32-28,7738898,149
32-29,7742804,87
32-30,7746710,55
32-31,7750616,100
32-32,7754522,141
32-1,7758342,61
32-2,7762248,-39
32-3,7766154,-67
32-4,7770060,-69
32-5,7773966,-18
32-6,7777872,73
32-7,7781778,93
32-8,7785684,-5
32-9,7789590,-43
32-10,7793496,-40
32-11,7797402,-27
32-12,7801308,386
32-13,7805214,747
32-14,7809120,384
32-15,7813026,-18
32-16,7816932,-43
32-17,7820838,2
32-18,7824744,-2
32-19,7828650,223
32-20,7832556,945
32-21,7836462,1109
32-22,7840368,366
32-23,7844274,23
32-24,7848180,34
32-25,7852086,-80
32-26,7855992,103
32-27,7859898,303
32-28,7863804,176
32-29,7867710,111
32-30,7871616,157
32-31,7875522,82
32-32,7879428,-20
32-1,7883339,-65
32-2,7887245,-77
32-3,7891151,-31
32-4,7895057,48
32-5,7898963,116
32-6,7902869,83
32-7,7906775,-27
32-8,7910681,-29
32-9,7914587,-34
32-10,7918493,61
32-11,7922399,561
32-12,7926305,720
32-13,7930211,255
32-14,7934117,22
32-15,7938023,22
32-16,7941929,-32
32-17,7945835,-71
32-18,7949741,166
32-19,7953647,742
32-20,7957553,734
32-21,7961459,212
32-22,7965365,-4
32-23,7969271,14
32-24,7973177,48
32-25,7977083,181
32-26,7980989,1082
32-27,7984895,1741
32-28,7988801,779
32-29,7992707,-13
32-30,7996613,89
32-31,8000519,-64
32-32,8004425,-190
32-1,8008337,-106
32-2,8012243,24
32-3,8016149,171
32-4,8020055,148
32-5,8023961,77
32-6,8027867,16
32-7,8031773,-39
32-8,8035679,-73
32-9,8039585,-30
32-10,8043491,143
32-11,8047397,217
32-12,8051303,137
32-13,8055209,10
32-14,8059115,-86
32-15,8063021,-104
32-16,8066927,-89
32-17,8070833,258
32-18,8074739,675
32-19,8078645,417
32-20,8082551,-27
32-21,8086457,-139
32-22,8090363,-112
32-23,8094269,-103
32-24,8098175,29
32-25,8102081,736
32-26,8105987,1090
32-27,8109893,363
32-28,8113799,-63
32-29,8117705,90
32-30,8121611,15
32-31,8125517,-139
32-32,8129423,-56
32-1,8133335,227
32-2,8137241,284
32-3,8141147,112
32-4,8145053,59
32-5,8148959,-46
32-6,8152865,-177
32-7,8156771,-150
32-8,8160677,-121
32-9,8164583,-83
32-10,8168489,53
32-11,8172395,99
32-12,8176301,-28
32-13,8180207,-61
32-14,8184113,-17
32-15,8188019,45
32-16,8191925,401
32-17,8195831,610
32-18,8199737,277
32-19,8203643,-22
32-20,8207549,-78
32-21,8211455,-80
32-22,8215361,-90
32-23,8219267,151
32-24,8223173,745
32-25,8227079,742
32-26,8230985,152
32-27,8234891,-55
32-28,8238797,-20
32-29,8242703,-16
32-30,8246609,-53
32-31,8250515,-101
32-32,8254421,19
32-1,8258332,102
32-2,8262238,69
32-3,8266144,30
32-4,8270050,-34
32-5,8273956,-65
32-6,8277862,-77
32-7,8281768,-93
32-8,8285674,-36
32-9,8289580,66
32-10,8293486,54
32-11,8297392,-64
32-12,8301298,-108
32-13,8305204,-138
32-14,8309110,-54
32-15,8313016,295
32-16,8316922,388
32-17,8320828,154
32-18,8324734,62
32-19,8328640,21
32-20,8332546,-51
32-21,8336452,-56
32-22,8340358,251
32-23,8344264,716
32-24,8348170,551
32-25,8352076,69
32-26,8355982,-24
32-27,8359888,-34
32-28,8363794,-63
32-29,8367700,-8
32-30,8371606,-23
32-31,8375512,-22
32-32,8379418,86
32-1,8383452,136
32-2,8387358,52
32-3,8391264,-46
32-4,8395170,-79
32-5,8399076,-90
32-6,8402982,-102
32-7,8406888,-20
32-8,8410794,87
32-9,8414700,30
32-10,8418606,-44
32-11,8422512,-28
32-12,8426418,-63
32-13,8430324,-1
32-14,8434230,205
32-15,8438136,231
32-16,8442042,82
32-17,8445948,-63
32-18,8449854,-141
32-19,8453760,-140
32-20,8457666,-106
32-21,8461572,135
32-22,8465478,397
32-23,8469384,229
32-24,8473290,-27
32-25,8477196,-52
32-26,8481102,-81
32-27,8485008,-81
32-28,8488914,10
32-29,8492820,16
32-30,8496726,-22
32-31,8500632,49
32-32,8504538,118
32-1,8508358,47
32-2,8512264,-87
32-3,8516170,-133
32-4,8520076,-107
32-5,8523982,-96
32-6,8527888,7
32-7,8531794,97
32-8,8535700,-12
32-9,8539606,-107
32-10,8543512,-111
32-11,8547418,-112
32-12,8551324,-20
32-13,8555230,123
32-14,8559136,173
32-15,8563042,89
32-16,8566948,-37
32-17,8570854,-51
32-18,8574760,-44
32-19,8578666,-33
32-20,8582572,175
32-21,8586478,335
32-22,8590384,199
32-23,8594290,40
32-24,8598196,-38
32-25,8602102,-95
32-26,8606008,-18
32-27,8609914,67
32-28,8613820,29
32-29,8617726,78
32-30,8621632,187
32-31,8625538,139
32-32,8629444,12
32-1,8633325,-64
32-2,8637231,-103
32-3,8641137,-146
32-4,8645043,-121
32-5,8648949,17
32-6,8652855,39
32-7,8656761,-67
32-8,8660667,-90
32-9,8664573,-80
32-10,8668479,-62
32-11,8672385,37
32-12,8676291,128
32-13,8680197,140
32-14,8684103,67
32-15,8688009,-29
32-16,8691915,-50
32-17,8695821,-61
32-18,8699727,38
32-19,8703633,286
32-20,8707539,333
32-21,8711445,153
32-22,8715351,-4
32-23,8719257,-57
32-24,8723163,-61
32-25,8727069,-48
32-26,8730975,180
32-27,8734881,385
32-28,8738787,250
32-29,8742693,128
32-30,8746599,63
32-31,8750505,-68
32-32,8754411,-75
32-1,8758323,-67
32-2,8762229,-109
32-3,8766135,-34
32-4,8770041,99
32-5,8773947,102
32-6,8777853,-19
32-7,8781759,-108
32-8,8785665,-102
32-9,8789571,-67
32-10,8793477,-50
32-11,8797383,34
32-12,8801289,136
32-13,8805195,89
32-14,8809101,2
32-15,8813007,-24
32-16,8816913,-18
32-17,8820819,80
32-18,8824725,169
32-19,8828631,131
32-20,8832537,53
32-21,8836443,-31
32-22,8840349,-100
32-23,8844255,-121
32-24,8848161,-79
32-25,8852067,79
32-26,8855973,213
32-27,8859879,174
32-28,8863785,106
32-29,8867691,95
32-30,8871597,31
32-31,8875503,-78
32-32,8879409,-88
32-1,8883321,-28
32-2,8887227,24
32-3,8891133,98
32-4,8895039,99
32-5,8898945,-19
32-6,8902851,-73
32-7,8906757,-35
32-8,8910663,-74
32-9,8914569,-105
32-10,8918475,13
32-11,8922381,68
32-12,8926287,-45
32-13,8930193,-107
32-14,8934099,-86
32-15,8938005,-35
32-16,8941911,69
32-17,8945817,120
32-18,8949723,100
32-19,8953629,61
32-20,8957535,-1
32-21,8961441,-50
32-22,8965347,-77
32-23,8969253,-39
32-24,8973159,78
32-25,8977065,153
32-26,8980971,115
32-27,8984877,39
32-28,8988783,53
32-29,8992689,75
32-30,8996595,-40
32-31,9000501,-116
32-32,9004407,-59
32-1,9008318,39
32-2,9012224,135
32-3,9016130,126
32-4,9020036,50
32-5,9023942,32
32-6,9027848,21
32-7,9031754,-37
32-8,9035660,4
32-9,9039566,169
32-10,9043472,170
32-11,9047378,-5
32-12,9051284,-76
32-13,9055190,-48
32-14,9059096,-19
32-15,9063002,14
32-16,9066908,86
32-17,9070814,148
32-18,9074720,55
32-19,9078626,-99
32-20,9082532,-137
32-21,9086438,-82
32-22,9090344,-15
32-23,9094250,27
32-24,9098156,66
32-25,9102062,68
32-26,9105968,-9
32-27,9109874,-69
32-28,9113780,-33
32-29,9117686,36
32-30,9121592,-8
32-31,9125498,-88
32-32,9129404,-32
32-1,9133468,22
32-2,9137374,-46
32-3,9141280,-133
32-4,9145186,-144
32-5,9149092,-124
32-6,9152998,-107
32-7,9156904,-6
32-8,9160810,51
32-9,9164716,-70
32-10,9168622,-134
32-11,9172528,-75
32-12,9176434,-65
32-13,9180340,77
32-14,9184246,308
32-15,9188152,239
32-16,9192058,47
32-17,9195964,-8
32-18,9199870,-74
32-19,9203776,-112
32-20,9207682,-83
32-21,9211588,-95
32-22,9215494,-54
32-23,9219400,64
32-24,9223306,70
32-25,9227212,-25
32-26,9231118,-68
32-27,9235024,-58
32-28,9238930,10
32-29,9242836,57
32-30,9246742,33
32-31,9250648,94
32-32,9254554,155
32-1,9258313,69
32-2,9262219,-37
32-3,9266125,-49
32-4,9270031,-69
32-5,9273937,-93
32-6,9277843,16
32-7,9281749,77
32-8,9285655,-16
32-9,9289561,-47
32-10,9293467,-49
32-11,9297373,-66
32-12,9301279,-58
32-13,9305185,-38
32-14,9309091,67
32-15,9312997,114
32-16,9316903,27
32-17,9320809,-17
32-18,9324715,-19
32-19,9328621,-37
32-20,9332527,-55
32-21,9336433,0
32-22,9340339,116
32-23,9344245,92
32-24,9348151,-21
32-25,9352057,-39
32-26,9355963,-10
32-27,9359869,11
32-28,9363775,39
32-29,9367681,132
32-30,9371587,231
32-31,9375493,172
32-32,9379399,20
32-1,9383311,-49
32-2,9387217,-38
32-3,9391123,-77
32-4,9395029,-78
32-5,9398935,60
32-6,9402841,105
32-7,9406747,34
32-8,9410653,16
32-9,9414559,24
32-10,9418465,48
32-11,9422371,51
32-12,9426277,94
32-13,9430183,196
32-14,9434089,149
32-15,9437995,40
32-16,9441901,14
32-17,9445807,-3
32-18,9449713,-5
32-19,9453619,13
32-20,9457525,90
32-21,9461431,144
32-22,9465337,31
32-23,9469243,-69
32-24,9473149,-64
32-25,9477055,-67
32-26,9480961,-49
32-27,9484867,-1
32-28,9488773,85
32-29,9492679,150
32-30,9496585,53
32-31,9500491,-59
32-32,9504397,-36
32-1,9508309,-15
32-2,9512215,-61
32-3,9516121,-12
32-4,9520027,128
32-5,9523933,120
32-6,9527839,7
32-7,9531745,-21
32-8,9535651,-5
32-9,9539557,-21
32-10,9543463,-43
32-11,9547369,32
32-12,9551275,105
32-13,9555181,11
32-14,9559087,-90
32-15,9562993,-124
32-16,9566899,-127
32-17,9570805,-95
32-18,9574711,-41
32-19,9578617,51
32-20,9582523,57
32-21,9586429,-22
32-22,9590335,-50
32-23,9594241,-66
32-24,9598147,-70
32-25,9602053,-48
32-26,9605959,31
32-27,9609865,125
32-28,9613771,96
32-29,9617677,55
32-30,9621583,18
32-31,9625489,-98
32-32,9629395,-173
32-1,9633306,-179
32-2,9637212,-87
32-3,9641118,71
32-4,9645024,70
32-5,9648930,-54
32-6,9652836,-101
32-7,9656742,-77
32-8,9660648,-81
32-9,9664554,-82
32-10,9668460,29
32-11,9672366,130
32-12,9676272,90
32-13,9680178,-10
32-14,9684084,-66
32-15,9687990,-41
32-16,9691896,-29
32-17,9695802,-15
32-18,9699708,77
32-19,9703614,66
32-20,9707520,-53
32-21,9711426,-110
32-22,9715332,-92
32-23,9719238,-69
32-24,9723144,-72
32-25,9727050,0
32-26,9730956,80
32-27,9734862,33
32-28,9738768,34
32-29,9742674,93
32-30,9746580,26
32-31,9750486,-88
32-32,9754392,-58
32-1,9758304,79
32-2,9762210,155
32-3,9766116,171
32-4,9770022,156
32-5,9773928,78
32-6,9777834,7
32-7,9781740,-52
32-8,9785646,-17
32-9,9789552,106
32-10,9793458,44
32-11,9797364,-76
32-12,9801270,-44
32-13,9805176,-26
32-14,9809082,-63
32-15,9812988,-101
32-16,9816894,-39
32-17,9820800,72
32-18,9824706,33
32-19,9828612,-27
32-20,9832518,-17
32-21,9836424,1
32-22,9840330,17
32-23,9844236,25
32-24,9848142,101
32-25,9852048,130
32-26,9855954,51
32-27,9859860,29
32-28,9863766,62
32-29,9867672,86
32-30,9871578,61
32-31,9875484,36
32-32,9879390,117
33-1,9879579,200
33-2,9883485,158
33-3,9887391,37
33-4,9891297,-8
33-5,9895203,-22
33-6,9899109,-114
33-7,9903015,-75
33-8,9906921,28
33-9,9910827,-49
33-10,9914733,-109
33-11,9918639,-92
33-12,9922545,-118
33-13,9926451,-150
33-14,9930357,-145
33-15,9934263,-39
33-16,9938169,30
33-17,9942075,-75
33-18,9945981,-150
33-19,9949887,-117
33-20,9953793,-71
33-21,9957699,-68
33-22,9961605,-19
33-23,9965511,144
33-24,9969417,175
33-25,9973323,31
33-26,9977229,-64
33-27,9981135,-78
33-28,9985041,-32
33-29,9988947,-9
33-30,9992853,-23
33-31,9996759,25
33-32,10000665,74
33-33,10004571,16
32-1,10012358,-80
32-2,10016264,-51
32-3,10020170,-28
32-4,10024076,-94
32-5,10027982,0
32-6,10031888,95
32-7,10035794,9
32-8,10039700,-26
32-9,10043606,-28
32-10,10047512,-44
32-11,10051418,-38
32-12,10055324,-21
32-13,10059230,90
32-14,10063136,116
32-15,10067042,-7
32-16,10070948,-52
32-17,10074854,-64
32-18,10078760,-84
32-19,10082666,-76
32-20,10086572,1
32-21,10090478,110
32-22,10094384,46
32-23,10098290,-64
32-24,10102196,-61
32-25,10106102,-48
32-26,10110008,-18
32-27,10113914,29
32-28,10117820,89
32-29,10121726,149
32-30,10125632,114
32-31,10129538,-2
32-32,10133444,-88
32-1,10137203,-70
32-2,10141109,-81
32-3,10145015,-96
32-4,10148921,46
32-5,10152827,78
32-6,10156733,-48
32-7,10160639,-81
32-8,10164545,-89
32-9,10168451,-116
32-10,10172357,-127
32-11,10176263,-78
32-12,10180169,14
32-13,10184075,-17
32-14,10187981,-84
32-15,10191887,-78
32-16,10195793,-75
32-17,10199699,-64
32-18,10203605,-42
32-19,10207511,56
32-20,10211417,159
32-21,10215323,90
32-22,10219229,-6
32-23,10223135,-20
32-24,10227041,-53
32-25,10230947,-101
32-26,10234853,-61
32-27,10238759,51
32-28,10242665,120
32-29,10246571,102
32-30,10250477,13
32-31,10254383,-52
32-32,10258289,-56
32-1,10262201,-96
32-2,10266107,-63
32-3,10270013,116
32-4,10273919,166
32-5,10277825,31
32-6,10281731,-34
32-7,10285637,4
32-8,10289543,-2
32-9,10293449,-34
32-10,10297355,53
32-11,10301261,148
32-12,10305167,48
32-13,10309073,-64
32-14,10312979,-57
32-15,10316885,-59
32-16,10320791,-79
32-17,10324697,-35
32-18,10328603,90
32-19,10332509,126
32-20,10336415,22
32-21,10340321,-34
32-22,10344227,-42
32-23,10348133,-57
32-24,10352039,-71
32-25,10355945,-21
32-26,10359851,108
32-27,10363757,79
32-28,10367663,-31
32-29,10371569,20
32-30,10375475,16
32-31,10379381,-108
32-32,10383287,-126
32-1,10387198,-16
32-2,10391104,92
32-3,10395010,77
32-4,10398916,-46
32-5,10402822,-149
32-6,10406728,-134
32-7,10410634,-102
32-8,10414540,-120
32-9,10418446,-3
32-10,10422352,107
32-11,10426258,8
32-12,10430164,-67
32-13,10434070,-51
32-14,10437976,-42
32-15,10441882,-33
32-16,10445788,24
32-17,10449694,132
32-18,10453600,97
32-19,10457506,-26
32-20,10461412,-61
32-21,10465318,-67
32-22,10469224,-76
32-23,10473130,-84
32-24,10477036,-31
32-25,10480942,76
32-26,10484848,94
32-27,10488754,9
32-28,10492660,-44
32-29,10496566,15
32-30,10500472,-1
32-31,10504378,-70
32-32,10508284,46
32-1,10512196,165
32-2,10516102,125
32-3,10520008,47
32-4,10523914,-8
32-5,10527820,-19
32-6,10531726,-73
32-7,10535632,-85
32-8,10539538,67
32-9,10543444,85
32-10,10547350,-71
32-11,10551256,-93
32-12,10555162,-48
32-13,10559068,-104
32-14,10562974,-174
32-15,10566880,-88
32-16,10570786,57
32-17,10574692,15
32-18,10578598,-83
32-19,10582504,-109
32-20,10586410,-105
32-21,10590316,-68
32-22,10594222,-57
32-23,10598128,43
32-24,10602034,148
32-25,10605940,25
32-26,10609846,-46
32-27,10613752,5
32-28,10617658,-7
32-29,10621564,-1
32-30,10625470,27
32-31,10629376,69
32-32,10633282,125
32-1,10637224,75
32-2,10641130,-56
32-3,10645036,-111
32-4,10648942,-109
32-5,10652848,-138
32-6,10656754,-69
32-7,10660660,50
32-8,10664566,-11
32-9,10668472,-121
32-10,10672378,-137
32-11,10676284,-150
32-12,10680190,-191
32-13,10684096,-196
32-14,10688002,-59
32-15,10691908,35
32-16,10695814,-71
32-17,10699720,-139
32-18,10703626,-122
32-19,10707532,-132
32-20,10711438,-148
32-21,10715344,-109
32-22,10719250,47
32-23,10723156,149
32-24,10727062,58
32-25,10730968,-41
32-26,10734874,-8
32-27,10738780,14
32-28,10742686,-24
32-29,10746592,58
32-30,10750498,177
32-31,10754404,187
32-32,10758310,133
32-1,10762191,10
32-2,10766097,-51
32-3,10770003,-33
32-4,10773909,-56
32-5,10777815,5
32-6,10781721,63
32-7,10785627,-41
32-8,10789533,-93
32-9,10793439,-48
32-10,10797345,-89
32-11,10801251,-158
32-12,10805157,-103
32-13,10809063,44
32-14,10812969,67
32-15,10816875,-67
32-16,10820781,-113
32-17,10824687,-60
32-18,10828593,-88
32-19,10832499,-150
32-20,10836405,-81
32-21,10840311,44
32-22,10844217,2
32-23,10848123,-102
32-24,10852029,-116
32-25,10855935,-115
32-26,10859841,-88
32-27,10863747,-41
32-28,10867653,20
32-29,10871559,128
32-30,10875465,108
32-31,10879371,-48
32-32,10883277,-84
32-1,10887189,-13
32-2,10891095,-55
32-3,10895001,-126
32-4,10898907,-49
32-5,10902813,40
32-6,10906719,-8
32-7,10910625,-104
32-8,10914531,-104
32-9,10918437,-47
32-10,10922343,-102
32-11,10926249,-100
32-12,10930155,58
32-13,10934061,67
32-14,10937967,-38
32-15,10941873,-54
32-16,10945779,-85
32-17,10949685,-160
32-18,10953591,-176
32-19,10957497,-64
32-20,10961403,25
32-21,10965309,-83
32-22,10969215,-182
32-23,10973121,-150
32-24,10977027,-166
32-25,10980933,-233
32-26,10984839,-181
32-27,10988745,-38
32-28,10992651,49
32-29,10996557,36
32-30,11000463,-56
32-31,11004369,-101
32-32,11008275,-67
32-1,11012186,-125
32-2,11016092,-127
32-3,11019998,69
32-4,11023904,147
32-5,11027810,-4
32-6,11031716,-113
32-7,11035622,-80
32-8,11039528,-60
32-9,11043434,-108
32-10,11047340,-48
32-11,11051246,86
32-12,11055152,41
32-13,11059058,-70
32-14,11062964,-60
32-15,11066870,-42
32-16,11070776,-60
32-17,11074682,-27
32-18,11078588,71
32-19,11082494,87
32-20,11086400,-27
32-21,11090306,-75
32-22,11094212,-59
32-23,11098118,-77
32-24,11102024,-102
32-25,11105930,-59
32-26,11109836,70
32-27,11113742,68
32-28,11117648,-21
32-29,11121554,39
32-30,11125460,53
32-31,11129366,-67
32-32,11133272,-102
32-1,11137184,5
32-2,11141090,116
32-3,11144996,109
32-4,11148902,37
32-5,11152808,-43
32-6,11156714,-81
32-7,11160620,-64
32-8,11164526,-50
32-9,11168432,42
32-10,11172338,96
32-11,11176244,-30
32-12,11180150,-92
32-13,11184056,-17
32-14,11187962,-2
32-15,11191868,-74
32-16,11195774,-67
32-17,11199680,85
32-18,11203586,134
32-19,11207492,4
32-20,11211398,-59
32-21,11215304,-11
32-22,11219210,-12
32-23,11223116,-72
32-24,11227022,-42
32-25,11230928,60
32-26,11234834,93
32-27,11238740,33
32-28,11242646,-16
32-29,11246552,22
32-30,11250458,3
32-31,11254364,-58
32-32,11258270,44
32-1,11262182,158
32-2,11266088,132
32-3,11269994,39
32-4,11273900,-49
32-5,11277806,-71
32-6,11281712,-76
32-7,11285618,-37
32-8,11289524,87
32-9,11293430,91
32-10,11297336,-39
32-11,11301242,-82
32-12,11305148,-27
32-13,11309054,-27
32-14,11312960,-106
32-15,11316866,-65
32-16,11320772,66
32-17,11324678,14
32-18,11328584,-99
32-19,11332490,-97
32-20,11336396,-92
32-21,11340302,-109
32-22,11344208,-80
32-23,11348114,46
32-24,11352020,130
32-25,11355926,33
32-26,11359832,-24
32-27,11363738,6
32-28,11367644,6
32-29,11371550,42
32-30,11375456,69
32-31,11379362,97
32-32,11383268,173
32-1,11387210,146
32-2,11391116,19
32-3,11395022,-51
32-4,11398928,-58
32-5,11402834,-72
32-6,11406740,-27
32-7,11410646,71
32-8,11414552,32
32-9,11418458,-90
32-10,11422364,-105
32-11,11426270,-48
32-12,11430176,-75
32-13,11434082,-141
32-14,11437988,-36
32-15,11441894,68
32-16,11445800,-49
32-17,11449706,-149
32-18,11453612,-122
32-19,11457518,-102
32-20,11461424,-173
32-21,11465330,-197
32-22,11469236,-34
32-23,11473142,69
32-24,11477048,-23
32-25,11480954,-88
32-26,11484860,-23
32-27,11488766,22
32-28,11492672,-14
32-29,11496578,38
32-30,11500484,129
32-31,11504390,125
32-32,11508296,75
32-1,11512177,-40
32-2,11516083,-120
32-3,11519989,-103
32-4,11523895,-85
32-5,11527801,-12
32-6,11531707,40
32-7,11535613,-47
32-8,11539519,-136
32-9,11543425,-130
32-10,11547331,-82
32-11,11551237,-96
32-12,11555143,-108
32-13,11559049,10
32-14,11562955,57
32-15,11566861,-62
32-16,11570767,-95
32-17,11574673,-20
32-18,11578579,-52
32-19,11582485,-154
32-20,11586391,-70
32-21,11590297,112
32-22,11594203,68
32-23,11598109,-72
32-24,11602015,-55
32-25,11605921,-9
32-26,11609827,-22
32-27,11613733,2
32-28,11617639,105
32-29,11621545,230
32-30,11625451,216
32-31,11629357,55
32-32,11633263,-32
32-1,11637175,-11
32-2,11641081,-15
32-3,11644987,-1
32-4,11648893,88
32-5,11652799,130
32-6,11656705,76
32-7,11660611,-16
32-8,11664517,-76
32-9,11668423,-69
32-10,11672329,-43
32-11,11676235,16
32-12,11680141,96
32-13,11684047,59
32-14,11687953,-29
32-15,11691859,-39
32-16,11695765,-45
32-17,11699671,-92
32-18,11703577,-88
32-19,11707483,19
32-20,11711389,103
32-21,11715295,50
32-22,11719201,-41
32-23,11723107,-39
32-24,11727013,-13
32-25,11730919,-67
32-26,11734825,-59
32-27,11738731,52
32-28,11742637,121
32-29,11746543,131
32-30,11750449,41
32-31,11754355,-80
32-32,11758261,-91
32-1,11762172,-109
32-2,11766078,-109
32-3,11769984,2
32-4,11773890,61
32-5,11777796,-9
32-6,11781702,-93
32-7,11785608,-65
32-8,11789514,-12
32-9,11793420,-35
32-10,11797326,16
32-11,11801232,103
32-12,11805138,31
32-13,11809044,-83
32-14,11812950,-88
32-15,11816856,-50
32-16,11820762,-53
32-17,11824668,-53
32-18,11828574,38
32-19,11832480,107
32-20,11836386,24
32-21,11840292,-72
32-22,11844198,-75
32-23,11848104,-68
32-24,11852010,-94
32-25,11855916,-60
32-26,11859822,64
32-27,11863728,39
32-28,11867634,-77
32-29,11871540,-26
32-30,11875446,-5
32-31,11879352,-108
32-32,11883258,-129
32-1,11887170,-36
32-2,11891076,81
32-3,11894982,82
32-4,11898888,4
32-5,11902794,-42
32-6,11906700,-48
32-7,11910606,-37
32-8,11914512,-17
32-9,11918418,58
32-10,11922324,68
32-11,11926230,-55
32-12,11930136,-139
32-13,11934042,-131
32-14,11937948,-99
32-15,11941854,-133
32-16,11945760,-137
32-17,11949666,9
32-18,11953572,72
32-19,11957478,-44
32-20,11961384,-145
32-21,11965290,-146
32-22,11969196,-161
32-23,11973102,-215
32-24,11977008,-134
32-25,11980914,-3
32-26,11984820,19
32-27,11988726,-19
32-28,11992632,-66
32-29,11996538,-44
32-30,12000444,-36
32-31,12004350,-77
32-32,12008256,-3
32-1,12012168,84
32-2,12016074,90
32-3,12019980,72
32-4,12023886,3
32-5,12027792,-79
32-6,12031698,-129
32-7,12035604,-100
32-8,12039510,19
32-9,12043416,62
32-10,12047322,-25
32-11,12051228,-89
32-12,12055134,-85
32-13,12059040,-81
32-14,12062946,-88
32-15,12066852,-31
32-16,12070758,61
32-17,12074664,11
32-18,12078570,-127
32-19,12082476,-174
32-20,12086382,-129
32-21,12090288,-90
32-22,12094194,-105
32-23,12098100,-14
32-24,12102006,113
32-25,12105912,24
32-26,12109818,-67
32-27,12113724,-55
32-28,12117630,-72
32-29,12121536,-35
32-30,12125442,-3
32-31,12129348,-16
32-32,12133254,27
32-1,12137165,52
32-2,12141071,-26
32-3,12144977,-117
32-4,12148883,-121
32-5,12152789,-102
32-6,12156695,-56
32-7,12160601,30
32-8,12164507,-15
32-9,12168413,-134
32-10,12172319,-155
32-11,12176225,-121
32-12,12180131,-124
32-13,12184037,-140
32-14,12187943,-42
32-15,12191849,57
32-16,12195755,-19
32-17,12199661,-114
32-18,12203567,-121
32-19,12207473,-109
32-20,12211379,-111
32-21,12215285,-92
32-22,12219191,25
32-23,12223097,120
32-24,12227003,21
32-25,12230909,-80
32-26,12234815,-8
32-27,12238721,40
32-28,12242627,19
32-29,12246533,77
32-30,12250439,134
32-31,12254345,158
32-32,12258251,175
32-1,12262163,87
32-2,12266069,2
32-3,12269975,13
32-4,12273881,2
32-5,12277787,30
32-6,12281693,116
32-7,12285599,87
32-8,12289505,-13
32-9,12293411,-54
32-10,12297317,-80
32-11,12301223,-114
32-12,12305129,-86
32-13,12309035,25
32-14,12312941,71
32-15,12316847,-15
32-16,12320753,-94
32-17,12324659,-116
32-18,12328565,-136
32-19,12332471,-140
32-20,12336377,-57
32-21,12340283,48
32-22,12344189,-27
32-23,12348095,-164
32-24,12352001,-172
32-25,12355907,-156
32-26,12359813,-136
32-27,12363719,-100
32-28,12367625,-32
32-29,12371531,82
32-30,12375437,64
32-31,12379343,-68
32-32,12383249,-125
32-1,12387160,-110
32-2,12391066,-93
32-3,12394972,-86
32-4,12398878,-6
32-5,12402784,97
32-6,12406690,72
32-7,12410596,-12
32-8,12414502,-52
32-9,12418408,-58
32-10,12422314,-50
32-11,12426220,7
32-12,12430126,106
32-13,12434032,115
32-14,12437938,16
32-15,12441844,-61
32-16,12445750,-82
32-17,12449656,-88
32-18,12453562,-47
32-19,12457468,64
32-20,12461374,129
32-21,12465280,76
32-22,12469186,17
32-23,12473092,2
32-24,12476998,-36
32-25,12480904,-71
32-26,12484810,-30
32-27,12488716,42
32-28,12492622,102
32-29,12496528,133
32-30,12500434,55
32-31,12504340,-39
32-32,12508246,-64
32-1,12512158,-122
32-2,12516064,-112
32-3,12519970,15
32-4,12523876,49
32-5,12527782,-19
32-6,12531688,-79
32-7,12535594,-89
32-8,12539500,-68
32-9,12543406,-86
32-10,12547312,-55
32-11,12551218,49
32-12,12555124,23
32-13,12559030,-107
32-14,12562936,-147
32-15,12566842,-107
32-16,12570748,-96
32-17,12574654,-99
32-18,12578560,-44
32-19,12582466,6
32-20,12586372,-37
32-21,12590278,-87
32-22,12594184,-74
32-23,12598090,-53
32-24,12601996,-47
32-25,12605902,6
32-26,12609808,106
32-27,12613714,111
32-28,12617620,59
32-29,12621526,101
32-30,12625432,93
32-31,12629338,-11
32-32,12633244,-31
32-1,12637156,29
32-2,12641062,72
32-3,12644968,86
32-4,12648874,80
32-5,12652780,30
32-6,12656686,-24
32-7,12660592,-58
32-8,12664498,-84
32-9,12668404,7
32-10,12672310,94
32-11,12676216,-34
32-12,12680122,-182
32-13,12684028,-177
32-14,12687934,-134
32-15,12691840,-123
32-16,12695746,-84
32-17,12699652,13
32-18,12703558,40
32-19,12707464,-45
32-20,12711370,-97
32-21,12715276,-57
32-22,12719182,-16
32-23,12723088,-22
32-24,12726994,-18
32-25,12730900,-5
32-26,12734806,-4
32-27,12738712,-31
32-28,12742618,-78
32-29,12746524,-49
32-30,12750430,-54
32-31,12754336,-118
32-32,12758242,-55
32-1,12762153,26
32-2,12766059,21
32-3,12769965,-8
32-4,12773871,-72
32-5,12777777,-134
32-6,12781683,-173
32-7,12785589,-135
32-8,12789495,2
32-9,12793401,17
32-10,12797307,-126
32-11,12801213,-185
32-12,12805119,-134
32-13,12809025,-105
32-14,12812931,-93
32-15,12816837,-25
32-16,12820743,76
32-17,12824649,73
32-18,12828555,-58
32-19,12832461,-177
32-20,12836367,-189
32-21,12840273,-159
32-22,12844179,-147
32-23,12848085,-53
32-24,12851991,48
32-25,12855897,13
32-26,12859803,6
32-27,12863709,28
32-28,12867615,0
32-29,12871521,22
32-30,12875427,40
32-31,12879333,54
32-32,12883239,100
32-1,12887181,84
32-2,12891087,49
32-3,12894993,0
32-4,12898899,-77
32-5,12902805,-110
32-6,12906711,-49
32-7,12910617,57
32-8,12914523,39
32-9,12918429,-74
32-10,12922335,-116
32-11,12926241,-107
32-12,12930147,-116
32-13,12934053,-122
32-14,12937959,-43
32-15,12941865,45
32-16,12945771,-13
32-17,12949677,-124
32-18,12953583,-137
32-19,12957489,-99
32-20,12961395,-119
32-21,12965301,-136
32-22,12969207,-45
32-23,12973113,24
32-24,12977019,-81
32-25,12980925,-192
32-26,12984831,-124
32-27,12988737,-59
32-28,12992643,-81
32-29,12996549,-3
32-30,13000455,90
32-31,13004361,84
32-32,13008267,66
32-1,13012149,38
32-2,13016055,4
32-3,13019961,-22
32-4,13023867,-44
32-5,13027773,-8
32-6,13031679,52
32-7,13035585,37
32-8,13039491,-45
32-9,13043397,-93
32-10,13047303,-70
32-11,13051209,-65
32-12,13055115,-57
32-13,13059021,63
32-14,13062927,134
32-15,13066833,50
32-16,13070739,-15
32-17,13074645,-33
32-18,13078551,-60
32-19,13082457,-61
32-20,13086363,-2
32-21,13090269,81
32-22,13094175,54
32-23,13098081,-50
32-24,13101987,-99
32-25,13105893,-109
32-26,13109799,-83
32-27,13113705,-43
32-28,13117611,7
32-29,13121517,77
32-30,13125423,83
32-31,13129329,44
32-32,13133235,-5
32-1,13137146,-66
32-2,13141052,-102
32-3,13144958,-104
32-4,13148864,-54
32-5,13152770,5
32-6,13156676,3
32-7,13160582,-65
32-8,13164488,-132
32-9,13168394,-120
32-10,13172300,-116
32-11,13176206,-114
32-12,13180112,-24
32-13,13184018,17
32-14,13187924,-33
32-15,13191830,-83
32-16,13195736,-112
32-17,13199642,-120
32-18,13203548,-117
32-19,13207454,-53
32-20,13211360,37
32-21,13215266,18
32-22,13219172,-52
32-23,13223078,-67
32-24,13226984,-77
32-25,13230890,-134
32-26,13234796,-136
32-27,13238702,-38
32-28,13242608,31
32-29,13246514,40
32-30,13250420,17
32-31,13254326,-47
32-32,13258232,-83
32-1,13262144,-95
32-2,13266050,-76
32-3,13269956,-5
32-4,13273862,6
32-5,13277768,-56
32-6,13281674,-106
32-7,13285580,-115
32-8,13289486,-104
32-9,13293392,-112
32-10,13297298,-63
32-11,13301204,39
32-12,13305110,40
32-13,13309016,-62
32-14,13312922,-115
32-15,13316828,-77
32-16,13320734,-81
32-17,13324640,-91
32-18,13328546,49
32-19,13332452,141
32-20,13336358,47
32-21,13340264,-45
32-22,13344170,-73
32-23,13348076,-78
32-24,13351982,-71
32-25,13355888,-15
32-26,13359794,104
32-27,13363700,111
32-28,13367606,66
32-29,13371512,110
32-30,13375418,67
32-31,13379324,-54
32-32,13383230,-56
32-1,13387141,38
32-2,13391047,103
32-3,13394953,83
32-4,13398859,42
32-5,13402765,8
32-6,13406671,-47
32-7,13410577,-86
32-8,13414483,-68
32-9,13418389,17
32-10,13422295,73
32-11,13426201,25
32-12,13430107,-54
32-13,13434013,-76
32-14,13437919,-51
32-15,13441825,-73
32-16,13445731,-78
32-17,13449637,40
32-18,13453543,108
32-19,13457449,29
32-20,13461355,-47
32-21,13465261,-36
32-22,13469167,-25
32-23,13473073,-29
32-24,13476979,35
32-25,13480885,105
32-26,13484791,116
32-27,13488697,47
32-28,13492603,-32
32-29,13496509,27
32-30,13500415,35
32-31,13504321,-54
32-32,13508227,35
32-1,13512139,137
32-2,13516045,96
32-3,13519951,55
32-4,13523857,-1
32-5,13527763,-98
32-6,13531669,-159
32-7,13535575,-126
32-8,13539481,-23
32-9,13543387,18
32-10,13547293,-47
32-11,13551199,-118
32-12,13555105,-107
32-13,13559011,-85
32-14,13562917,-95
32-15,13566823,-39
32-16,13570729,42
32-17,13574635,17
32-18,13578541,-87
32-19,13582447,-150
32-20,13586353,-129
32-21,13590259,-108
32-22,13594165,-118
32-23,13598071,-37
32-24,13601977,49
32-25,13605883,14
32-26,13609789,-5
32-27,13613695,-19
32-28,13617601,-56
32-29,13621507,-28
32-30,13625413,-14
32-31,13629319,-2
32-32,13633225,41
32-1,13637320,25
32-2,13641226,-7
32-3,13645132,-56
32-4,13649038,-150
32-5,13652944,-174
32-6,13656850,-70
32-7,13660756,33
32-8,13664662,20
32-9,13668568,-56
32-10,13672474,-108
32-11,13676380,-118
32-12,13680286,-125
32-13,13684192,-112
32-14,13688098,-17
32-15,13692004,64
32-16,13695910,22
32-17,13699816,-88
32-18,13703722,-138
32-19,13707628,-99
32-20,13711534,-101
32-21,13715440,-109
32-22,13719346,-15
32-23,13723252,40
32-24,13727158,-54
32-25,13731064,-149
32-26,13734970,-90
32-27,13738876,-45
32-28,13742782,-106
32-29,13746688,-40
32-30,13750594,58
32-31,13754500,38
32-32,13758406,39
32-1,13762134,19
32-2,13766040,-47
32-3,13769946,-83
32-4,13773852,-69
32-5,13777758,26
32-6,13781664,106
32-7,13785570,76
32-8,13789476,-14
32-9,13793382,-77
32-10,13797288,-80
32-11,13801194,-77
32-12,13805100,-44
32-13,13809006,48
32-14,13812912,83
32-15,13816818,11
32-16,13820724,-92
32-17,13824630,-164
32-18,13828536,-188
32-19,13832442,-181
32-20,13836348,-104
32-21,13840254,24
32-22,13844160,39
32-23,13848066,-23
32-24,13851972,-52
32-25,13855878,-45
32-26,13859784,-10
32-27,13863690,-29
32-28,13867596,-19
32-29,13871502,120
32-30,13875408,148
32-31,13879314,29
32-32,13883220,-39
32-1,13887132,-40
32-2,13891038,-53
32-3,13894944,-73
32-4,13898850,5
32-5,13902756,105
32-6,13906662,92
32-7,13910568,6
32-8,13914474,-105
32-9,13918380,-169
32-10,13922286,-170
32-11,13926192,-137
32-12,13930098,-74
32-13,13934004,-43
32-14,13937910,-80
32-15,13941816,-155
32-16,13945722,-190
32-17,13949628,-148
32-18,13953534,-71
32-19,13957440,-8
32-20,13961346,-25
32-21,13965252,-74
32-22,13969158,-89
32-23,13973064,-89
32-24,13976970,-107
32-25,13980876,-160
32-26,13984782,-129
32-27,13988688,0
32-28,13992594,56
32-29,13996500,58
32-30,14000406,52
32-31,14004312,15
32-32,14008218,-20
32-1,14012130,-21
32-2,14016036,19
32-3,14019942,45
32-4,14023848,29
32-5,14027754,1
32-6,14031660,-73
32-7,14035566,-117
32-8,14039472,-85
32-9,14043378,-71
32-10,14047284,-9
32-11,14051190,106
32-12,14055096,129
32-13,14059002,51
32-14,14062908,-47
32-15,14066814,-69
32-16,14070720,-41
32-17,14074626,-30
32-18,14078532,49
32-19,14082438,135
32-20,14086344,82
32-21,14090250,-40
32-22,14094156,-109
32-23,14098062,-111
32-24,14101968,-112
32-25,14105874,-91
32-26,14109780,-5
32-27,14113686,6
32-28,14117592,-38
32-29,14121498,10
32-30,14125404,10
32-31,14129310,-108
32-32,14133216,-139
32-1,14137127,-38
32-2,14141033,49
32-3,14144939,42
32-4,14148845,10
32-5,14152751,37
32-6,14156657,38
32-7,14160563,-48
32-8,14164469,-76
32-9,14168375,17
32-10,14172281,79
32-11,14176187,30
32-12,14180093,-55
32-13,14183999,-95
32-14,14187905,-92
32-15,14191811,-121
32-16,14195717,-107
32-17,14199623,24
32-18,14203529,107
32-19,14207435,66
32-20,14211341,-22
32-21,14215247,-71
32-22,14219153,-58
32-23,14223059,-63
32-24,14226965,-23
32-25,14230871,65
32-26,14234777,78
32-27,14238683,19
32-28,14242589,-10
32-29,14246495,27
32-30,14250401,4
32-31,14254307,-44
32-32,14258213,40
32-1,14262186,93
32-2,14266092,57
32-3,14269998,45
32-4,14273904,9
32-5,14277810,-71
32-6,14281716,-124
32-7,14285622,-65
32-8,14289528,34
32-9,14293434,35
32-10,14297340,-18
32-11,14301246,-72
32-12,14305152,-98
32-13,14309058,-101
32-14,14312964,-102
32-15,14316870,-34
32-16,14320776,53
32-17,14324682,40
32-18,14328588,-42
32-19,14332494,-121
32-20,14336400,-141
32-21,14340306,-133
32-22,14344212,-129
32-23,14348118,-34
32-24,14352024,75
32-25,14355930,43
32-26,14359836,0
32-27,14363742,-2
32-28,14367648,-9
32-29,14371554,58
32-30,14375460,111
32-31,14379366,100
32-32,14383272,137
32-1,14387214,150
32-2,14391120,69
32-3,14395026,4
32-4,14398932,-41
32-5,14402838,-72
32-6,14406744,-17
32-7,14410650,42
32-8,14414556,19
32-9,14418462,-14
32-10,14422368,-62
32-11,14426274,-119
32-12,14430180,-155
32-13,14434086,-150
32-14,14437992,-53
32-15,14441898,23
32-16,14445804,-34
32-17,14449710,-112
32-18,14453616,-116
32-19,14457522,-150
32-20,14461428,-235
32-21,14465334,-195
32-22,14469240,-99
32-23,14473146,-103
32-24,14477052,-134
32-25,14480958,-140
32-26,14484864,-63
32-27,14488770,2
32-28,14492676,-56
32-29,14496582,2
32-30,14500488,115
32-31,14504394,95
32-32,14508300,98
32-1,14512120,104
32-2,14516026,66
32-3,14519932,57
32-4,14523838,27
32-5,14527744,33
32-6,14531650,100
32-7,14535556,113
32-8,14539462,42
32-9,14543368,-60
32-10,14547274,-124
32-11,14551180,-130
32-12,14555086,-76
32-13,14558992,40
32-14,14562898,98
32-15,14566804,58
32-16,14570710,4
32-17,14574616,-41
32-18,14578522,-72
32-19,14582428,-87
32-20,14586334,-28
32-21,14590240,96
32-22,14594146,109
32-23,14598052,36
32-24,14601958,-8
32-25,14605864,-41
32-26,14609770,-22
32-27,14613676,18
32-28,14617582,67
32-29,14621488,158
32-30,14625394,158
32-31,14629300,73
32-32,14633206,46
32-1,14637118,22
32-2,14641024,-47
32-3,14644930,-57
32-4,14648836,42
32-5,14652742,128
32-6,14656648,100
32-7,14660554,15
32-8,14664460,-47
32-9,14668366,-78
32-10,14672272,-93
32-11,14676178,-37
32-12,14680084,47
32-13,14683990,39
32-14,14687896,-15
32-15,14691802,-76
32-16,14695708,-136
32-17,14699614,-155
32-18,14703520,-139
32-19,14707426,-56
32-20,14711332,36
32-21,14715238,43
32-22,14719144,11
32-23,14723050,-45
32-24,14726956,-123
32-25,14730862,-151
32-26,14734768,-71
32-27,14738674,40
32-28,14742580,82
32-29,14746486,88
32-30,14750392,47
32-31,14754298,-27
32-32,14758204,-78
32-1,14762115,-156
32-2,14766021,-153
32-3,14769927,-13
32-4,14773833,27
32-5,14777739,-50
32-6,14781645,-65
32-7,14785551,-49
32-8,14789457,-103
32-9,14793363,-180
32-10,14797269,-143
32-11,14801175,-12
32-12,14805081,35
32-13,14808987,-4
32-14,14812893,-34
32-15,14816799,-79
32-16,14820705,-143
32-17,14824611,-132
32-18,14828517,-38
32-19,14832423,28
32-20,14836329,50
32-21,14840235,26
32-22,14844141,-58
32-23,14848047,-103
32-24,14851953,-92
32-25,14855859,-34
32-26,14859765,83
32-27,14863671,79
32-28,14867577,18
32-29,14871483,64
32-30,14875389,16
32-31,14879295,-138
32-32,14883201,-176
32-1,14887205,-85
32-2,14891111,14
32-3,14895017,19
32-4,14898923,-9
32-5,14902829,4
32-6,14906735,-3
32-7,14910641,-68
32-8,14914547,-101
32-9,14918453,-28
32-10,14922359,17
32-11,14926265,-32
32-12,14930171,-59
32-13,14934077,-60
32-14,14937983,-72
32-15,14941889,-82
32-16,14945795,-37
32-17,14949701,80
32-18,14953607,139
32-19,14957513,109
32-20,14961419,50
32-21,14965325,13
32-22,14969231,20
32-23,14973137,29
32-24,14977043,64
32-25,14980949,112
32-26,14984855,118
32-27,14988761,82
32-28,14992667,41
32-29,14996573,49
32-30,15000479,-2
32-31,15004385,-73
32-32,15008291,12
32-1,15012111,105
32-2,15016017,103
32-3,15019923,95
32-4,15023829,80
32-5,15027735,30
32-6,15031641,-43
32-7,15035547,-35
32-8,15039453,55
32-9,15043359,75
32-10,15047265,27
32-11,15051171,-18
32-12,15055077,-60
32-13,15058983,-106
32-14,15062889,-109
32-15,15066795,-10
32-16,15070701,88
32-17,15074607,69
32-18,15078513,19
32-19,15082419,-1
32-20,15086325,-21
32-21,15090231,-59
32-22,15094137,-68
32-23,15098043,23
32-24,15101949,107
32-25,15105855,58
32-26,15109761,22
32-27,15113667,17
32-28,15117573,-27
32-29,15121479,6
32-30,15125385,52
32-31,15129291,71
32-32,15133197,134
32-1,15137230,130
32-2,15141136,60
32-3,15145042,11
32-4,15148948,-35
32-5,15152854,-69
32-6,15156760,-50
32-7,15160666,21
32-8,15164572,49
32-9,15168478,5
32-10,15172384,-48
32-11,15176290,-90
32-12,15180196,-131
32-13,15184102,-113
32-14,15188008,-6
32-15,15191914,43
32-16,15195820,-6
32-17,15199726,-41
32-18,15203632,-53
32-19,15207538,-89
32-20,15211444,-143
32-21,15215350,-125
32-22,15219256,-33
32-23,15223162,11
32-24,15227068,-36
32-25,15230974,-132
32-26,15234880,-112
32-27,15238786,-50
32-28,15242692,-113
32-29,15246598,-74
32-30,15250504,37
32-31,15254410,10
32-32,15258316,-18
32-1,15262106,-31
32-2,15266012,-79
32-3,15269918,-118
32-4,15273824,-118
32-5,15277730,-27
32-6,15281636,45
32-7,15285542,20
32-8,15289448,-2
32-9,15293354,-28
32-10,15297260,-93
32-11,15301166,-115
32-12,15305072,-35
32-13,15308978,52
32-14,15312884,32
32-15,15316790,-33
32-16,15320696,-78
32-17,15324602,-112
32-18,15328508,-136
32-19,15332414,-129
32-20,15336320,-41
32-21,15340226,43
32-22,15344132,-19
32-23,15348038,-100
32-24,15351944,-114
32-25,15355850,-129
32-26,15359756,-115
32-27,15363662,-95
32-28,15367568,-55
32-29,15371474,31
32-30,15375380,16
32-31,15379286,-89
32-32,15383192,-98
32-1,15387104,-71
32-2,15391010,-137
32-3,15394916,-143
32-4,15398822,-17
32-5,15402728,33
32-6,15406634,-24
32-7,15410540,-50
32-8,15414446,-40
32-9,15418352,-74
32-10,15422258,-133
32-11,15426164,-89
32-12,15430070,-6
32-13,15433976,-20
32-14,15437882,-63
32-15,15441788,-111
32-16,15445694,-166
32-17,15449600,-174
32-18,15453506,-154
32-19,15457412,-100
32-20,15461318,-46
32-21,15465224,-48
32-22,15469130,-71
32-23,15473036,-117
32-24,15476942,-169
32-25,15480848,-184
32-26,15484754,-132
32-27,15488660,-32
32-28,15492566,16
32-29,15496472,-9
32-30,15500378,-62
32-31,15504284,-74
32-32,15508190,-50
32-1,15512254,-113
32-2,15516160,-119
32-3,15520066,10
32-4,15523972,15
32-5,15527878,-94
32-6,15531784,-117
32-7,15535690,-93
32-8,15539596,-137
32-9,15543502,-189
32-10,15547408,-119
32-11,15551314,-16
32-12,15555220,9
32-13,15559126,-31
32-14,15563032,-97
32-15,15566938,-102
32-16,15570844,-78
32-17,15574750,-66
32-18,15578656,1
32-19,15582562,38
32-20,15586468,20
32-21,15590374,-8
32-22,15594280,-64
32-23,15598186,-109
32-24,15602092,-120
32-25,15605998,-76
32-26,15609904,4
32-27,15613810,5
32-28,15617716,-28
32-29,15621622,0
32-30,15625528,-31
32-31,15629434,-151
32-32,15633340,-185
32-1,15637099,-73
32-2,15641005,41
32-3,15644911,48
32-4,15648817,9
32-5,15652723,21
32-6,15656629,47
32-7,15660535,-1
32-8,15664441,-54
32-9,15668347,-11
32-10,15672253,11
32-11,15676159,-52
32-12,15680065,-84
32-13,15683971,-74
32-14,15687877,-103
32-15,15691783,-170
32-16,15695689,-152
32-17,15699595,-24
32-18,15703501,29
32-19,15707407,-26
32-20,15711313,-71
32-21,15715219,-67
32-22,15719125,-81
32-23,15723031,-124
32-24,15726937,-74
32-25,15730843,10
32-26,15734749,17
32-27,15738655,-8
32-28,15742561,-23
32-29,15746467,12
32-30,15750373,3
32-31,15754279,-79
32-32,15758185,-38
32-1,15762096,65
32-2,15766002,82
32-3,15769908,78
32-4,15773814,67
32-5,15777720,4
32-6,15781626,-71
32-7,15785532,-76
32-8,15789438,-28
32-9,15793344,-41
32-10,15797250,-91
32-11,15801156,-100
32-12,15805062,-117
32-13,15808968,-169
32-14,15812874,-209
32-15,15816780,-149
32-16,15820686,-12
32-17,15824592,14
32-18,15828498,-44
32-19,15832404,-53
32-20,15836310,-86
32-21,15840216,-138
32-22,15844122,-114
32-23,15848028,-33
32-24,15851934,25
32-25,15855840,12
32-26,15859746,-3
32-27,15863652,-8
32-28,15867558,-8
32-29,15871464,53
32-30,15875370,62
32-31,15879276,44
32-32,15883182,108
32-1,15887216,123
32-2,15891122,66
32-3,15895028,26
32-4,15898934,-21
32-5,15902840,-54
32-6,15906746,-27
32-7,15910652,17
32-8,15914558,9
32-9,15918464,-24
32-10,15922370,-33
32-11,15926276,-41
32-12,15930182,-77
32-13,15934088,-79
32-14,15937994,5
32-15,15941900,53
32-16,15945806,14
32-17,15949712,-29
32-18,15953618,-54
32-19,15957524,-78
32-20,15961430,-117
32-21,15965336,-96
32-22,15969242,20
32-23,15973148,106
32-24,15977054,77
32-25,15980960,-15
32-26,15984866,-19
32-27,15988772,6
32-28,15992678,-30
32-29,15996584,46
32-30,16000490,142
32-31,16004396,113
32-32,16008302,96
32-1,16012092,85
32-2,16015998,70
32-3,16019904,83
32-4,16023810,63
32-5,16027716,54
32-6,16031622,77
32-7,16035528,67
32-8,16039434,18
32-9,16043340,-16
32-10,16047246,-32
32-11,16051152,-58
32-12,16055058,-43
32-13,16058964,30
32-14,16062870,50
32-15,16066776,10
32-16,16070682,-23
32-17,16074588,-85
32-18,16078494,-175
32-19,16082400,-191
32-20,16086306,-113
32-21,16090212,-28
32-22,16094118,7
32-23,16098024,3
32-24,16101930,-39
32-25,16105836,-107
32-26,16109742,-121
32-27,16113648,-94
32-28,16117554,-16
32-29,16121460,108
32-30,16125366,108
32-31,16129272,35
32-32,16133178,31
32-1,16137242,23
32-2,16141148,-36
32-3,16145054,-83
32-4,16148960,-26
32-5,16152866,70
32-6,16156772,80
32-7,16160678,40
32-8,16164584,-11
32-9,16168490,-65
32-10,16172396,-85
32-11,16176302,-18
32-12,16180208,67
32-13,16184114,48
32-14,16188020,-4
32-15,16191926,-18
32-16,16195832,-50
32-17,16199738,-97
32-18,16203644,-105
32-19,16207550,-32
32-20,16211456,25
32-21,16215362,1
32-22,16219268,-11
32-23,16223174,-22
32-24,16227080,-106
32-25,16230986,-180
32-26,16234892,-122
32-27,16238798,-5
32-28,16242704,58
32-29,16246610,88
32-30,16250516,55
32-31,16254422,-7
32-32,16258328,-29
32-1,16262087,-78
32-2,16265993,-77
32-3,16269899,11
32-4,16273805,45
32-5,16277711,25
32-6,16281617,-10
32-7,16285523,-18
32-8,16289429,-9
32-9,16293335,-26
32-10,16297241,33
32-11,16301147,120
32-12,16305053,80
32-13,16308959,-1
32-14,16312865,-28
32-15,16316771,-69
32-16,16320677,-144
32-17,16324583,-127
32-18,16328489,-27
32-19,16332395,-11
32-20,16336301,-35
32-21,16340207,-32
32-22,16344113,-62
32-23,16348019,-91
32-24,16351925,-87
32-25,16355831,-31
32-26,16359737,71
32-27,16363643,107
32-28,16367549,90
32-29,16371455,96
32-30,16375361,53
32-31,16379267,-58
32-32,16383173,-109
32-1,16387085,-34
32-2,16390991,48
32-3,16394897,29
32-4,16398803,-19
32-5,16402709,-53
32-6,16406615,-95
32-7,16410521,-141
32-8,16414427,-129
32-9,16418333,-27
32-10,16422239,38
32-11,16426145,-35
32-12,16430051,-140
32-13,16433957,-161
32-14,16437863,-160
32-15,16441769,-233
32-16,16445675,-232
32-17,16449581,-96
32-18,16453487,-34
32-19,16457393,-80
32-20,16461299,-118
32-21,16465205,-118
32-22,16469111,-119
32-23,16473017,-141
32-24,16476923,-107
32-25,16480829,-34
32-26,16484735,-20
32-27,16488641,-70
32-28,16492547,-118
32-29,16496453,-101
32-30,16500359,-117
32-31,16504265,-178
32-32,16508171,-108
32-1,16512082,-6
32-2,16515988,-25
32-3,16519894,-72
32-4,16523800,-76
32-5,16527706,-79
32-6,16531612,-116
32-7,16535518,-96
32-8,16539424,-14
32-9,16543330,-3
32-10,16547236,-32
32-11,16551142,-24
32-12,16555048,-16
32-13,16558954,-66
32-14,16562860,-141
32-15,16566766,-97
32-16,16570672,37
32-17,16574578,60
32-18,16578484,-16
32-19,16582390,-62
32-20,16586296,-67
32-21,16590202,-91
32-22,16594108,-113
32-23,16598014,-31
32-24,16601920,57
32-25,16605826,15
32-26,16609732,-24
32-27,16613638,-47
32-28,16617544,-95
32-29,16621450,-63
32-30,16625356,-43
32-31,16629262,-48
32-32,16633168,30
32-1,16637232,63
32-2,16641138,1
32-3,16645044,-40
32-4,16648950,-50
32-5,16652856,-57
32-6,16656762,-44
32-7,16660668,-25
32-8,16664574,-41
32-9,16668480,-67
32-10,16672386,-72
32-11,16676292,-69
32-12,16680198,-96
32-13,16684104,-99
32-14,16688010,14
32-15,16691916,101
32-16,16695822,68
32-17,16699728,22
32-18,16703634,-7
32-19,16707540,-45
32-20,16711446,-97
32-21,16715352,-102
32-22,16719258,-42
32-23,16723164,-10
32-24,16727070,-44
32-25,16730976,-90
32-26,16734882,-67
32-27,16738788,-50
32-28,16742694,-93
32-29,16746600,-38
32-30,16750506,52
32-31,16754412,47
32-32,16758318,31
32-1,16762078,6
32-2,16765984,-32
32-3,16769890,-66
32-4,16773796,-98
32-5,16777702,-73
32-6,16781608,-52
32-7,16785514,-66
32-8,16789420,-50
32-9,16793326,-61
32-10,16797232,-104
32-11,16801138,-109
32-12,16805044,-82
32-13,16808950,-27
32-14,16812856,43
32-15,16816762,82
32-16,16820668,83
32-17,16824574,45
32-18,16828480,-29
32-19,16832386,-68
32-20,16836292,5
32-21,16840198,97
32-22,16844104,83
32-23,16848010,57
32-24,16851916,72
32-25,16855822,48
32-26,16859728,11
32-27,16863634,7
32-28,16867540,38
32-29,16871446,81
32-30,16875352,33
32-31,16879258,-74
32-32,16883164,-106
32-1,16887075,-91
32-2,16890981,-131
32-3,16894887,-167
32-4,16898793,-105
32-5,16902699,-49
32-6,16906605,-75
32-7,16910511,-96
32-8,16914417,-103
32-9,16918323,-93
32-10,16922229,-88
32-11,16926135,-103
32-12,16930041,-37
32-13,16933947,81
32-14,16937853,92
32-15,16941759,12
32-16,16945665,-12
32-17,16949571,-38
32-18,16953477,-109
32-19,16957383,-75
32-20,16961289,-14
32-21,16965195,-58
32-22,16969101,-83
32-23,16973007,-56
32-24,16976913,-83
32-25,16980819,-159
32-26,16984725,-141
32-27,16988631,-35
32-28,16992537,-13
32-29,16996443,-56
32-30,17000349,-88
32-31,17004255,-116
32-32,17008161,-121
32-1,17012073,-138
32-2,17015979,-123
32-3,17019885,-42
32-4,17023791,-41
32-5,17027697,-138
32-6,17031603,-186
32-7,17035509,-156
32-8,17039415,-128
32-9,17043321,-135
32-10,17047227,-94
32-11,17051133,18
32-12,17055039,64
32-13,17058945,5
32-14,17062851,-15
32-15,17066757,1
32-16,17070663,-55
32-17,17074569,-83
32-18,17078475,-28
32-19,17082381,-32
32-20,17086287,-96
32-21,17090193,-138
32-22,17094099,-170
32-23,17098005,-192
32-24,17101911,-191
32-25,17105817,-113
32-26,17109723,-13
32-27,17113629,-29
32-28,17117535,-56
32-29,17121441,-25
32-30,17125347,-52
32-31,17129253,-123
32-32,17133159,-148
32-1,17137070,-81
32-2,17140976,30
32-3,17144882,49
32-4,17148788,0
32-5,17152694,-11
32-6,17156600,-13
32-7,17160506,-63
32-8,17164412,-90
32-9,17168318,-36
32-10,17172224,-33
32-11,17176130,-96
32-12,17180036,-113
32-13,17183942,-101
32-14,17187848,-109
32-15,17191754,-146
32-16,17195660,-136
32-17,17199566,-61
32-18,17203472,-22
32-19,17207378,-29
32-20,17211284,-64
32-21,17215190,-93
32-22,17219096,-128
32-23,17223002,-173
32-24,17226908,-113
32-25,17230814,-39
32-26,17234720,-75
32-27,17238626,-125
32-28,17242532,-133
32-29,17246438,-91
32-30,17250344,-75
32-31,17254250,-116
32-32,17258156,-72
32-1,17262068,3
32-2,17265974,-5
32-3,17269880,-28
32-4,17273786,-38
32-5,17277692,-63
32-6,17281598,-99
32-7,17285504,-97
32-8,17289410,-62
32-9,17293316,-59
32-10,17297222,-66
32-11,17301128,-48
32-12,17305034,-34
32-13,17308940,-74
32-14,17312846,-131
32-15,17316752,-74
32-16,17320658,13
32-17,17324564,-3
32-18,17328470,-41
32-19,17332376,-57
32-20,17336282,-76
32-21,17340188,-103
32-22,17344094,-114
32-23,17348000,-40
32-24,17351906,37
32-25,17355812,16
32-26,17359718,-15
32-27,17363624,-24
32-28,17367530,-4
32-29,17371436,38
32-30,17375342,7
32-31,17379248,-27
32-32,17383154,3
32-1,17387401,-16
32-2,17391307,-61
32-3,17395213,-41
32-4,17399119,-16
32-5,17403025,-49
32-6,17406931,-55
32-7,17410837,-7
32-8,17414743,9
32-9,17418649,-1
32-10,17422555,4
32-11,17426461,-10
32-12,17430367,-78
32-13,17434273,-112
32-14,17438179,-24
32-15,17442085,48
32-16,17445991,36
32-17,17449897,18
32-18,17453803,4
32-19,17457709,-21
32-20,17461615,-79
32-21,17465521,-86
32-22,17469427,0
32-23,17473333,22
32-24,17477239,-32
32-25,17481145,-65
32-26,17485051,-20
32-27,17488957,19
32-28,17492863,-37
32-29,17496769,-1
32-30,17500675,96
32-31,17504581,79
32-32,17508487,41
32-1,17512063,0
32-2,17515969,-32
32-3,17519875,-19
32-4,17523781,-42
32-5,17527687,-43
32-6,17531593,-8
32-7,17535499,-15
32-8,17539405,-40
32-9,17543311,-62
32-10,17547217,-75
32-11,17551123,-81
32-12,17555029,-73
32-13,17558935,6
32-14,17562841,67
32-15,17566747,23
32-16,17570653,-5
32-17,17574559,2
32-18,17578465,-48
32-19,17582371,-105
32-20,17586277,-47
32-21,17590183,35
32-22,17594089,-3
32-23,17597995,-55
32-24,17601901,-39
32-25,17605807,-54
32-26,17609713,-88
32-27,17613619,-106
32-28,17617525,-78
32-29,17621431,6
32-30,17625337,5
32-31,17629243,-81
32-32,17633149,-68
32-1,17637061,-21
32-2,17640967,-63
32-3,17644873,-120
32-4,17648779,-77
32-5,17652685,17
32-6,17656591,33
32-7,17660497,-14
32-8,17664403,-41
32-9,17668309,-55
32-10,17672215,-83
32-11,17676121,-99
32-12,17680027,-58
32-13,17683933,-22
32-14,17687839,-46
32-15,17691745,-90
32-16,17695651,-121
32-17,17699557,-144
32-18,17703463,-126
32-19,17707369,-41
32-20,17711275,9
32-21,17715181,-14
32-22,17719087,-28
32-23,17722993,-40
32-24,17726899,-94
32-25,17730805,-154
32-26,17734711,-119
32-27,17738617,-1
32-28,17742523,26
32-29,17746429,-37
32-30,17750335,-71
32-31,17754241,-87
32-32,17758147,-111
32-1,17762059,-149
32-2,17765965,-126
32-3,17769871,-32
32-4,17773777,2
32-5,17777683,-22
32-6,17781589,-35
32-7,17785495,-27
32-8,17789401,-14
32-9,17793307,-26
32-10,17797213,-1
32-11,17801119,31
32-12,17805025,-23
32-13,17808931,-72
32-14,17812837,-80
32-15,17816743,-99
32-16,17820649,-112
32-17,17824555,-94
32-18,17828461,-29
32-19,17832367,16
32-20,17836273,-14
32-21,17840179,-54
32-22,17844085,-57
32-23,17847991,-60
32-24,17851897,-98
32-25,17855803,-103
32-26,17859709,-14
32-27,17863615,51
32-28,17867521,61
32-29,17871427,86
32-30,17875333,52
32-31,17879239,-30
32-32,17883145,-65
32-1,17887056,-26
32-2,17890962,33
32-3,17894868,11
32-4,17898774,-30
32-5,17902680,-23
32-6,17906586,-31
32-7,17910492,-51
32-8,17914398,-61
32-9,17918304,-40
32-10,17922210,-17
32-11,17926116,-62
32-12,17930022,-102
32-13,17933928,-76
32-14,17937834,-64
32-15,17941740,-125
32-16,17945646,-145
32-17,17949552,-58
32-18,17953458,13
32-19,17957364,-4
32-20,17961270,-52
32-21,17965176,-60
32-22,17969082,-47
32-23,17972988,-67
32-24,17976894,-73
32-25,17980800,-62
32-26,17984706,-67
32-27,17988612,-70
32-28,17992518,-74
32-29,17996424,-40
32-30,18000330,-44
32-31,18004236,-104
32-32,18008142,-88
32-1,18012054,-62
32-2,18015960,-88
32-3,18019866,-83
32-4,18023772,-60
32-5,18027678,-43
32-6,18031584,-50
32-7,18035490,-42
32-8,18039396,-5
32-9,18043302,-20
32-10,18047208,-48
32-11,18051114,-38
32-12,18055020,-10
32-13,18058926,-20
32-14,18062832,-77
32-15,18066738,-37
32-16,18070644,62
32-17,18074550,48
32-18,18078456,-13
32-19,18082362,-20
32-20,18086268,22
32-21,18090174,39
32-22,18094080,23
32-23,18097986,93
32-24,18101892,164
32-25,18105798,123
32-26,18109704,88
32-27,18113610,49
32-28,18117516,14
32-29,18121422,69
32-30,18125328,103
32-31,18129234,134
32-32,18133140,213
32-1,18137265,195
32-2,18141171,126
32-3,18145077,103
32-4,18148983,69
32-5,18152889,32
32-6,18156795,30
32-7,18160701,44
32-8,18164607,20
32-9,18168513,-18
32-10,18172419,-29
32-11,18176325,-59
32-12,18180231,-117
32-13,18184137,-129
32-14,18188043,-77
32-15,18191949,-31
32-16,18195855,-22
32-17,18199761,-29
32-18,18203667,-32
32-19,18207573,-47
32-20,18211479,-113
32-21,18215385,-116
32-22,18219291,-33
32-23,18223197,3
32-24,18227103,-19
32-25,18231009,-57
32-26,18234915,-53
32-27,18238821,-57
32-28,18242727,-111
32-29,18246633,-65
32-30,18250539,3
32-31,18254445,-7
32-32,18258351,-12
32-1,18262049,-53
32-2,18265955,-84
32-3,18269861,-39
32-4,18273767,-19
32-5,18277673,-21
32-6,18281579,-19
32-7,18285485,-36
32-8,18289391,-78
32-9,18293297,-109
32-10,18297203,-95
32-11,18301109,-96
32-12,18305015,-98
32-13,18308921,-46
32-14,18312827,-30
32-15,18316733,-47
32-16,18320639,-45
32-17,18324545,-61
32-18,18328451,-79
32-19,18332357,-81
32-20,18336263,-44
32-21,18340169,30
32-22,18344075,15
32-23,18347981,-51
32-24,18351887,-53
32-25,18355793,-70
32-26,18359699,-98
32-27,18363605,-55
32-28,18367511,10
32-29,18371417,46
32-30,18375323,25
32-31,18379229,-23
32-32,18383135,-22
32-1,18387047,6
32-2,18390953,-4
32-3,18394859,-19
32-4,18398765,41
32-5,18402671,118
32-6,18406577,108
32-7,18410483,65
32-8,18414389,46
32-9,18418295,26
32-10,18422201,2
32-11,18426107,6
32-12,18430013,44
32-13,18433919,55
32-14,18437825,19
32-15,18441731,-21
32-16,18445637,-48
32-17,18449543,-68
32-18,18453449,-76
32-19,18457355,-40
32-20,18461261,16
32-21,18465167,9
32-22,18469073,-26
32-23,18472979,-13
32-24,18476885,-36
32-25,18480791,-123
32-26,18484697,-103
32-27,18488603,2
32-28,18492509,27
32-29,18496415,16
32-30,18500321,-7
32-31,18504227,-38
32-32,18508133,-58
32-1,18512044,-103
32-2,18515950,-68
32-3,18519856,21
32-4,18523762,12
32-5,18527668,-32
32-6,18531574,-66
32-7,18535480,-75
32-8,18539386,-54
32-9,18543292,-82
32-10,18547198,-79
32-11,18551104,-29
32-12,18555010,-30
32-13,18558916,-46
32-14,18562822,-63
32-15,18566728,-85
32-16,18570634,-90
32-17,18574540,-81
32-18,18578446,-45
32-19,18582352,-32
32-20,18586258,-67
32-21,18590164,-100
32-22,18594070,-129
32-23,18597976,-117
32-24,18601882,-75
32-25,18605788,-48
32-26,18609694,5
32-27,18613600,27
32-28,18617506,10
32-29,18621412,39
32-30,18625318,32
32-31,18629224,-33
32-32,18633130,-42
32-1,18637042,7
32-2,18640948,36
32-3,18644854,2
32-4,18648760,-45
32-5,18652666,-57
32-6,18656572,-73
32-7,18660478,-97
32-8,18664384,-95
32-9,18668290,-67
32-10,18672196,-64
32-11,18676102,-102
32-12,18680008,-168
32-13,18683914,-216
32-14,18687820,-195
32-15,18691726,-168
32-16,18695632,-123
32-17,18699538,-15
32-18,18703444,65
32-19,18707350,90
32-20,18711256,76
32-21,18715162,51
32-22,18719068,58
32-23,18722974,50
32-24,18726880,46
32-25,18730786,73
32-26,18734692,59
32-27,18738598,1
32-28,18742504,-26
32-29,18746410,8
32-30,18750316,12
32-31,18754222,-23
32-32,18758128,20
32-1,18762040,79
32-2,18765946,54
32-3,18769852,22
32-4,18773758,19
32-5,18777664,6
32-6,18781570,-23
32-7,18785476,-12
32-8,18789382,17
32-9,18793288,-32
32-10,18797194,-99
32-11,18801100,-99
32-12,18805006,-75
32-13,18808912,-61
32-14,18812818,-56
32-15,18816724,-28
32-16,18820630,7
32-17,18824536,-2
32-18,18828442,-1
32-19,18832348,22
32-20,18836254,16
32-21,18840160,-43
32-22,18844066,-108
32-23,18847972,-77
32-24,18851878,-45
32-25,18855784,-99
32-26,18859690,-114
32-27,18863596,-91
32-28,18867502,-54
32-29,18871408,3
32-30,18875314,-4
32-31,18879220,-2
32-32,18883126,68
32-1,18887251,80
32-2,18891157,27
32-3,18895063,-15
32-4,18898969,-9
32-5,18902875,6
32-6,18906781,2
32-7,18910687,16
32-8,18914593,30
32-9,18918499,28
32-10,18922405,19
32-11,18926311,-21
32-12,18930217,-60
32-13,18934123,-54
32-14,18938029,-20
32-15,18941935,-2
32-16,18945841,-14
32-17,18949747,-17
32-18,18953653,-7
32-19,18957559,-22
32-20,18961465,-87
32-21,18965371,-102
32-22,18969277,-17
32-23,18973183,31
32-24,18977089,17
32-25,18980995,10
32-26,18984901,14
32-27,18988807,9
32-28,18992713,-14
32-29,18996619,15
32-30,19000525,50
32-31,19004431,20
32-32,19008337,2
32-1,19012035,-14
32-2,19015941,-26
32-3,19019847,-1
32-4,19023753,6
32-5,19027659,19
32-6,19031565,39
32-7,19035471,24
32-8,19039377,4
32-9,19043283,-6
32-10,19047189,-26
32-11,19051095,-74
32-12,19055001,-95
32-13,19058907,-50
32-14,19062813,-24
32-15,19066719,-27
32-16,19070625,-2
32-17,19074531,2
32-18,19078437,-23
32-19,19082343,-25
32-20,19086249,14
32-21,19090155,49
32-22,19094061,22
32-23,19097967,-24
32-24,19101873,-52
32-25,19105779,-64
32-26,19109685,-37
32-27,19113591,-29
32-28,19117497,-2
32-29,19121403,68
32-30,19125309,15
32-31,19129215,-86
32-32,19133121,-72
32-1,19137033,-51
32-2,19140939,-75
32-3,19144845,-59
32-4,19148751,0
32-5,19152657,48
32-6,19156563,39
32-7,19160469,-1
32-8,19164375,6
32-9,19168281,35
32-10,19172187,-5
32-11,19176093,-47
32-12,19179999,-29
32-13,19183905,-32
32-14,19187811,-63
32-15,19191717,-88
32-16,19195623,-117
32-17,19199529,-138
32-18,19203435,-151
32-19,19207341,-151
32-20,19211247,-127
32-21,19215153,-97
32-22,19219059,-91
32-23,19222965,-115
32-24,19226871,-151
32-25,19230777,-181
32-26,19234683,-140
32-27,19238589,-36
32-28,19242495,-17
32-29,19246401,-75
32-30,19250307,-90
32-31,19254213,-86
32-32,19258119,-80
32-1,19262030,-55
32-2,19265936,-31
32-3,19269842,5
32-4,19273748,24
32-5,19277654,-16
32-6,19281560,-57
32-7,19285466,-65
32-8,19289372,-69
32-9,19293278,-79
32-10,19297184,-26
32-11,19301090,94
32-12,19304996,147
32-13,19308902,91
32-14,19312808,44
32-15,19316714,44
32-16,19320620,5
32-17,19324526,-49
32-18,19328432,-14
32-19,19332338,34
32-20,19336244,0
32-21,19340150,-54
32-22,19344056,-82
32-23,19347962,-111
32-24,19351868,-158
32-25,19355774,-133
32-26,19359680,-59
32-27,19363586,-61
32-28,19367492,-38
32-29,19371398,28
32-30,19375304,-9
32-31,19379210,-75
32-32,19383116,-68
32-1,19387028,-31
32-2,19390934,-3
32-3,19394840,-24
32-4,19398746,-78
32-5,19402652,-97
32-6,19406558,-72
32-7,19410464,-68
32-8,19414370,-81
32-9,19418276,-53
32-10,19422182,-44
32-11,19426088,-95
32-12,19429994,-109
32-13,19433900,-57
32-14,19437806,-33
32-15,19441712,-57
32-16,19445618,-65
32-17,19449524,-23
32-18,19453430,17
32-19,19457336,3
32-20,19461242,-25
32-21,19465148,-31
32-22,19469054,-48
32-23,19472960,-59
32-24,19476866,-32
32-25,19480772,11
32-26,19484678,47
32-27,19488584,24
32-28,19492490,-6
32-29,19496396,39
32-30,19500302,35
32-31,19504208,-25
32-32,19508114,-24
32-1,19512025,-10
32-2,19515931,3
32-3,19519837,14
32-4,19523743,-20
32-5,19527649,-71
32-6,19531555,-111
32-7,19535461,-95
32-8,19539367,-34
32-9,19543273,-9
32-10,19547179,-14
32-11,19551085,-16
32-12,19554991,-36
32-13,19558897,-77
32-14,19562803,-95
32-15,19566709,-58
32-16,19570615,5
32-17,19574521,22
32-18,19578427,-32
32-19,19582333,-74
32-20,19586239,-43
32-21,19590145,-30
32-22,19594051,-71
32-23,19597957,-66
32-24,19601863,-22
32-25,19605769,-20
32-26,19609675,-33
32-27,19613581,-35
32-28,19617487,-10
32-29,19621393,22
32-30,19625299,-21
32-31,19629205,-72
32-32,19633111,-104
32-1,19637206,-174
32-2,19641112,-186
32-3,19645018,-150
32-4,19648924,-143
32-5,19652830,-128
32-6,19656736,-107
32-7,19660642,-62
32-8,19664548,-22
32-9,19668454,-41
32-10,19672360,-59
32-11,19676266,-51
32-12,19680172,-63
32-13,19684078,-66
32-14,19687984,-16
32-15,19691890,-1
32-16,19695796,-53
32-17,19699702,-76
32-18,19703608,-72
32-19,19707514,-93
32-20,19711420,-138
32-21,19715326,-126
32-22,19719232,-41
32-23,19723138,-23
32-24,19727044,-83
32-25,19730950,-107
32-26,19734856,-73
32-27,19738762,-61
32-28,19742668,-97
32-29,19746574,-51
32-30,19750480,31
32-31,19754386,-2
32-32,19758292,-67
32-1,19762021,-89
32-2,19765927,-95
32-3,19769833,-70
32-4,19773739,-26
32-5,19777645,-10
32-6,19781551,-17
32-7,19785457,-3
32-8,19789363,0
32-9,19793269,-30
32-10,19797175,-51
32-11,19801081,-72
32-12,19804987,-73
32-13,19808893,-19
32-14,19812799,10
32-15,19816705,-3
32-16,19820611,-5
32-17,19824517,-23
32-18,19828423,-63
32-19,19832329,-101
32-20,19836235,-100
32-21,19840141,-33
32-22,19844047,-7
32-23,19847953,-36
32-24,19851859,-47
32-25,19855765,-60
32-26,19859671,-64
32-27,19863577,-45
32-28,19867483,5
32-29,19871389,24
32-30,19875295,-87
32-31,19879201,-164
32-32,19883107,-103
32-1,19887018,-69
32-2,19890924,-83
32-3,19894830,-57
32-4,19898736,-7
32-5,19902642,5
32-6,19906548,-16
32-7,19910454,-20
32-8,19914360,2
32-9,19918266,32
32-10,19922172,6
32-11,19926078,-47
32-12,19929984,-50
32-13,19933890,-51
32-14,19937796,-71
32-15,19941702,-73
32-16,19945608,-61
32-17,19949514,-87
32-18,19953420,-130
32-19,19957326,-83
32-20,19961232,-21
32-21,19965138,-39
32-22,19969044,-55
32-23,19972950,-43
32-24,19976856,-51
32-25,19980762,-69
32-26,19984668,-31
32-27,19988574,34
32-28,19992480,28
32-29,19996386,-16
32-30,20000292,-53
32-31,20004198,-53
32-32,20008104,-20
32-1,20012016,-27
32-2,20015922,-29
32-3,20019828,24
32-4,20023734,45
32-5,20027640,6
32-6,20031546,-31
32-7,20035452,-33
32-8,20039358,-28
32-9,20043264,-58
32-10,20047170,-58
32-11,20051076,12
32-12,20054982,34
32-13,20058888,-21
32-14,20062794,-44
32-15,20066700,-19
32-16,20070606,-36
32-17,20074512,-76
32-18,20078418,-61
32-19,20082324,-33
32-20,20086230,-22
32-21,20090136,4
32-22,20094042,15
32-23,20097948,-2
32-24,20101854,-16
32-25,20105760,-5
32-26,20109666,39
32-27,20113572,58
32-28,20117478,42
32-29,20121384,34
32-30,20125290,3
32-31,20129196,-38
32-32,20133102,-55
32-1,20137014,-41
32-2,20140920,8
32-3,20144826,-5
32-4,20148732,-70
32-5,20152638,-58
32-6,20156544,-7
32-7,20160450,-8
32-8,20164356,-2
32-9,20168262,53
32-10,20172168,52
32-11,20176074,-13
32-12,20179980,-25
32-13,20183886,-6
32-14,20187792,-37
32-15,20191698,-79
32-16,20195604,-79
32-17,20199510,-46
32-18,20203416,-11
32-19,20207322,-1
32-20,20211228,-31
32-21,20215134,-70
32-22,20219040,-77
32-23,20222946,-64
32-24,20226852,-39
32-25,20230758,17
32-26,20234664,70
32-27,20238570,60
32-28,20242476,36
32-29,20246382,61
32-30,20250288,64
32-31,20254194,39
32-32,20258100,43
32-1,20262011,42
32-2,20265917,12
32-3,20269823,-30
32-4,20273729,-54
32-5,20277635,-26
32-6,20281541,-5
32-7,20285447,1
32-8,20289353,41
32-9,20293259,61
32-10,20297165,35
32-11,20301071,24
32-12,20304977,21
32-13,20308883,-11
32-14,20312789,-42
32-15,20316695,-14
32-16,20320601,51
32-17,20324507,45
32-18,20328413,-12
32-19,20332319,-9
32-20,20336225,8
32-21,20340131,-35
32-22,20344037,-59
32-23,20347943,-17
32-24,20351849,14
32-25,20355755,2
32-26,20359661,1
32-27,20363567,-2
32-28,20367473,-17
32-29,20371379,-10
32-30,20375285,-33
32-31,20379191,-40
32-32,20383097,36
32-1,20387253,44
32-2,20391159,-27
32-3,20395065,-44
32-4,20398971,-29
32-5,20402877,-19
32-6,20406783,-7
32-7,20410689,-11
32-8,20414595,-18
32-9,20418501,-5
32-10,20422407,-4
32-11,20426313,-35
32-12,20430219,-60
32-13,20434125,-64
32-14,20438031,-25
32-15,20441937,22
32-16,20445843,15
32-17,20449749,0
32-18,20453655,8
32-19,20457561,-3
32-20,20461467,-33
32-21,20465373,-27
32-22,20469279,-1
32-23,20473185,-24
32-24,20477091,-60
32-25,20480997,-65
32-26,20484903,-46
32-27,20488809,-29
32-28,20492715,-27
32-29,20496621,19
32-30,20500527,71
32-31,20504433,15
32-32,20508339,-58
32-1,20512007,-64
32-2,20515913,-47
32-3,20519819,-40
32-4,20523725,-43
32-5,20527631,-38
32-6,20531537,-28
32-7,20535443,-39
32-8,20539349,-43
32-9,20543255,-18
32-10,20547161,-7
32-11,20551067,-30
32-12,20554973,-23
32-13,20558879,24
32-14,20562785,38
32-15,20566691,12
32-16,20570597,-1
32-17,20574503,-11
32-18,20578409,-30
32-19,20582315,-57
32-20,20586221,-76
32-21,20590127,-88
32-22,20594033,-133
32-23,20597939,-141
32-24,20601845,-93
32-25,20605751,-105
32-26,20609657,-132
32-27,20613563,-124
32-28,20617469,-68
32-29,20621375,14
32-30,20625281,-18
32-31,20629187,-101
32-32,20633093,-90
32-1,20637004,-57
32-2,20640910,-86
32-3,20644816,-134
32-4,20648722,-101
32-5,20652628,-35
32-6,20656534,-38
32-7,20660440,-64
32-8,20664346,-68
32-9,20668252,-67
32-10,20672158,-67
32-11,20676064,-59
32-12,20679970,-50
32-13,20683876,-69
32-14,20687782,-98
32-15,20691688,-105
32-16,20695594,-79
32-17,20699500,-68
32-18,20703406,-74
32-19,20707312,-42
32-20,20711218,-27
32-21,20715124,-34
32-22,20719030,-12
32-23,20722936,-15
32-24,20726842,-52
32-25,20730748,-65
32-26,20734654,-45
32-27,20738560,-5
32-28,20742466,52
32-29,20746372,72
32-30,20750278,20
32-31,20754184,-14
32-32,20758090,-2
32-1,20762002,-13
32-2,20765908,24
32-3,20769814,113
32-4,20773720,93
32-5,20777626,13
32-6,20781532,-4
32-7,20785438,4
32-8,20789344,-4
32-9,20793250,-37
32-10,20797156,-19
32-11,20801062,69
32-12,20804968,85
32-13,20808874,63
32-14,20812780,59
32-15,20816686,42
32-16,20820592,39
32-17,20824498,15
32-18,20828404,-2
32-19,20832310,23
32-20,20836216,7
32-21,20840122,-29
32-22,20844028,-55
32-23,20847934,-63
32-24,20851840,-43
32-25,20855746,-12
32-26,20859652,40
32-27,20863558,35
32-28,20867464,0
32-29,20871370,39
32-30,20875276,22
32-31,20879182,-60
32-32,20883088,-60
32-1,20886999,-19
32-2,20890905,-2
32-3,20894811,-12
32-4,20898717,-40
32-5,20902623,-44
32-6,20906529,-17
32-7,20910435,-19
32-8,20914341,-35
32-9,20918247,-12
32-10,20922153,-35
32-11,20926059,-109
32-12,20929965,-97
32-13,20933871,-38
32-14,20937777,-21
32-15,20941683,-18
32-16,20945589,8
32-17,20949495,54
32-18,20953401,68
32-19,20957307,42
32-20,20961213,2
32-21,20965119,-28
32-22,20969025,-27
32-23,20972931,-32
32-24,20976837,-11
32-25,20980743,39
32-26,20984649,22
32-27,20988555,-3
32-28,20992461,15
32-29,20996367,27
32-30,21000273,6
32-31,21004179,-44
32-32,21008085,-56
32-1,21012089,12
32-2,21015995,78
32-3,21019901,53
32-4,21023807,7
32-5,21027713,-1
32-6,21031619,-28
32-7,21035525,-12
32-8,21039431,58
32-9,21043337,46
32-10,21047243,5
32-11,21051149,15
32-12,21055055,7
32-13,21058961,-10
32-14,21062867,-9
32-15,21066773,-2
32-16,21070679,30
32-17,21074585,34
32-18,21078491,-10
32-19,21082397,-18
32-20,21086303,-5
32-21,21090209,-42
32-22,21094115,-70
32-23,21098021,-18
32-24,21101927,33
32-25,21105833,15
32-26,21109739,1
32-27,21113645,-4
32-28,21117551,-18
32-29,21121457,-10
32-30,21125363,-25
32-31,21129269,-43
32-32,21133175,-6
32-1,21136995,2
32-2,21140901,-54
32-3,21144807,-110
32-4,21148713,-147
32-5,21152619,-173
32-6,21156525,-157
32-7,21160431,-86
32-8,21164337,-35
32-9,21168243,-31
32-10,21172149,-25
32-11,21176055,-39
32-12,21179961,-72
32-13,21183867,-62
32-14,21187773,-7
32-15,21191679,45
32-16,21195585,64
32-17,21199491,57
32-18,21203397,43
32-19,21207303,-1
32-20,21211209,-62
32-21,21215115,-61
32-22,21219021,20
32-23,21222927,66
32-24,21226833,8
32-25,21230739,-48
32-26,21234645,-27
32-27,21238551,-32
32-28,21242457,-61
32-29,21246363,-8
32-30,21250269,55
32-31,21254175,39
32-32,21258081,-22
32-1,21261992,-69
32-2,21265898,-69
32-3,21269804,-58
32-4,21273710,-64
32-5,21277616,-59
32-6,21281522,-55
32-7,21285428,-71
32-8,21289334,-88
32-9,21293240,-102
32-10,21297146,-96
32-11,21301052,-72
32-12,21304958,-63
32-13,21308864,-44
32-14,21312770,0
32-15,21316676,0
32-16,21320582,-22
32-17,21324488,-23
32-18,21328394,-46
32-19,21332300,-74
32-20,21336206,-45
32-21,21340112,13
32-22,21344018,19
32-23,21347924,9
32-24,21351830,17
32-25,21355736,-14
32-26,21359642,-42
32-27,21363548,-43
32-28,21367454,-34
32-29,21371360,-7
32-30,21375266,-44
32-31,21379172,-106
32-32,21383078,-81
32-1,21386990,-47
32-2,21390896,-74
32-3,21394802,-112
32-4,21398708,-86
32-5,21402614,-10
32-6,21406520,-16
32-7,21410426,-88
32-8,21414332,-107
32-9,21418238,-110
32-10,21422144,-142
32-11,21426050,-131
32-12,21429956,-91
32-13,21433862,-84
32-14,21437768,-87
32-15,21441674,-94
32-16,21445580,-91
32-17,21449486,-75
32-18,21453392,-107
32-19,21457298,-147
32-20,21461204,-129
32-21,21465110,-127
32-22,21469016,-171
32-23,21472922,-193
32-24,21476828,-195
32-25,21480734,-181
32-26,21484640,-123
32-27,21488546,-72
32-28,21492452,-42
32-29,21496358,-32
32-30,21500264,-69
32-31,21504170,-73
32-32,21508076,-39
32-1,21511988,-50
32-2,21515894,-32
32-3,21519800,25
32-4,21523706,8
32-5,21527612,-35
32-6,21531518,-42
32-7,21535424,-43
32-8,21539330,-36
32-9,21543236,-53
32-10,21547142,-71
32-11,21551048,3
32-12,21554954,67
32-13,21558860,42
32-14,21562766,-4
32-15,21566672,-36
32-16,21570578,-48
32-17,21574484,-53
32-18,21578390,-37
32-19,21582296,0
32-20,21586202,18
32-21,21590108,25
32-22,21594014,19
32-23,21597920,7
32-24,21601826,9
32-25,21605732,31
32-26,21609638,72
32-27,21613544,45
32-28,21617450,-4
32-29,21621356,12
32-30,21625262,-4
32-31,21629168,-77
32-32,21633074,-138
32-1,21637138,-140
32-2,21641044,-102
32-3,21644950,-144
32-4,21648856,-199
32-5,21652762,-135
32-6,21656668,-68
32-7,21660574,-70
32-8,21664480,-69
32-9,21668386,-34
32-10,21672292,4
32-11,21676198,0
32-12,21680104,-12
32-13,21684010,17
32-14,21687916,10
32-15,21691822,-59
32-16,21695728,-84
32-17,21699634,-76
32-18,21703540,-112
32-19,21707446,-145
32-20,21711352,-164
32-21,21715258,-180
32-22,21719164,-170
32-23,21723070,-150
32-24,21726976,-106
32-25,21730882,-37
32-26,21734788,-23
32-27,21738694,-69
32-28,21742600,-101
32-29,21746506,-77
32-30,21750412,-85
32-31,21754318,-129
32-32,21758224,-86
32-1,21761983,-3
32-2,21765889,15
32-3,21769795,-1
32-4,21773701,-25
32-5,21777607,-44
32-6,21781513,-62
32-7,21785419,-60
32-8,21789325,13
32-9,21793231,56
32-10,21797137,-1
32-11,21801043,-22
32-12,21804949,-3
32-13,21808855,-48
32-14,21812761,-84
32-15,21816667,-35
32-16,21820573,31
32-17,21824479,29
32-18,21828385,-6
32-19,21832291,-13
32-20,21836197,-22
32-21,21840103,-69
32-22,21844009,-98
32-23,21847915,-37
32-24,21851821,19
32-25,21855727,-14
32-26,21859633,-42
32-27,21863539,-30
32-28,21867445,-16
32-29,21871351,9
32-30,21875257,-10
32-31,21879163,-62
32-32,21883069,-53
32-1,21886980,-37
32-2,21890886,-53
32-3,21894792,-57
32-4,21898698,-49
32-5,21902604,-38
32-6,21906510,-47
32-7,21910416,-65
32-8,21914322,-60
32-9,21918228,-51
32-10,21922134,-42
32-11,21926040,-44
32-12,21929946,-72
32-13,21933852,-50
32-14,21937758,19
32-15,21941664,10
32-16,21945570,-42
32-17,21949476,-42
32-18,21953382,-44
32-19,21957288,-64
32-20,21961194,-69
32-21,21965100,-56
32-22,21969006,1
32-23,21972912,49
32-24,21976818,21
32-25,21980724,-7
32-26,21984630,17
32-27,21988536,5
32-28,21992442,-39
32-29,21996348,-11
32-30,22000254,10
32-31,22004160,-55
32-32,22008066,-99
32-1,22011978,-94
32-2,22015884,-77
32-3,22019790,-71
32-4,22023696,-89
32-5,22027602,-87
32-6,22031508,-77
32-7,22035414,-84
32-8,22039320,-78
32-9,22043226,-62
32-10,22047132,-28
32-11,22051038,28
32-12,22054944,59
32-13,22058850,55
32-14,22062756,60
32-15,22066662,87
32-16,22070568,91
32-17,22074474,68
32-18,22078380,42
32-19,22082286,12
32-20,22086192,8
32-21,22090098,30
32-22,22094004,35
32-23,22097910,18
32-24,22101816,-1
32-25,22105722,-3
32-26,22109628,-22
32-27,22113534,-89
32-28,22117440,-81
32-29,22121346,29
32-30,22125252,71
32-31,22129158,48
32-32,22133064,40
32-1,22136976,36
32-2,22140882,33
32-3,22144788,31
32-4,22148694,62
32-5,22152600,89
32-6,22156506,41
32-7,22160412,-6
32-8,22164318,1
32-9,22168224,-8
32-10,22172130,-52
32-11,22176036,-38
32-12,22179942,36
32-13,22183848,54
32-14,22187754,28
32-15,22191660,9
32-16,22195566,-11
32-17,22199472,-4
32-18,22203378,14
32-19,22207284,26
32-20,22211190,64
32-21,22215096,91
32-22,22219002,81
32-23,22222908,65
32-24,22226814,26
32-25,22230720,-53
32-26,22234626,-62
32-27,22238532,26
32-28,22242438,83
32-29,22246344,68
32-30,22250250,31
32-31,22254156,6
32-32,22258062,-10
32-1,22262126,-10
32-2,22266032,-1
32-3,22269938,-21
32-4,22273844,-34
32-5,22277750,-35
32-6,22281656,-69
32-7,22285562,-85
32-8,22289468,-83
32-9,22293374,-106
32-10,22297280,-81
32-11,22301186,-6
32-12,22305092,14
32-13,22308998,-6
32-14,22312904,-12
32-15,22316810,-14
32-16,22320716,-5
32-17,22324622,-8
32-18,22328528,-18
32-19,22332434,5
32-20,22336340,1
32-21,22340246,-48
32-22,22344152,-62
32-23,22348058,-43
32-24,22351964,-33
32-25,22355870,-30
32-26,22359776,-52
32-27,22363682,-93
32-28,22367588,-79
32-29,22371494,-25
32-30,22375400,-27
32-31,22379306,-69
32-32,22383212,-88
32-1,22386971,-61
32-2,22390877,-34
32-3,22394783,-82
32-4,22398689,-147
32-5,22402595,-154
32-6,22406501,-141
32-7,22410407,-132
32-8,22414313,-100
32-9,22418219,-61
32-10,22422125,-60
32-11,22426031,-96
32-12,22429937,-132
32-13,22433843,-137
32-14,22437749,-121
32-15,22441655,-141
32-16,22445561,-152
32-17,22449467,-72
32-18,22453373,0
32-19,22457279,-3
32-20,22461185,-4
32-21,22465091,-13
32-22,22468997,-62
32-23,22472903,-92
32-24,22476809,-90
32-25,22480715,-95
32-26,22484621,-100
32-27,22488527,-120
32-28,22492433,-137
32-29,22496339,-101
32-30,22500245,-79
32-31,22504151,-102
32-32,22508057,-98
32-1,22511969,-57
32-2,22515875,-13
32-3,22519781,-8
32-4,22523687,-37
32-5,22527593,-52
32-6,22531499,-55
32-7,22535405,-44
32-8,22539311,-4
32-9,22543217,20
32-10,22547123,-14
32-11,22551029,-38
32-12,22554935,-23
32-13,22558841,-16
32-14,22562747,-26
32-15,22566653,-9
32-16,22570559,47
32-17,22574465,48
32-18,22578371,-19
32-19,22582277,-28
32-20,22586183,2
32-21,22590089,-14
32-22,22593995,-32
32-23,22597901,-6
32-24,22601807,11
32-25,22605713,-4
32-26,22609619,-12
32-27,22613525,-22
32-28,22617431,-15
32-29,22621337,1
32-30,22625243,-41
32-31,22629149,-43
32-32,22633055,25
32-1,22636966,29
32-2,22640872,2
32-3,22644778,14
32-4,22648684,22
32-5,22652590,4
32-6,22656496,-23
32-7,22660402,-50
32-8,22664308,-76
32-9,22668214,-97
32-10,22672120,-95
32-11,22676026,-64
32-12,22679932,-48
32-13,22683838,-69
32-14,22687744,-54
32-15,22691650,-44
32-16,22695556,-112
32-17,22699462,-147
32-18,22703368,-128
32-19,22707274,-134
32-20,22711180,-157
32-21,22715086,-130
32-22,22718992,-40
32-23,22722898,25
32-24,22726804,18
32-25,22730710,2
32-26,22734616,27
32-27,22738522,26
32-28,22742428,-22
32-29,22746334,3
32-30,22750240,47
32-31,22754146,3
32-32,22758052,-51
32-1,22761964,-66
32-2,22765870,-51
32-3,22769776,-22
32-4,22773682,-34
32-5,22777588,-49
32-6,22781494,-27
32-7,22785400,-28
32-8,22789306,-50
32-9,22793212,-37
32-10,22797118,-29
32-11,22801024,-70
32-12,22804930,-82
32-13,22808836,-37
32-14,22812742,-42
32-15,22816648,-86
32-16,22820554,-68
32-17,22824460,-37
32-18,22828366,-63
32-19,22832272,-87
32-20,22836178,-55
32-21,22840084,-3
32-22,22843990,-12
32-23,22847896,-74
32-24,22851802,-108
32-25,22855708,-104
32-26,22859614,-107
32-27,22863520,-115
32-28,22867426,-52
32-29,22871332,22
32-30,22875238,-44
32-31,22879144,-137
32-32,22883050,-116
32-1,22886962,-69
32-2,22890868,-64
32-3,22894774,-71
32-4,22898680,-71
32-5,22902586,-75
32-6,22906492,-78
32-7,22910398,-78
32-8,22914304,-63
32-9,22918210,-7
32-10,22922116,2
32-11,22926022,-42
32-12,22929928,-20
32-13,22933834,4
32-14,22937740,-27
32-15,22941646,-29
32-16,22945552,11
32-17,22949458,24
32-18,22953364,-6
32-19,22957270,-16
32-20,22961176,0
32-21,22965082,-8
32-22,22968988,-7
32-23,22972894,13
32-24,22976800,3
32-25,22980706,-38
32-26,22984612,-42
32-27,22988518,-5
32-28,22992424,-3
32-29,22996330,-15
32-30,23000236,2
32-31,23004142,-3
32-32,23008048,-18
32-1,23011959,-3
32-2,23015865,23
32-3,23019771,29
32-4,23023677,4
32-5,23027583,-17
32-6,23031489,10
32-7,23035395,65
32-8,23039301,51
32-9,23043207,4
32-10,23047113,17
32-11,23051019,2
32-12,23054925,-63
32-13,23058831,-73
32-14,23062737,-54
32-15,23066643,-37
32-16,23070549,-34
32-17,23074455,-54
32-18,23078361,-62
32-19,23082267,-72
32-20,23086173,-82
32-21,23090079,-91
32-22,23093985,-114
32-23,23097891,-77
32-24,23101797,-42
32-25,23105703,-61
32-26,23109609,-41
32-27,23113515,-41
32-28,23117421,-62
32-29,23121327,-14
32-30,23125233,-15
32-31,23129139,-60
32-32,23133045,-33
32-1,23136957,7
32-2,23140863,44
32-3,23144769,80
32-4,23148675,57
32-5,23152581,16
32-6,23156487,25
32-7,23160393,23
32-8,23164299,-12
32-9,23168205,22
32-10,23172111,79
32-11,23176017,60
32-12,23179923,53
32-13,23183829,100
32-14,23187735,120
32-15,23191641,74
32-16,23195547,30
32-17,23199453,50
32-18,23203359,70
32-19,23207265,48
32-20,23211171,19
32-21,23215077,22
32-22,23218983,42
32-23,23222889,38
32-24,23226795,43
32-25,23230701,41
32-26,23234607,-2
32-27,23238513,-50
32-28,23242419,-73
32-29,23246325,-56
32-30,23250231,-41
32-31,23254137,-51
32-32,23258043,-67
32-1,23261954,-84
32-2,23265860,-55
32-3,23269766,-19
32-4,23273672,-48
32-5,23277578,-92
32-6,23281484,-120
32-7,23285390,-118
32-8,23289296,-73
32-9,23293202,-30
32-10,23297108,-26
32-11,23301014,-36
32-12,23304920,-59
32-13,23308826,-103
32-14,23312732,-127
32-15,23316638,-92
32-16,23320544,-56
32-17,23324450,-99
32-18,23328356,-157
32-19,23332262,-152
32-20,23336168,-113
32-21,23340074,-96
32-22,23343980,-111
32-23,23347886,-82
32-24,23351792,-36
32-25,23355698,-56
32-26,23359604,-88
32-27,23363510,-92
32-28,23367416,-64
32-29,23371322,-20
32-30,23375228,-33
32-31,23379134,-34
32-32,23383040,53
32-1,23386952,94
32-2,23390858,50
32-3,23394764,23
32-4,23398670,24
32-5,23402576,36
32-6,23406482,59
32-7,23410388,58
32-8,23414294,32
32-9,23418200,18
32-10,23422106,-12
32-11,23426012,-67
32-12,23429918,-69
32-13,23433824,-37
32-14,23437730,-22
32-15,23441636,8
32-16,23445542,28
32-17,23449448,20
32-18,23453354,10
32-19,23457260,-9
32-20,23461166,-24
32-21,23465072,1
32-22,23468978,27
32-23,23472884,12
32-24,23476790,-19
32-25,23480696,-28
32-26,23484602,-12
32-27,23488508,-25
32-28,23492414,-49
32-29,23496320,7
32-30,23500226,52
32-31,23504132,-8
32-32,23508038,-57
32-1,23511950,-64
32-2,23515856,-62
32-3,23519762,-50
32-4,23523668,-57
32-5,23527574,-25
32-6,23531480,26
32-7,23535386,11
32-8,23539292,7
32-9,23543198,17
32-10,23547104,-29
32-11,23551010,-47
32-12,23554916,-14
32-13,23558822,-1
32-14,23562728,-3
32-15,23566634,6
32-16,23570540,14
32-17,23574446,9
32-18,23578352,-14
32-19,23582258,-41
32-20,23586164,-33
32-21,23590070,-19
32-22,23593976,-34
32-23,23597882,-37
32-24,23601788,-37
32-25,23605694,-56
32-26,23609600,-77
32-27,23613506,-92
32-28,23617412,-56
32-29,23621318,-20
32-30,23625224,-83
32-31,23629130,-144
32-32,23633036,-122
32-1,23636947,-84
32-2,23640853,-83
32-3,23644759,-82
32-4,23648665,-19
32-5,23652571,21
32-6,23656477,-43
32-7,23660383,-92
32-8,23664289,-62
32-9,23668195,-46
32-10,23672101,-81
32-11,23676007,-96
32-12,23679913,-65
32-13,23683819,-32
32-14,23687725,-4
32-15,23691631,-6
32-16,23695537,-44
32-17,23699443,-56
32-18,23703349,-35
32-19,23707255,-25
32-20,23711161,-15
32-21,23715067,-13
32-22,23718973,-58
32-23,23722879,-83
32-24,23726785,-87
32-25,23730691,-111
32-26,23734597,-88
32-27,23738503,-71
32-28,23742409,-85
32-29,23746315,-57
32-30,23750221,-58
32-31,23754127,-88
32-32,23758033,-94
32-1,23761945,-116
32-2,23765851,-115
32-3,23769757,-55
32-4,23773663,3
32-5,23777569,21
32-6,23781475,16
32-7,23785381,3
32-8,23789287,-27
32-9,23793193,-60
32-10,23797099,-39
32-11,23801005,-4
32-12,23804911,-21
32-13,23808817,-36
32-14,23812723,-32
32-15,23816629,-33
32-16,23820535,-39
32-17,23824441,-41
32-18,23828347,-40
32-19,23832253,-100
32-20,23836159,-180
32-21,23840065,-169
32-22,23843971,-123
32-23,23847877,-98
32-24,23851783,-95
32-25,23855689,-100
32-26,23859595,-93
32-27,23863501,-131
32-28,23867407,-127
32-29,23871313,-47
32-30,23875219,-64
32-31,23879125,-109
32-32,23883031,-74
32-1,23886943,-47
32-2,23890849,-42
32-3,23894755,-20
32-4,23898661,-5
32-5,23902567,-15
32-6,23906473,-19
32-7,23910379,0
32-8,23914285,13
32-9,23918191,45
32-10,23922097,92
32-11,23926003,95
32-12,23929909,72
32-13,23933815,64
32-14,23937721,58
32-15,23941627,27
32-16,23945533,6
32-17,23949439,39
32-18,23953345,55
32-19,23957251,46
32-20,23961157,59
32-21,23965063,67
32-22,23968969,28
32-23,23972875,-30
32-24,23976781,-28
32-25,23980687,-8
32-26,23984593,-39
32-27,23988499,-59
32-28,23992405,-30
32-29,23996311,24
32-30,24000217,34
32-31,24004123,-6
32-32,24008029,8
32-1,24011940,82
32-2,24015846,144
32-3,24019752,158
32-4,24023658,129
32-5,24027564,93
32-6,24031470,85
32-7,24035376,88
32-8,24039282,39
32-9,24043188,-34
32-10,24047094,-30
32-11,24051000,5
32-12,24054906,-8
32-13,24058812,-29
32-14,24062718,-18
32-15,24066624,21
32-16,24070530,57
32-17,24074436,51
32-18,24078342,21
32-19,24082248,-9
32-20,24086154,-16
32-21,24090060,-8
32-22,24093966,-27
32-23,24097872,-24
32-24,24101778,26
32-25,24105684,18
32-26,24109590,-59
32-27,24113496,-135
32-28,24117402,-132
32-29,24121308,-73
32-30,24125214,-79
32-31,24129120,-131
32-32,24133026,-143
32-1,24136968,-151
32-2,24140874,-155
32-3,24144780,-126
32-4,24148686,-89
32-5,24152592,-84
32-6,24156498,-99
32-7,24160404,-83
32-8,24164310,-64
32-9,24168216,-86
32-10,24172122,-100
32-11,24176028,-74
32-12,24179934,-50
32-13,24183840,-40
32-14,24187746,-17
32-15,24191652,-24
32-16,24195558,-64
32-17,24199464,-66
32-18,24203370,-45
32-19,24207276,-26
32-20,24211182,-1
32-21,24215088,5
32-22,24218994,3
32-23,24222900,33
32-24,24226806,72
32-25,24230712,73
32-26,24234618,58
32-27,24238524,47
32-28,24242430,31
32-29,24246336,32
32-30,24250242,15
32-31,24254148,1
32-32,24258054,31
32-1,24261935,32
32-2,24265841,16
32-3,24269747,32
32-4,24273653,34
32-5,24277559,25
32-6,24281465,29
32-7,24285371,19
32-8,24289277,-12
32-9,24293183,-23
32-10,24297089,-14
32-11,24300995,-26
32-12,24304901,-46
32-13,24308807,-49
32-14,24312713,-50
32-15,24316619,-61
32-16,24320525,-64
32-17,24324431,-61
32-18,24328337,-90
32-19,24332243,-116
32-20,24336149,-61
32-21,24340055,-11
32-22,24343961,-55
32-23,24347867,-73
32-24,24351773,-36
32-25,24355679,-38
32-26,24359585,-55
32-27,24363491,-57
32-28,24367397,-54
32-29,24371303,-59
32-30,24375209,-91
32-31,24379115,-117
32-32,24383021,-80
32-1,24386933,-19
32-2,24390839,-36
32-3,24394745,-81
32-4,24398651,-59
32-5,24402557,-31
32-6,24406463,-32
32-7,24410369,-32
32-8,24414275,-19
32-9,24418181,-1
32-10,24422087,-1
32-11,24425993,13
32-12,24429899,51
32-13,24433805,51
32-14,24437711,26
32-15,24441617,-7
32-16,24445523,-63
32-17,24449429,-96
32-18,24453335,-99
32-19,24457241,-89
32-20,24461147,-44
32-21,24465053,-9
32-22,24468959,-5
32-23,24472865,27
32-24,24476771,28
32-25,24480677,-20
32-26,24484583,21
32-27,24488489,75
32-28,24492395,14
32-29,24496301,-43
32-30,24500207,-79
32-31,24504113,-139
32-32,24508019,-147
32-1,24511931,-140
32-2,24515837,-116
32-3,24519743,-33
32-4,24523649,-27
32-5,24527555,-104
32-6,24531461,-111
32-7,24535367,-70
32-8,24539273,-63
32-9,24543179,-57
32-10,24547085,-16
32-11,24550991,9
32-12,24554897,-26
32-13,24558803,-56
32-14,24562709,-40
32-15,24566615,-14
32-16,24570521,-4
32-17,24574427,-28
32-18,24578333,-29
32-19,24582239,8
32-20,24586145,-1
32-21,24590051,-46
32-22,24593957,-51
32-23,24597863,-30
32-24,24601769,-43
32-25,24605675,-76
32-26,24609581,-71
32-27,24613487,-59
32-28,24617393,-55
32-29,24621299,-41
32-30,24625205,-66
32-31,24629111,-93
32-32,24633017,-67
32-1,24636928,-22
32-2,24640834,-4
32-3,24644740,-32
32-4,24648646,-50
32-5,24652552,-32
32-6,24656458,-47
32-7,24660364,-69
32-8,24664270,-59
32-9,24668176,-30
32-10,24672082,-7
32-11,24675988,-13
32-12,24679894,-22
32-13,24683800,-22
32-14,24687706,-26
32-15,24691612,-4
32-16,24695518,17
32-17,24699424,35
32-18,24703330,67
32-19,24707236,65
32-20,24711142,33
32-21,24715048,17
32-22,24718954,19
32-23,24722860,15
32-24,24726766,11
32-25,24730672,13
32-26,24734578,-13
32-27,24738484,-54
32-28,24742390,-45
32-29,24746296,-12
32-30,24750202,-20
32-31,24754108,-51
32-32,24758014,-67
32-1,24761926,-73
32-2,24765832,-56
32-3,24769738,-20
32-4,24773644,-2
32-5,24777550,-6
32-6,24781456,-7
32-7,24785362,26
32-8,24789268,62
32-9,24793174,41
32-10,24797080,14
32-11,24800986,31
32-12,24804892,37
32-13,24808798,13
32-14,24812704,-7
32-15,24816610,-10
32-16,24820516,11
32-17,24824422,23
32-18,24828328,-9
32-19,24832234,-41
32-20,24836140,-54
32-21,24840046,-71
32-22,24843952,-78
32-23,24847858,-37
32-24,24851764,-5
32-25,24855670,-39
32-26,24859576,-78
32-27,24863482,-69
32-28,24867388,-20
32-29,24871294,1
32-30,24875200,-36
32-31,24879106,-29
32-32,24883012,-4
32-1,24886954,-44
32-2,24890860,-71
32-3,24894766,-68
32-4,24898672,-62
32-5,24902578,-37
32-6,24906484,0
32-7,24910390,18
32-8,24914296,-17
32-9,24918202,-48
32-10,24922108,-45
32-11,24926014,-74
32-12,24929920,-105
32-13,24933826,-83
32-14,24937732,-69
32-15,24941638,-117
32-16,24945544,-164
32-17,24949450,-154
32-18,24953356,-136
32-19,24957262,-145
32-20,24961168,-153
32-21,24965074,-110
32-22,24968980,-37
32-23,24972886,-24
32-24,24976792,-29
32-25,24980698,-5
32-26,24984604,15
32-27,24988510,8
32-28,24992416,5
32-29,24996322,48
32-30,25000228,31
32-31,25004134,-84
32-32,25008040,-135
32-1,25011921,-108
32-2,25015827,-71
32-3,25019733,-48
32-4,25023639,-75
32-5,25027545,-93
32-6,25031451,-62
32-7,25035357,-33
32-8,25039263,-33
32-9,25043169,-26
32-10,25047075,-14
32-11,25050981,-29
32-12,25054887,-38
32-13,25058793,-45
32-14,25062699,-97
32-15,25066605,-142
32-16,25070511,-124
32-17,25074417,-97
32-18,25078323,-84
32-19,25082229,-62
32-20,25086135,-39
32-21,25090041,-54
32-22,25093947,-86
32-23,25097853,-84
32-24,25101759,-74
32-25,25105665,-88
32-26,25109571,-90
32-27,25113477,-91
32-28,25117383,-68
32-29,25121289,-54
32-30,25125195,-130
32-31,25129101,-180
32-32,25133007,-133
32-1,25136919,-81
32-2,25140825,-61
32-3,25144731,-76
32-4,25148637,-69
32-5,25152543,-36
32-6,25156449,-71
32-7,25160355,-110
32-8,25164261,-83
32-9,25168167,-62
32-10,25172073,-69
32-11,25175979,-65
32-12,25179885,-57
32-13,25183791,-62
32-14,25187697,-77
32-15,25191603,-95
32-16,25195509,-89
32-17,25199415,-45
32-18,25203321,-21
32-19,25207227,-8
32-20,25211133,30
32-21,25215039,17
32-22,25218945,-30
32-23,25222851,-18
32-24,25226757,-7
32-25,25230663,-29
32-26,25234569,-10
32-27,25238475,39
32-28,25242381,64
32-29,25246287,56
32-30,25250193,24
32-31,25254099,-5
32-32,25258005,-17
32-1,25261917,-17
32-2,25265823,16
32-3,25269729,47
32-4,25273635,29
32-5,25277541,3
32-6,25281447,-12
32-7,25285353,-23
32-8,25289259,-15
32-9,25293165,-22
32-10,25297071,-32
32-11,25300977,3
32-12,25304883,19
32-13,25308789,1
32-14,25312695,5
32-15,25316601,6
32-16,25320507,-17
32-17,25324413,-38
32-18,25328319,-24
32-19,25332225,28
32-20,25336131,56
32-21,25340037,17
32-22,25343943,-31
32-23,25347849,-35
32-24,25351755,-35
32-25,25355661,-55
32-26,25359567,-50
32-27,25363473,-37
32-28,25367379,-18
32-29,25371285,3
32-30,25375191,-23
32-31,25379097,-36
32-32,25383003,-4
32-1,25386914,17
32-2,25390820,28
32-3,25394726,8
32-4,25398632,-36
32-5,25402538,-51
32-6,25406444,-37
32-7,25410350,-42
32-8,25414256,-57
32-9,25418162,-30
32-10,25422068,-10
32-11,25425974,-34
32-12,25429880,-44
32-13,25433786,-26
32-14,25437692,-13
32-15,25441598,-18
32-16,25445504,3
32-17,25449410,81
32-18,25453316,119
32-19,25457222,71
32-20,25461128,17
32-21,25465034,13
32-22,25468940,45
32-23,25472846,25
32-24,25476752,-32
32-25,25480658,6
32-26,25484564,54
32-27,25488470,-9
32-28,25492376,-43
32-29,25496282,-3
32-30,25500188,-6
32-31,25504094,-53
32-32,25508000,-77
32-1,25511912,-78
32-2,25515818,-74
32-3,25519724,-67
32-4,25523630,-52
32-5,25527536,-60
32-6,25531442,-76
32-7,25535348,-55
32-8,25539254,-53
32-9,25543160,-91
32-10,25547066,-112
32-11,25550972,-124
32-12,25554878,-119
32-13,25558784,-89
32-14,25562690,-69
32-15,25566596,-34
32-16,25570502,15
32-17,25574408,9
32-18,25578314,-19
32-19,25582220,7
32-20,25586126,28
32-21,25590032,-4
32-22,25593938,-22
32-23,25597844,6
32-24,25601750,24
32-25,25605656,-2
32-26,25609562,-18
32-27,25613468,-13
32-28,25617374,-7
32-29,25621280,-8
32-30,25625186,-46
32-31,25629092,-98
32-32,25632998,-161
32-1,25636970,-228
32-2,25640876,-226
32-3,25644782,-206
32-4,25648688,-186
32-5,25652594,-129
32-6,25656500,-76
32-7,25660406,-27
32-8,25664312,10
32-9,25668218,15
32-10,25672124,-12
32-11,25676030,-48
32-12,25679936,-46
32-13,25683842,-7
32-14,25687748,20
32-15,25691654,-7
32-16,25695560,-61
32-17,25699466,-63
32-18,25703372,-46
32-19,25707278,-69
32-20,25711184,-106
32-21,25715090,-94
32-22,25718996,-40
32-23,25722902,-28
32-24,25726808,-63
32-25,25730714,-86
32-26,25734620,-79
32-27,25738526,-89
32-28,25742432,-98
32-29,25746338,-51
32-30,25750244,-9
32-31,25754150,-2
32-32,25758056,13
32-1,25761907,13
32-2,25765813,4
32-3,25769719,3
32-4,25773625,6
32-5,25777531,28
32-6,25781437,45
32-7,25785343,20
32-8,25789249,-6
32-9,25793155,-4
32-10,25797061,-5
32-11,25800967,-36
32-12,25804873,-63
32-13,25808779,-42
32-14,25812685,-26
32-15,25816591,-45
32-16,25820497,-63
32-17,25824403,-85
32-18,25828309,-87
32-19,25832215,-57
32-20,25836121,-29
32-21,25840027,-12
32-22,25843933,0
32-23,25847839,25
32-24,25851745,37
32-25,25855651,15
32-26,25859557,-13
32-27,25863463,-71
32-28,25867369,-90
32-29,25871275,-19
32-30,25875181,-19
32-31,25879087,-85
32-32,25882993,-76
32-1,25886905,-49
32-2,25890811,-61
32-3,25894717,-48
32-4,25898623,-1
32-5,25902529,13
32-6,25906435,7
32-7,25910341,19
32-8,25914247,41
32-9,25918153,65
32-10,25922059,61
32-11,25925965,30
32-12,25929871,33
32-13,25933777,58
32-14,25937683,60
32-15,25941589,56
32-16,25945495,38
32-17,25949401,-12
32-18,25953307,-40
32-19,25957213,-29
32-20,25961119,-32
32-21,25965025,-42
32-22,25968931,-41
32-23,25972837,-35
32-24,25976743,-32
32-25,25980649,-53
32-26,25984555,-34
32-27,25988461,8
32-28,25992367,-35
32-29,25996273,-73
32-30,26000179,-62
32-31,26004085,-76
32-32,26007991,-69
32-1,26011902,-65
32-2,26015808,-58
32-3,26019714,-4
32-4,26023620,-9
32-5,26027526,-51
32-6,26031432,-19
32-7,26035338,36
32-8,26039244,51
32-9,26043150,41
32-10,26047056,63
32-11,26050962,93
32-12,26054868,74
32-13,26058774,37
32-14,26062680,17
32-15,26066586,27
32-16,26070492,17
32-17,26074398,-21
32-18,26078304,-13
32-19,26082210,-33
32-20,26086116,-86
32-21,26090022,-79
32-22,26093928,-67
32-23,26097834,-50
32-24,26101740,-18
32-25,26105646,-15
32-26,26109552,-5
32-27,26113458,-8
32-28,26117364,-16
32-29,26121270,14
32-30,26125176,-13
32-31,26129082,-58
32-32,26132988,-16
32-1,26136900,46
32-2,26140806,69
32-3,26144712,46
32-4,26148618,-6
32-5,26152524,-12
32-6,26156430,11
32-7,26160336,-22
32-8,26164242,-68
32-9,26168148,-28
32-10,26172054,-1
32-11,26175960,-96
32-12,26179866,-161
32-13,26183772,-112
32-14,26187678,-64
32-15,26191584,-68
32-16,26195490,-68
32-17,26199396,-6
32-18,26203302,46
32-19,26207208,4
32-20,26211114,-23
32-21,26215020,32
32-22,26218926,50
32-23,26222832,15
32-24,26226738,15
32-25,26230644,42
32-26,26234550,53
32-27,26238456,37
32-28,26242362,26
32-29,26246268,48
32-30,26250174,31
32-31,26254080,-25
32-32,26257986,-41
32-1,26261898,-38
32-2,26265804,-51
32-3,26269710,-85
32-4,26273616,-127
32-5,26277522,-128
32-6,26281428,-80
32-7,26285334,-26
32-8,26289240,-28
32-9,26293146,-100
32-10,26297052,-127
32-11,26300958,-86
32-12,26304864,-63
32-13,26308770,-56
32-14,26312676,-18
32-15,26316582,37
32-16,26320488,42
32-17,26324394,-21
32-18,26328300,-75
32-19,26332206,-78
32-20,26336112,-67
32-21,26340018,-68
32-22,26343924,-72
32-23,26347830,-31
32-24,26351736,13
32-25,26355642,-21
32-26,26359548,-62
32-27,26363454,-48
32-28,26367360,6
32-29,26371266,39
32-30,26375172,-19
32-31,26379078,-53
32-32,26382984,-3
32-1,26386895,5
32-2,26390801,-26
32-3,26394707,-32
32-4,26398613,-2
32-5,26402519,33
32-6,26406425,27
32-7,26410331,21
32-8,26414237,29
32-9,26418143,3
32-10,26422049,-39
32-11,26425955,-47
32-12,26429861,-37
32-13,26433767,-31
32-14,26437673,-17
32-15,26441579,-31
32-16,26445485,-53
32-17,26449391,-19
32-18,26453297,15
32-19,26457203,-8
32-20,26461109,-31
32-21,26465015,-20
32-22,26468921,-13
32-23,26472827,-64
32-24,26476733,-142
32-25,26480639,-135
32-26,26484545,-74
32-27,26488451,-90
32-28,26492357,-113
32-29,26496263,-73
32-30,26500169,-67
32-31,26504075,-108
32-32,26507981,-152
32-1,26511923,-191
32-2,26515829,-165
32-3,26519735,-107
32-4,26523641,-110
32-5,26527547,-97
32-6,26531453,-42
32-7,26535359,-21
32-8,26539265,-20
32-9,26543171,-23
32-10,26547077,-20
32-11,26550983,-2
32-12,26554889,-9
32-13,26558795,-2
32-14,26562701,26
32-15,26566607,17
32-16,26570513,-5
32-17,26574419,-21
32-18,26578325,-31
32-19,26582231,-23
32-20,26586137,-8
32-21,26590043,-14
32-22,26593949,-33
32-23,26597855,-21
32-24,26601761,7
32-25,26605667,21
32-26,26609573,6
32-27,26613479,-30
32-28,26617385,1
32-29,26621291,32
32-30,26625197,-67
32-31,26629103,-142
32-32,26633009,-104
32-1,26636890,-65
32-2,26640796,-59
32-3,26644702,-59
32-4,26648608,-49
32-5,26652514,-68
32-6,26656420,-124
32-7,26660326,-146
32-8,26664232,-110
32-9,26668138,-38
32-10,26672044,-10
32-11,26675950,-20
32-12,26679856,55
32-13,26683762,134
32-14,26687668,113
32-15,26691574,78
32-16,26695480,45
32-17,26699386,-4
32-18,26703292,-12
32-19,26707198,12
32-20,26711104,34
32-21,26715010,51
32-22,26718916,35
32-23,26722822,-16
32-24,26726728,-65
32-25,26730634,-98
32-26,26734540,-109
32-27,26738446,-112
32-28,26742352,-133
32-29,26746258,-138
32-30,26750164,-132
32-31,26754070,-141
32-32,26757976,-152
32-1,26761888,-153
32-2,26765794,-112
32-3,26769700,-56
32-4,26773606,-54
32-5,26777512,-60
32-6,26781418,-15
32-7,26785324,13
32-8,26789230,-14
32-9,26793136,-26
32-10,26797042,11
32-11,26800948,35
32-12,26804854,19
32-13,26808760,-12
32-14,26812666,-48
32-15,26816572,-50
32-16,26820478,-40
32-17,26824384,-55
32-18,26828290,-35
32-19,26832196,-23
32-20,26836102,-57
32-21,26840008,-64
32-22,26843914,-60
32-23,26847820,-44
32-24,26851726,-16
32-25,26855632,2
32-26,26859538,34
32-27,26863444,25
32-28,26867350,26
32-29,26871256,85
32-30,26875162,69
32-31,26879068,23
32-32,26882974,61
32-1,26886886,110
32-2,26890792,100
32-3,26894698,57
32-4,26898604,37
32-5,26902510,45
32-6,26906416,43
32-7,26910322,32
32-8,26914228,66
32-9,26918134,121
32-10,26922040,92
32-11,26925946,25
32-12,26929852,27
32-13,26933758,46
32-14,26937664,21
32-15,26941570,-16
32-16,26945476,2
32-17,26949382,54
32-18,26953288,21
32-19,26957194,-64
32-20,26961100,-92
32-21,26965006,-80
32-22,26968912,-62
32-23,26972818,-28
32-24,26976724,-25
32-25,26980630,-51
32-26,26984536,-22
32-27,26988442,2
32-28,26992348,-12
32-29,26996254,26
32-30,27000160,32
32-31,27004066,-9
32-32,27007972,-4
32-1,27011883,10
32-2,27015789,-21
32-3,27019695,-123
32-4,27023601,-203
32-5,27027507,-161
32-6,27031413,-84
32-7,27035319,-25
32-8,27039225,-4
32-9,27043131,-36
32-10,27047037,-45
32-11,27050943,-15
32-12,27054849,-31
32-13,27058755,-58
32-14,27062661,-26
32-15,27066567,4
32-16,27070473,23
32-17,27074379,56
32-18,27078285,52
32-19,27082191,15
32-20,27086097,-17
32-21,27090003,-38
32-22,27093909,-41
32-23,27097815,-31
32-24,27101721,-56
32-25,27105627,-120
32-26,27109533,-152
32-27,27113439,-144
32-28,27117345,-106
32-29,27121251,-75
32-30,27125157,-118
32-31,27129063,-143
32-32,27132969,-134
32-1,27137034,-168
32-2,27140940,-191
32-3,27144846,-182
32-4,27148752,-144
32-5,27152658,-76
32-6,27156564,-38
32-7,27160470,-37
32-8,27164376,-43
32-9,27168282,-56
32-10,27172188,-77
32-11,27176094,-98
32-12,27180000,-118
32-13,27183906,-107
32-14,27187812,-40
32-15,27191718,15
32-16,27195624,9
32-17,27199530,-23
32-18,27203436,-36
32-19,27207342,-35
32-20,27211248,-58
32-21,27215154,-58
32-22,27219060,-33
32-23,27222966,-54
32-24,27226872,-89
32-25,27230778,-81
32-26,27234684,-50
32-27,27238590,-48
32-28,27242496,-52
32-29,27246402,-5
32-30,27250308,-5
32-31,27254214,-67
32-32,27258120,-80
32-1,27261879,-64
32-2,27265785,-49
32-3,27269691,-56
32-4,27273597,-82
32-5,27277503,-49
32-6,27281409,11
32-7,27285315,34
32-8,27289221,19
32-9,27293127,-8
32-10,27297033,-13
32-11,27300939,-13
32-12,27304845,-11
32-13,27308751,-7
32-14,27312657,-14
32-15,27316563,-11
32-16,27320469,-15
32-17,27324375,-46
32-18,27328281,-62
32-19,27332187,-45
32-20,27336093,-18
32-21,27339999,-3
32-22,27343905,-6
32-23,27347811,10
32-24,27351717,30
32-25,27355623,-9
32-26,27359529,-59
32-27,27363435,-83
32-28,27367341,-99
32-29,27371247,-81
32-30,27375153,-80
32-31,27379059,-107
32-32,27382965,-92
32-1,27386876,-73
32-2,27390782,-77
32-3,27394688,-44
32-4,27398594,2
32-5,27402500,-31
32-6,27406406,-111
32-7,27410312,-146
32-8,27414218,-143
32-9,27418124,-126
32-10,27422030,-113
32-11,27425936,-103
32-12,27429842,-94
32-13,27433748,-113
32-14,27437654,-128
32-15,27441560,-107
32-16,27445466,-66
32-17,27449372,-37
32-18,27453278,-59
32-19,27457184,-61
32-20,27461090,-17
32-21,27464996,-9
32-22,27468902,-36
32-23,27472808,-62
32-24,27476714,-60
32-25,27480620,-32
32-26,27484526,-28
32-27,27488432,-67
32-28,27492338,-74
32-29,27496244,-23
32-30,27500150,-30
32-31,27504056,-82
32-32,27507962,-84
32-1,27511874,-67
32-2,27515780,-51
32-3,27519686,-50
32-4,27523592,-62
32-5,27527498,-50
32-6,27531404,-33
32-7,27535310,-9
32-8,27539216,24
32-9,27543122,36
32-10,27547028,55
32-11,27550934,54
32-12,27554840,-18
32-13,27558746,-57
32-14,27562652,-20
32-15,27566558,-5
32-16,27570464,-44
32-17,27574370,-70
32-18,27578276,-49
32-19,27582182,-46
32-20,27586088,-84
32-21,27589994,-102
32-22,27593900,-100
32-23,27597806,-80
32-24,27601712,-47
32-25,27605618,-30
32-26,27609524,-38
32-27,27613430,-78
32-28,27617336,-97
32-29,27621242,-77
32-30,27625148,-87
32-31,27629054,-101
32-32,27632960,-80
32-1,27636872,-41
32-2,27640778,-33
32-3,27644684,-97
32-4,27648590,-149
32-5,27652496,-125
32-6,27656402,-112
32-7,27660308,-114
32-8,27664214,-61
32-9,27668120,16
32-10,27672026,5
32-11,27675932,-70
32-12,27679838,-76
32-13,27683744,-28
32-14,27687650,-33
32-15,27691556,-83
32-16,27695462,-52
32-17,27699368,38
32-18,27703274,21
32-19,27707180,-35
32-20,27711086,-17
32-21,27714992,-7
32-22,27718898,-22
32-23,27722804,-13
32-24,27726710,9
32-25,27730616,35
32-26,27734522,18
32-27,27738428,-54
32-28,27742334,-57
32-29,27746240,9
32-30,27750146,-23
32-31,27754052,-69
32-32,27757958,-39
32-1,27762022,-76
32-2,27765928,-127
32-3,27769834,-98
32-4,27773740,-91
32-5,27777646,-101
32-6,27781552,-81
32-7,27785458,-43
32-8,27789364,15
32-9,27793270,14
32-10,27797176,-49
32-11,27801082,-50
32-12,27804988,-12
32-13,27808894,-9
32-14,27812800,-4
32-15,27816706,3
32-16,27820612,0
32-17,27824518,-19
32-18,27828424,-45
32-19,27832330,-52
32-20,27836236,-40
32-21,27840142,-32
32-22,27844048,-19
32-23,27847954,9
32-24,27851860,1
32-25,27855766,-34
32-26,27859672,-18
32-27,27863578,2
32-28,27867484,12
32-29,27871390,19
32-30,27875296,-22
32-31,27879202,-23
32-32,27883108,11
32-1,27886867,-24
32-2,27890773,-72
32-3,27894679,-81
32-4,27898585,-63
32-5,27902491,-51
32-6,27906397,-32
32-7,27910303,4
32-8,27914209,-29
32-9,27918115,-90
32-10,27922021,-91
32-11,27925927,-94
32-12,27929833,-114
32-13,27933739,-118
32-14,27937645,-99
32-15,27941551,-81
32-16,27945457,-77
32-17,27949363,-55
32-18,27953269,-32
32-19,27957175,-18
32-20,27961081,6
32-21,27964987,36
32-22,27968893,74
32-23,27972799,57
32-24,27976705,-6
32-25,27980611,-10
32-26,27984517,25
32-27,27988423,11
32-28,27992329,-15
32-29,27996235,14
32-30,28000141,-7
32-31,28004047,-138
32-32,28007953,-217
32-1,28011864,-165
32-2,28015770,-79
32-3,28019676,-19
32-4,28023582,-4
32-5,28027488,-3
32-6,28031394,18
32-7,28035300,13
32-8,28039206,-10
32-9,28043112,-12
32-10,28047018,-4
32-11,28050924,1
32-12,28054830,26
32-13,28058736,61
32-14,28062642,22
32-15,28066548,-31
32-16,28070454,10
32-17,28074360,62
32-18,28078266,73
32-19,28082172,88
32-20,28086078,111
32-21,28089984,103
32-22,28093890,32
32-23,28097796,-4
32-24,28101702,28
32-25,28105608,50
32-26,28109514,47
32-27,28113420,40
32-28,28117326,86
32-29,28121232,64
32-30,28125138,-112
32-31,28129044,-181
32-32,28132950,-81
32-1,28136862,-16
32-2,28140768,-7
32-3,28144674,9
32-4,28148580,38
32-5,28152486,19
32-6,28156392,-43
32-7,28160298,-54
32-8,28164204,-15
32-9,28168110,31
32-10,28172016,49
32-11,28175922,64
32-12,28179828,124
32-13,28183734,167
32-14,28187640,155
32-15,28191546,142
32-16,28195452,172
32-17,28199358,181
32-18,28203264,117
32-19,28207170,52
32-20,28211076,28
32-21,28214982,0
32-22,28218888,-10
32-23,28222794,10
32-24,28226700,9
32-25,28230606,0
32-26,28234512,7
32-27,28238418,-11
32-28,28242324,-56
32-29,28246230,-69
32-30,28250136,-51
32-31,28254042,-32
32-32,28257948,-20
32-1,28261860,-39
32-2,28265766,-43
32-3,28269672,2
32-4,28273578,2
32-5,28277484,-37
32-6,28281390,-27
32-7,28285296,-8
32-8,28289202,-29
32-9,28293108,-30
32-10,28297014,8
32-11,28300920,32
32-12,28304826,30
32-13,28308732,21
32-14,28312638,11
32-15,28316544,14
32-16,28320450,25
32-17,28324356,32
32-18,28328262,64
32-19,28332168,73
32-20,28336074,18
32-21,28339980,-20
32-22,28343886,-37
32-23,28347792,-64
32-24,28351698,-84
32-25,28355604,-75
32-26,28359510,-15
32-27,28363416,36
32-28,28367322,60
32-29,28371228,80
32-30,28375134,52
32-31,28379040,1
32-32,28382946,-35
32-1,28387010,-44
32-2,28390916,-48
32-3,28394822,-86
32-4,28398728,-85
32-5,28402634,-68
32-6,28406540,-115
32-7,28410446,-137
32-8,28414352,-86
32-9,28418258,-59
32-10,28422164,-85
32-11,28426070,-97
32-12,28429976,-65
32-13,28433882,-23
32-14,28437788,-8
32-15,28441694,-22
32-16,28445600,5
32-17,28449506,65
32-18,28453412,42
32-19,28457318,-13
32-20,28461224,-18
32-21,28465130,-9
32-22,28469036,5
32-23,28472942,-3
32-24,28476848,-22
32-25,28480754,35
32-26,28484660,91
32-27,28488566,47
32-28,28492472,13
32-29,28496378,50
32-30,28500284,46
32-31,28504190,0
32-32,28508096,-25
32-1,28511916,-76
32-2,28515822,-127
32-3,28519728,-135
32-4,28523634,-144
32-5,28527540,-131
32-6,28531446,-81
32-7,28535352,-48
32-8,28539258,-28
32-9,28543164,-14
32-10,28547070,-13
32-11,28550976,-17
32-12,28554882,-31
32-13,28558788,-39
32-14,28562694,-41
32-15,28566600,-34
32-16,28570506,-14
32-17,28574412,-19
32-18,28578318,-29
32-19,28582224,-16
32-20,28586130,-13
32-21,28590036,-43
32-22,28593942,-74
32-23,28597848,-54
32-24,28601754,-66
32-25,28605660,-145
32-26,28609566,-141
32-27,28613472,-95
32-28,28617378,-75
32-29,28621284,-41
32-30,28625190,-64
32-31,28629096,-104
32-32,28633002,-88
32-1,28636883,-75
32-2,28640789,-79
32-3,28644695,-76
32-4,28648601,-56
32-5,28652507,-40
32-6,28656413,-37
32-7,28660319,-31
32-8,28664225,-38
32-9,28668131,-56
32-10,28672037,-67
32-11,28675943,-65
32-12,28679849,-51
32-13,28683755,-21
32-14,28687661,29
32-15,28691567,34
32-16,28695473,-2
32-17,28699379,10
32-18,28703285,31
32-19,28707191,5
32-20,28711097,-39
32-21,28715003,-64
32-22,28718909,-30
32-23,28722815,-3
32-24,28726721,-33
32-25,28730627,-37
32-26,28734533,9
32-27,28738439,-4
32-28,28742345,-46
32-29,28746251,12
32-30,28750157,5
32-31,28754063,-118
32-32,28757969,-120
32-1,28761850,-70
32-2,28765756,-79
32-3,28769662,-43
32-4,28773568,-29
32-5,28777474,-67
32-6,28781380,-63
32-7,28785286,-66
32-8,28789192,-113
32-9,28793098,-132
32-10,28797004,-96
32-11,28800910,-77
32-12,28804816,-86
32-13,28808722,-41
32-14,28812628,31
32-15,28816534,39
32-16,28820440,16
32-17,28824346,6
32-18,28828252,12
32-19,28832158,27
32-20,28836064,22
32-21,28839970,15
32-22,28843876,13
32-23,28847782,-8
32-24,28851688,-44
32-25,28855594,-75
32-26,28859500,-82
32-27,28863406,-76
32-28,28867312,-53
32-29,28871218,-58
32-30,28875124,-130
32-31,28879030,-154
32-32,28882936,-96
32-1,28886848,-53
32-2,28890754,-41
32-3,28894660,-20
32-4,28898566,13
32-5,28902472,-13
32-6,28906378,-91
32-7,28910284,-115
32-8,28914190,-78
32-9,28918096,-33
32-10,28922002,-24
32-11,28925908,-32
32-12,28929814,-2
32-13,28933720,24
32-14,28937626,11
32-15,28941532,8
32-16,28945438,17
32-17,28949344,8
32-18,28953250,0
32-19,28957156,43
32-20,28961062,82
32-21,28964968,42
32-22,28968874,-11
32-23,28972780,-14
32-24,28976686,-5
32-25,28980592,24
32-26,28984498,60
32-27,28988404,40
32-28,28992310,1
32-29,28996216,-11
32-30,29000122,-43
32-31,29004028,-87
32-32,29007934,-120
32-1,29011845,-133
32-2,29015751,-99
32-3,29019657,-69
32-4,29023563,-85
32-5,29027469,-88
32-6,29031375,-55
32-7,29035281,-49
32-8,29039187,-86
32-9,29043093,-96
32-10,29046999,-58
32-11,29050905,-25
32-12,29054811,-41
32-13,29058717,-96
32-14,29062623,-139
32-15,29066529,-153
32-16,29070435,-138
32-17,29074341,-106
32-18,29078247,-99
32-19,29082153,-92
32-20,29086059,-70
32-21,29089965,-74
32-22,29093871,-87
32-23,29097777,-73
32-24,29101683,-69
32-25,29105589,-70
32-26,29109495,-30
32-27,29113401,-27
32-28,29117307,-68
32-29,29121213,-60
32-30,29125119,-87
32-31,29129025,-140
32-32,29132931,-119
32-1,29136843,-70
32-2,29140749,-17
32-3,29144655,14
32-4,29148561,3
32-5,29152467,12
32-6,29156373,20
32-7,29160279,-9
32-8,29164185,-28
32-9,29168091,-4
32-10,29171997,-3
32-11,29175903,-55
32-12,29179809,-79
32-13,29183715,-84
32-14,29187621,-117
32-15,29191527,-147
32-16,29195433,-133
32-17,29199339,-53
32-18,29203245,4
32-19,29207151,-10
32-20,29211057,2
32-21,29214963,52
32-22,29218869,56
32-23,29222775,18
32-24,29226681,2
32-25,29230587,4
32-26,29234493,-15
32-27,29238399,-56
32-28,29242305,-71
32-29,29246211,-33
32-30,29250117,-26
32-31,29254023,-57
32-32,29257929,-49
32-1,29261902,-31
32-2,29265808,-20
32-3,29269714,-5
32-4,29273620,-16
32-5,29277526,-38
32-6,29281432,-51
32-7,29285338,-48
32-8,29289244,-17
32-9,29293150,2
32-10,29297056,3
32-11,29300962,11
32-12,29304868,33
32-13,29308774,68
32-14,29312680,69
32-15,29316586,48
32-16,29320492,65
32-17,29324398,50
32-18,29328304,-12
32-19,29332210,-19
32-20,29336116,-11
32-21,29340022,-43
32-22,29343928,-41
32-23,29347834,11
32-24,29351740,31
32-25,29355646,-7
32-26,29359552,-35
32-27,29363458,-39
32-28,29367364,-47
32-29,29371270,-67
32-30,29375176,-72
32-31,29379082,-45
32-32,29382988,-75
32-1,29386899,-143
32-2,29390805,-131
32-3,29394711,-90
32-4,29398617,-60
32-5,29402523,-35
32-6,29406429,-54
32-7,29410335,-64
32-8,29414241,-20
32-9,29418147,28
32-10,29422053,13
32-11,29425959,-44
32-12,29429865,-47
32-13,29433771,-5
32-14,29437677,30
32-15,29441583,36
32-16,29445489,15
32-17,29449395,-3
32-18,29453301,-24
32-19,29457207,-47
32-20,29461113,-40
32-21,29465019,-14
32-22,29468925,25
32-23,29472831,61
32-24,29476737,57
32-25,29480643,35
32-26,29484549,42
32-27,29488455,35
32-28,29492361,24
32-29,29496267,84
32-30,29500173,106
32-31,29504079,18
32-32,29507985,-47
32-1,29511836,-53
32-2,29515742,-50
32-3,29519648,-52
32-4,29523554,-54
32-5,29527460,-26
32-6,29531366,10
32-7,29535272,-4
32-8,29539178,-50
32-9,29543084,-61
32-10,29546990,-56
32-11,29550896,-88
32-12,29554802,-108
32-13,29558708,-75
32-14,29562614,-28
32-15,29566520,7
32-16,29570426,25
32-17,29574332,14
32-18,29578238,-17
32-19,29582144,-24
32-20,29586050,1
32-21,29589956,19
32-22,29593862,-7
32-23,29597768,-36
32-24,29601674,-24
32-25,29605580,-10
32-26,29609486,-4
32-27,29613392,-10
32-28,29617298,13
32-29,29621204,31
32-30,29625110,-89
32-31,29629016,-177
32-32,29632922,-93
32-1,29636834,-40
32-2,29640740,-66
32-3,29644646,-59
32-4,29648552,-13
32-5,29652458,35
32-6,29656364,34
32-7,29660270,11
32-8,29664176,21
32-9,29668082,14
32-10,29671988,-28
32-11,29675894,-43
32-12,29679800,-34
32-13,29683706,-54
32-14,29687612,-88
32-15,29691518,-98
32-16,29695424,-81
32-17,29699330,-41
32-18,29703236,-23
32-19,29707142,-22
32-20,29711048,-7
32-21,29714954,-16
32-22,29718860,-47
32-23,29722766,-48
32-24,29726672,-26
32-25,29730578,-34
32-26,29734484,-33
32-27,29738390,-6
32-28,29742296,-30
32-29,29746202,-57
32-30,29750108,-59
32-31,29754014,-89
32-32,29757920,-89
32-1,29761831,-67
32-2,29765737,-60
32-3,29769643,-52
32-4,29773549,-74
32-5,29777455,-105
32-6,29781361,-90
32-7,29785267,-54
32-8,29789173,-55
32-9,29793079,-64
32-10,29796985,-36
32-11,29800891,-53
32-12,29804797,-104
32-13,29808703,-100
32-14,29812609,-88
32-15,29816515,-90
32-16,29820421,-89
32-17,29824327,-99
32-18,29828233,-85
32-19,29832139,-74
32-20,29836045,-103
32-21,29839951,-120
32-22,29843857,-118
32-23,29847763,-126
32-24,29851669,-144
32-25,29855575,-147
32-26,29859481,-134
32-27,29863387,-142
32-28,29867293,-132
32-29,29871199,-98
32-30,29875105,-108
32-31,29879011,-136
32-32,29882917,-139
32-1,29886829,-100
32-2,29890735,-72
32-3,29894641,-115
32-4,29898547,-140
32-5,29902453,-120
32-6,29906359,-131
32-7,29910265,-153
32-8,29914171,-132
32-9,29918077,-101
32-10,29921983,-120
32-11,29925889,-129
32-12,29929795,-67
32-13,29933701,-38
32-14,29937607,-63
32-15,29941513,-78
32-16,29945419,-89
32-17,29949325,-54
32-18,29953231,-20
32-19,29957137,-40
32-20,29961043,-44
32-21,29964949,-28
32-22,29968855,-37
32-23,29972761,-54
32-24,29976667,-45
32-25,29980573,-7
32-26,29984479,23
32-27,29988385,-14
32-28,29992291,-42
32-29,29996197,9
32-30,30000103,3
32-31,30004009,-37
32-32,30007915,14
32-1,30011888,19
32-2,30015794,-52
32-3,30019700,-70
32-4,30023606,-82
32-5,30027512,-104
32-6,30031418,-69
32-7,30035324,-25
32-8,30039230,-21
32-9,30043136,-36
32-10,30047042,-43
32-11,30050948,-49
32-12,30054854,-76
32-13,30058760,-87
32-14,30062666,-60
32-15,30066572,-16
32-16,30070478,31
32-17,30074384,27
32-18,30078290,-3
32-19,30082196,-17
32-20,30086102,-51
32-21,30090008,-68
32-22,30093914,-60
32-23,30097820,-61
32-24,30101726,-69
32-25,30105632,-96
32-26,30109538,-103
32-27,30113444,-75
32-28,30117350,-28
32-29,30121256,9
32-30,30125162,1
32-31,30129068,22
32-32,30132974,59
32-1,30136885,33
32-2,30140791,-18
32-3,30144697,-49
32-4,30148603,-37
32-5,30152509,-32
32-6,30156415,-36
32-7,30160321,-23
32-8,30164227,-69
32-9,30168133,-89
32-10,30172039,-33
32-11,30175945,-16
32-12,30179851,-12
32-13,30183757,3
32-14,30187663,-4
32-15,30191569,-24
32-16,30195475,-46
32-17,30199381,-59
32-18,30203287,-48
32-19,30207193,-21
32-20,30211099,-25
32-21,30215005,-19
32-22,30218911,45
32-23,30222817,73
32-24,30226723,44
