32-1,194399856,-29
32-2,194403762,-75
32-3,194407668,-52
32-4,194411574,-1
32-5,194415480,0
32-6,194419386,-60
32-7,194423292,-54
32-8,194427198,29
32-9,194431104,47
32-10,194435010,-10
32-11,194438916,-31
32-12,194442822,25
32-13,194446728,68
32-14,194450634,3
32-15,194454540,-67
32-16,194458446,-17
32-17,194462352,58
32-18,194466258,30
32-19,194470164,-43
32-20,194474070,-42
32-21,194477976,32
32-22,194481882,41
32-23,194485788,-27
32-24,194489694,-51
32-25,194493600,3
32-26,194497506,46
32-27,194501412,-10
32-28,194505318,-37
32-29,194509224,73
32-30,194513130,95
32-31,194517036,-33
32-32,194520942,-96
32-1,194524854,-45
32-2,194528760,27
32-3,194532666,25
32-4,194536572,-32
32-5,194540478,-28
32-6,194544384,37
32-7,194548290,44
32-8,194552196,-21
32-9,194556102,-43
32-10,194560008,14
32-11,194563914,37
32-12,194567820,-32
32-13,194571726,-75
32-14,194575632,-4
32-15,194579538,54
32-16,194583444,-7
32-17,194587350,-85
32-18,194591256,-74
32-19,194595162,-11
32-20,194599068,-21
32-21,194602974,-94
32-22,194606880,-101
32-23,194610786,-23
32-24,194614692,22
32-25,194618598,-24
32-26,194622504,-52
32-27,194626410,-8
32-28,194630316,27
32-29,194634222,-5
32-30,194638128,-84
32-31,194642034,-82
32-32,194645940,2
32-1,194649851,-19
32-2,194653757,-89
32-3,194657663,-44
32-4,194661569,22
32-5,194665475,-6
32-6,194669381,-87
32-7,194673287,-115
32-8,194677193,-53
32-9,194681099,-17
32-10,194685005,-84
32-11,194688911,-126
32-12,194692817,-61
32-13,194696723,-6
32-14,194700629,-43
32-15,194704535,-85
32-16,194708441,-40
32-17,194712347,36
32-18,194716253,27
32-19,194720159,-44
32-20,194724065,-34
32-21,194727971,41
32-22,194731877,38
32-23,194735783,-37
32-24,194739689,-65
32-25,194743595,-18
32-26,194747501,23
32-27,194751407,-27
32-28,194755313,-62
32-29,194759219,31
32-30,194763125,75
32-31,194767031,-14
32-32,194770937,-77
32-1,194774849,-47
32-2,194778755,23
32-3,194782661,21
32-4,194786567,-66
32-5,194790473,-86
32-6,194794379,-10
32-7,194798285,27
32-8,194802191,-26
32-9,194806097,-62
32-10,194810003,-11
32-11,194813909,19
32-12,194817815,-44
32-13,194821721,-93
32-14,194825627,-63
32-15,194829533,-16
32-16,194833439,-29
32-17,194837345,-73
32-18,194841251,-47
32-19,194845157,18
32-20,194849063,-4
32-21,194852969,-101
32-22,194856875,-122
32-23,194860781,-35
32-24,194864687,-1
32-25,194868593,-63
32-26,194872499,-77
32-27,194876405,-13
32-28,194880311,31
32-29,194884217,-8
32-30,194888123,-84
32-31,194892029,-76
32-32,194895935,-33
32-1,194899847,-66
32-2,194903753,-112
32-3,194907659,-95
32-4,194911565,-43
32-5,194915471,-43
32-6,194919377,-104
32-7,194923283,-102
32-8,194927189,-6
32-9,194931095,55
32-10,194935001,-18
32-11,194938907,-88
32-12,194942813,-37
32-13,194946719,14
32-14,194950625,-40
32-15,194954531,-114
32-16,194958437,-89
32-17,194962343,-26
32-18,194966249,-70
32-19,194970155,-141
32-20,194974061,-114
32-21,194977967,-50
32-22,194981873,-55
32-23,194985779,-100
32-24,194989685,-80
32-25,194993591,0
32-26,194997497,33
32-27,195001403,-40
32-28,195005309,-90
32-29,195009215,-17
32-30,195013121,22
32-31,195017027,-50
32-32,195020933,-93
32-1,195024997,-41
32-2,195028903,28
32-3,195032809,4
32-4,195036715,-57
32-5,195040621,-20
32-6,195044527,73
32-7,195048433,73
32-8,195052339,-17
32-9,195056245,-49
32-10,195060151,15
32-11,195064057,48
32-12,195067963,-8
32-13,195071869,-47
32-14,195075775,3
32-15,195079681,51
32-16,195083587,-4
32-17,195087493,-72
32-18,195091399,-42
32-19,195095305,9
32-20,195099211,-39
32-21,195103117,-108
32-22,195107023,-86
32-23,195110929,3
32-24,195114835,34
32-25,195118741,-50
32-26,195122647,-102
32-27,195126553,-50
32-28,195130459,-9
32-29,195134365,-43
32-30,195138271,-114
32-31,195142177,-98
32-32,195146083,-20
32-1,195149842,-52
32-2,195153748,-121
32-3,195157654,-68
32-4,195161560,30
32-5,195165466,31
32-6,195169372,-27
32-7,195173278,-16
32-8,195177184,51
32-9,195181090,66
32-10,195184996,4
32-11,195188902,-28
32-12,195192808,45
32-13,195196714,106
32-14,195200620,38
32-15,195204526,-39
32-16,195208432,12
32-17,195212338,87
32-18,195216244,57
32-19,195220150,-7
32-20,195224056,-13
32-21,195227962,34
32-22,195231868,29
32-23,195235774,-52
32-24,195239680,-72
32-25,195243586,-1
32-26,195247492,13
32-27,195251398,-83
32-28,195255304,-117
32-29,195259210,0
32-30,195263116,48
32-31,195267022,-47
32-32,195270928,-85
32-1,195274840,-30
32-2,195278746,22
32-3,195282652,14
32-4,195286558,-29
32-5,195290464,-24
32-6,195294370,32
32-7,195298276,26
32-8,195302182,-61
32-9,195306088,-84
32-10,195309994,-19
32-11,195313900,-24
32-12,195317806,-112
32-13,195321712,-145
32-14,195325618,-82
32-15,195329524,-32
32-16,195333430,-73
32-17,195337336,-133
32-18,195341242,-89
32-19,195345148,-7
32-20,195349054,-30
32-21,195352960,-88
32-22,195356866,-60
32-23,195360772,4
32-24,195364678,13
32-25,195368584,-42
32-26,195372490,-64
32-27,195376396,0
32-28,195380302,53
32-29,195384208,6
32-30,195388114,-75
32-31,195392020,-71
32-32,195395926,-24
32-1,195399837,-52
32-2,195403743,-105
32-3,195407649,-82
32-4,195411555,-13
32-5,195415461,-9
32-6,195419367,-74
32-7,195423273,-86
32-8,195427179,-36
32-9,195431085,-31
32-10,195434991,-83
32-11,195438897,-98
32-12,195442803,-56
32-13,195446709,-43
32-14,195450615,-89
32-15,195454521,-122
32-16,195458427,-102
32-17,195462333,-57
32-18,195466239,-54
32-19,195470145,-95
32-20,195474051,-87
32-21,195477957,-27
32-22,195481863,-38
32-23,195485769,-91
32-24,195489675,-61
32-25,195493581,17
32-26,195497487,36
32-27,195501393,-43
32-28,195505299,-83
32-29,195509205,8
32-30,195513111,43
32-31,195517017,-59
32-32,195520923,-134
32-1,195524835,-114
32-2,195528741,-59
32-3,195532647,-53
32-4,195536553,-97
32-5,195540459,-112
32-6,195544365,-60
32-7,195548271,-31
32-8,195552177,-82
32-9,195556083,-87
32-10,195559989,-2
32-11,195563895,21
32-12,195567801,-76
32-13,195571707,-139
32-14,195575613,-44
32-15,195579519,63
32-16,195583425,4
32-17,195587331,-78
32-18,195591237,-39
32-19,195595143,21
32-20,195599049,-8
32-21,195602955,-70
32-22,195606861,-60
32-23,195610767,12
32-24,195614673,24
32-25,195618579,-39
32-26,195622485,-75
32-27,195626391,-44
32-28,195630297,-10
32-29,195634203,-43
32-30,195638109,-119
32-31,195642015,-119
32-32,195645921,-52
32-1,195649832,-73
32-2,195653738,-134
32-3,195657644,-89
32-4,195661550,-10
32-5,195665456,-31
32-6,195669362,-106
32-7,195673268,-95
32-8,195677174,-23
32-9,195681080,-12
32-10,195684986,-71
32-11,195688892,-101
32-12,195692798,-29
32-13,195696704,28
32-14,195700610,-39
32-15,195704516,-83
32-16,195708422,-7
32-17,195712328,60
32-18,195716234,43
32-19,195720140,1
32-20,195724046,-3
32-21,195727952,43
32-22,195731858,46
32-23,195735764,-33
32-24,195739670,-59
32-25,195743576,1
32-26,195747482,2
32-27,195751388,-77
32-28,195755294,-78
32-29,195759200,27
32-30,195763106,54
32-31,195767012,-39
32-32,195770918,-104
32-1,195775013,-69
32-2,195778919,-7
32-3,195782825,-50
32-4,195786731,-148
32-5,195790637,-122
32-6,195794543,-39
32-7,195798449,-47
32-8,195802355,-98
32-9,195806261,-81
32-10,195810167,14
32-11,195814073,53
32-12,195817979,-28
32-13,195821885,-74
32-14,195825791,-11
32-15,195829697,20
32-16,195833603,-39
32-17,195837509,-72
32-18,195841415,-17
32-19,195845321,25
32-20,195849227,-32
32-21,195853133,-90
32-22,195857039,-64
32-23,195860945,-15
32-24,195864851,-21
32-25,195868757,-67
32-26,195872663,-86
32-27,195876569,-45
32-28,195880475,28
32-29,195884381,28
32-30,195888287,-60
32-31,195892193,-45
32-32,195896099,48
32-1,195899828,15
32-2,195903734,-68
32-3,195907640,-62
32-4,195911546,-14
32-5,195915452,-24
32-6,195919358,-83
32-7,195923264,-58
32-8,195927170,33
32-9,195931076,34
32-10,195934982,-41
32-11,195938888,-62
32-12,195942794,-21
32-13,195946700,8
32-14,195950606,-14
32-15,195954512,-42
32-16,195958418,-19
32-17,195962324,5
32-18,195966230,-43
32-19,195970136,-96
32-20,195974042,-73
32-21,195977948,-22
32-22,195981854,-21
32-23,195985760,-45
32-24,195989666,-13
32-25,195993572,38
32-26,195997478,19
32-27,196001384,-91
32-28,196005290,-132
32-29,196009196,-9
32-30,196013102,41
32-31,196017008,-62
32-32,196020914,-111
32-1,196024825,-63
32-2,196028731,-18
32-3,196032637,-47
32-4,196036543,-121
32-5,196040449,-119
32-6,196044355,-41
32-7,196048261,-27
32-8,196052167,-104
32-9,196056073,-131
32-10,196059979,-78
32-11,196063885,-55
32-12,196067791,-85
32-13,196071697,-92
32-14,196075603,-27
32-15,196079509,24
32-16,196083415,-36
32-17,196087321,-104
32-18,196091227,-52
32-19,196095133,42
32-20,196099039,38
32-21,196102945,-29
32-22,196106851,-34
32-23,196110757,21
32-24,196114663,17
32-25,196118569,-41
32-26,196122475,-45
32-27,196126381,1
32-28,196130287,50
32-29,196134193,44
32-30,196138099,-22
32-31,196142005,-18
32-32,196145911,23
32-1,196149823,-31
32-2,196153729,-85
32-3,196157635,-46
32-4,196161541,13
32-5,196165447,3
32-6,196169353,-53
32-7,196173259,-49
32-8,196177165,15
32-9,196181071,17
32-10,196184977,-35
32-11,196188883,-23
32-12,196192789,53
32-13,196196695,70
32-14,196200601,12
32-15,196204507,-42
32-16,196208413,-21
32-17,196212319,43
32-18,196216225,22
32-19,196220131,-44
32-20,196224037,-23
32-21,196227943,43
32-22,196231849,44
32-23,196235755,-9
32-24,196239661,-33
32-25,196243567,-4
32-26,196247473,-12
32-27,196251379,-95
32-28,196255285,-110
32-29,196259191,-20
32-30,196263097,-24
32-31,196267003,-145
32-32,196270909,-195
32-1,196274821,-132
32-2,196278727,-64
32-3,196282633,-80
32-4,196286539,-122
32-5,196290445,-85
32-6,196294351,-15
32-7,196298257,-19
32-8,196302163,-85
32-9,196306069,-94
32-10,196309975,-23
32-11,196313881,11
32-12,196317787,-45
32-13,196321693,-98
32-14,196325599,-59
32-15,196329505,-22
32-16,196333411,-82
32-17,196337317,-130
32-18,196341223,-91
32-19,196345129,-35
32-20,196349035,-35
32-21,196352941,-86
32-22,196356847,-84
32-23,196360753,1
32-24,196364659,24
32-25,196368565,-41
32-26,196372471,-56
32-27,196376377,1
32-28,196380283,43
32-29,196384189,37
32-30,196388095,-13
32-31,196392001,-32
32-32,196395907,-5
32-1,196399818,-30
32-2,196403724,-62
32-3,196407630,-18
32-4,196411536,23
32-5,196415442,-21
32-6,196419348,-90
32-7,196423254,-74
32-8,196427160,11
32-9,196431066,16
32-10,196434972,-63
32-11,196438878,-64
32-12,196442784,12
32-13,196446690,29
32-14,196450596,-30
32-15,196454502,-65
32-16,196458408,-8
32-17,196462314,66
32-18,196466220,24
32-19,196470126,-63
32-20,196474032,-48
32-21,196477938,18
32-22,196481844,-3
32-23,196485750,-77
32-24,196489656,-60
32-25,196493562,36
32-26,196497468,65
32-27,196501374,-17
32-28,196505280,-57
32-29,196509186,28
32-30,196513092,54
32-31,196516998,-35
32-32,196520904,-54
32-1,196524999,25
32-2,196528905,63
32-3,196532811,5
32-4,196536717,-56
32-5,196540623,-37
32-6,196544529,14
32-7,196548435,1
32-8,196552341,-69
32-9,196556247,-74
32-10,196560153,-1
32-11,196564059,13
32-12,196567965,-62
32-13,196571871,-100
32-14,196575777,-38
32-15,196579683,13
32-16,196583589,-38
32-17,196587495,-93
32-18,196591401,-75
32-19,196595307,-31
32-20,196599213,-37
32-21,196603119,-90
32-22,196607025,-84
32-23,196610931,6
32-24,196614837,27
32-25,196618743,-47
32-26,196622649,-50
32-27,196626555,5
32-28,196630461,26
32-29,196634367,21
32-30,196638273,-6
32-31,196642179,5
32-32,196646085,21
32-1,196649813,-49
32-2,196653719,-93
32-3,196657625,-41
32-4,196661531,13
32-5,196665437,-30
32-6,196669343,-119
32-7,196673249,-95
32-8,196677155,4
32-9,196681061,20
32-10,196684967,-27
32-11,196688873,-37
32-12,196692779,-4
32-13,196696685,2
32-14,196700591,-49
32-15,196704497,-96
32-16,196708403,-59
32-17,196712309,-1
32-18,196716215,-17
32-19,196720121,-40
32-20,196724027,0
32-21,196727933,35
32-22,196731839,6
32-23,196735745,-51
32-24,196739651,-55
32-25,196743557,14
32-26,196747463,41
32-27,196751369,-60
32-28,196755275,-111
32-29,196759181,-18
32-30,196763087,-6
32-31,196766993,-126
32-32,196770899,-167
32-1,196774811,-94
32-2,196778717,-26
32-3,196782623,-38
32-4,196786529,-84
32-5,196790435,-57
32-6,196794341,10
32-7,196798247,3
32-8,196802153,-50
32-9,196806059,-39
32-10,196809965,40
32-11,196813871,60
32-12,196817777,-6
32-13,196821683,-33
32-14,196825589,24
32-15,196829495,53
32-16,196833401,0
32-17,196837307,-38
32-18,196841213,28
32-19,196845119,113
32-20,196849025,88
32-21,196852931,25
32-22,196856837,46
32-23,196860743,89
32-24,196864649,51
32-25,196868555,-10
32-26,196872461,-4
32-27,196876367,28
32-28,196880273,44
32-29,196884179,25
32-30,196888085,-42
32-31,196891991,-38
32-32,196895897,38
32-1,196899809,23
32-2,196903715,-42
32-3,196907621,-12
32-4,196911527,43
32-5,196915433,-19
32-6,196919339,-137
32-7,196923245,-137
32-8,196927151,-50
32-9,196931057,-46
32-10,196934963,-117
32-11,196938869,-115
32-12,196942775,-29
32-13,196946681,5
32-14,196950587,-61
32-15,196954493,-114
32-16,196958399,-78
32-17,196962305,-35
32-18,196966211,-53
32-19,196970117,-76
32-20,196974023,-29
32-21,196977929,28
32-22,196981835,-18
32-23,196985741,-108
32-24,196989647,-115
32-25,196993553,-55
32-26,196997459,-36
32-27,197001365,-89
32-28,197005271,-80
32-29,197009177,21
32-30,197013083,30
32-31,197016989,-71
32-32,197020895,-116
32-1,197024806,-71
32-2,197028712,-29
32-3,197032618,-80
32-4,197036524,-158
32-5,197040430,-127
32-6,197044336,-22
32-7,197048242,-7
32-8,197052148,-84
32-9,197056054,-76
32-10,197059960,10
32-11,197063866,15
32-12,197067772,-50
32-13,197071678,-76
32-14,197075584,-19
32-15,197079490,31
32-16,197083396,-15
32-17,197087302,-50
32-18,197091208,7
32-19,197095114,51
32-20,197099020,12
32-21,197102926,-53
32-22,197106832,-55
32-23,197110738,24
32-24,197114644,47
32-25,197118550,-25
32-26,197122456,-30
32-27,197126362,29
32-28,197130268,50
32-29,197134174,32
32-30,197138080,-5
32-31,197141986,13
32-32,197145892,55
32-1,197149804,4
32-2,197153710,-52
32-3,197157616,-18
32-4,197161522,14
32-5,197165428,-27
32-6,197169334,-89
32-7,197173240,-65
32-8,197177146,24
32-9,197181052,10
32-10,197184958,-105
32-11,197188864,-135
32-12,197192770,-58
32-13,197196676,-33
32-14,197200582,-105
32-15,197204488,-153
32-16,197208394,-103
32-17,197212300,-38
32-18,197216206,-47
32-19,197220112,-111
32-20,197224018,-110
32-21,197227924,-30
32-22,197231830,-34
32-23,197235736,-104
32-24,197239642,-85
32-25,197243548,-19
32-26,197247454,0
32-27,197251360,-61
32-28,197255266,-93
32-29,197259172,0
32-30,197263078,35
32-31,197266984,-59
32-32,197270890,-95
32-1,197274954,-44
32-2,197278860,-6
32-3,197282766,-28
32-4,197286672,-71
32-5,197290578,-56
32-6,197294484,18
32-7,197298390,34
32-8,197302296,-47
32-9,197306202,-63
32-10,197310108,17
32-11,197314014,26
32-12,197317920,-55
32-13,197321826,-69
32-14,197325732,6
32-15,197329638,34
32-16,197333544,-14
32-17,197337450,-39
32-18,197341356,-9
32-19,197345262,24
32-20,197349168,-20
32-21,197353074,-77
32-22,197356980,-27
32-23,197360886,55
32-24,197364792,30
32-25,197368698,-61
32-26,197372604,-90
32-27,197376510,-31
32-28,197380416,36
32-29,197384322,-4
32-30,197388228,-92
32-31,197392134,-70
32-32,197396040,-12
32-1,197399799,-64
32-2,197403705,-137
32-3,197407611,-107
32-4,197411517,-22
32-5,197415423,-33
32-6,197419329,-123
32-7,197423235,-122
32-8,197427141,-36
32-9,197431047,-37
32-10,197434953,-126
32-11,197438859,-124
32-12,197442765,-39
32-13,197446671,-29
32-14,197450577,-97
32-15,197454483,-118
32-16,197458389,-65
32-17,197462295,-21
32-18,197466201,-46
32-19,197470107,-94
32-20,197474013,-81
32-21,197477919,-27
32-22,197481825,-35
32-23,197485731,-96
32-24,197489637,-97
32-25,197493543,-28
32-26,197497449,-4
32-27,197501355,-84
32-28,197505261,-92
32-29,197509167,52
32-30,197513073,78
32-31,197516979,-71
32-32,197520885,-130
32-1,197524797,-59
32-2,197528703,-6
32-3,197532609,-38
32-4,197536515,-85
32-5,197540421,-33
32-6,197544327,47
32-7,197548233,6
32-8,197552139,-78
32-9,197556045,-66
32-10,197559951,-1
32-11,197563857,6
32-12,197567763,-52
32-13,197571669,-65
32-14,197575575,3
32-15,197579481,26
32-16,197583387,-40
32-17,197587293,-83
32-18,197591199,-54
32-19,197595105,-20
32-20,197599011,-61
32-21,197602917,-130
32-22,197606823,-104
32-23,197610729,-17
32-24,197614635,-8
32-25,197618541,-73
32-26,197622447,-85
32-27,197626353,-35
32-28,197630259,-16
32-29,197634165,-49
32-30,197638071,-99
32-31,197641977,-73
32-32,197645883,-4
32-1,197649795,-43
32-2,197653701,-111
32-3,197657607,-82
32-4,197661513,-16
32-5,197665419,-31
32-6,197669325,-123
32-7,197673231,-116
32-8,197677137,-5
32-9,197681043,-1
32-10,197684949,-85
32-11,197688855,-87
32-12,197692761,-1
32-13,197696667,54
32-14,197700573,26
32-15,197704479,-8
32-16,197708385,42
32-17,197712291,92
32-18,197716197,34
32-19,197720103,-18
32-20,197724009,43
32-21,197727915,119
32-22,197731821,103
32-23,197735727,23
32-24,197739633,-6
32-25,197743539,57
32-26,197747445,75
32-27,197751351,-17
32-28,197755257,-42
32-29,197759163,51
32-30,197763069,51
32-31,197766975,-50
32-32,197770881,-55
32-1,197774792,23
32-2,197778698,69
32-3,197782604,16
32-4,197786510,-73
32-5,197790416,-46
32-6,197794322,64
32-7,197798228,55
32-8,197802134,-33
32-9,197806040,-10
32-10,197809946,75
32-11,197813852,59
32-12,197817758,-30
32-13,197821664,-63
32-14,197825570,-5
32-15,197829476,46
32-16,197833382,-9
32-17,197837288,-82
32-18,197841194,-50
32-19,197845100,20
32-20,197849006,12
32-21,197852912,-37
32-22,197856818,-20
32-23,197860724,40
32-24,197864630,12
32-25,197868536,-72
32-26,197872442,-58
32-27,197876348,10
32-28,197880254,37
32-29,197884160,32
32-30,197888066,-22
32-31,197891972,-56
32-32,197895878,-23
32-1,197899759,-54
32-2,197903665,-106
32-3,197907571,-53
32-4,197911477,0
32-5,197915383,-35
32-6,197919289,-83
32-7,197923195,-59
32-8,197927101,-5
32-9,197931007,-27
32-10,197934913,-90
32-11,197938819,-72
32-12,197942725,-12
32-13,197946631,-14
32-14,197950537,-81
32-15,197954443,-117
32-16,197958349,-70
32-17,197962255,-23
32-18,197966161,-78
32-19,197970067,-153
32-20,197973973,-134
32-21,197977879,-66
32-22,197981785,-68
32-23,197985691,-121
32-24,197989597,-120
32-25,197993503,-46
32-26,197997409,-27
32-27,198001315,-108
32-28,198005221,-116
32-29,198009127,2
32-30,198013033,34
32-31,198016939,-74
32-32,198020845,-126
32-1,198024971,-63
32-2,198028877,-22
32-3,198032783,-85
32-4,198036689,-150
32-5,198040595,-118
32-6,198044501,-48
32-7,198048407,-58
32-8,198052313,-131
32-9,198056219,-128
32-10,198060125,-40
32-11,198064031,-24
32-12,198067937,-110
32-13,198071843,-134
32-14,198075749,-43
32-15,198079655,15
32-16,198083561,-29
32-17,198087467,-66
32-18,198091373,-34
32-19,198095279,19
32-20,198099185,11
32-21,198103091,-54
32-22,198106997,-50
32-23,198110903,20
32-24,198114809,16
32-25,198118715,-42
32-26,198122621,-61
32-27,198126527,-59
32-28,198130433,-48
32-29,198134339,-59
32-30,198138245,-99
32-31,198142151,-74
32-32,198146057,-14
32-1,198149785,-42
32-2,198153691,-104
32-3,198157597,-84
32-4,198161503,-26
32-5,198165409,-47
32-6,198169315,-115
32-7,198173221,-118
32-8,198177127,-62
32-9,198181033,-55
32-10,198184939,-108
32-11,198188845,-93
32-12,198192751,-18
32-13,198196657,-11
32-14,198200563,-78
32-15,198204469,-121
32-16,198208375,-73
32-17,198212281,-2
32-18,198216187,-32
32-19,198220093,-99
32-20,198223999,-62
32-21,198227905,20
32-22,198231811,-4
32-23,198235717,-76
32-24,198239623,-72
32-25,198243529,-18
32-26,198247435,-10
32-27,198251341,-89
32-28,198255247,-112
32-29,198259153,14
32-30,198263059,51
32-31,198266965,-64
32-32,198270871,-106
32-1,198274783,-44
32-2,198278689,9
32-3,198282595,-12
32-4,198286501,-57
32-5,198290407,-7
32-6,198294313,61
32-7,198298219,18
32-8,198302125,-65
32-9,198306031,-54
32-10,198309937,12
32-11,198313843,19
32-12,198317749,-19
32-13,198321655,-12
32-14,198325561,43
32-15,198329467,72
32-16,198333373,37
32-17,198337279,7
32-18,198341185,43
32-19,198345091,94
32-20,198348997,65
32-21,198352903,-13
32-22,198356809,-10
32-23,198360715,48
32-24,198364621,19
32-25,198368527,-49
32-26,198372433,-34
32-27,198376339,7
32-28,198380245,2
32-29,198384151,-22
32-30,198388057,-37
32-31,198391963,12
32-32,198395869,58
32-1,198399780,4
32-2,198403686,-39
32-3,198407592,28
32-4,198411498,98
32-5,198415404,57
32-6,198419310,-37
32-7,198423216,-31
32-8,198427122,39
32-9,198431028,26
32-10,198434934,-55
32-11,198438840,-60
32-12,198442746,14
32-13,198446652,36
32-14,198450558,-35
32-15,198454464,-89
32-16,198458370,-48
32-17,198462276,-12
32-18,198466182,-75
32-19,198470088,-124
32-20,198473994,-67
32-21,198477900,3
32-22,198481806,-29
32-23,198485712,-84
32-24,198489618,-40
32-25,198493524,28
32-26,198497430,22
32-27,198501336,-36
32-28,198505242,-36
32-29,198509148,60
32-30,198513054,65
32-31,198516960,-50
32-32,198520866,-86
32-1,198524808,-31
32-2,198528714,-1
32-3,198532620,-38
32-4,198536526,-81
32-5,198540432,-35
32-6,198544338,46
32-7,198548244,14
32-8,198552150,-80
32-9,198556056,-48
32-10,198559962,44
32-11,198563868,28
32-12,198567774,-39
32-13,198571680,-59
32-14,198575586,-13
32-15,198579492,24
32-16,198583398,-31
32-17,198587304,-103
32-18,198591210,-72
32-19,198595116,6
32-20,198599022,-15
32-21,198602928,-85
32-22,198606834,-68
32-23,198610740,-21
32-24,198614646,-74
32-25,198618552,-161
32-26,198622458,-140
32-27,198626364,-68
32-28,198630270,-53
32-29,198634176,-72
32-30,198638082,-72
32-31,198641988,-19
32-32,198645894,35
32-1,198649776,-12
32-2,198653682,-78
32-3,198657588,-44
32-4,198661494,11
32-5,198665400,-20
32-6,198669306,-77
32-7,198673212,-39
32-8,198677118,61
32-9,198681024,74
32-10,198684930,8
32-11,198688836,2
32-12,198692742,83
32-13,198696648,109
32-14,198700554,10
32-15,198704460,-73
32-16,198708366,-37
32-17,198712272,10
32-18,198716178,-36
32-19,198720084,-98
32-20,198723990,-63
32-21,198727896,8
32-22,198731802,-28
32-23,198735708,-114
32-24,198739614,-103
32-25,198743520,-26
32-26,198747426,-20
32-27,198751332,-98
32-28,198755238,-104
32-29,198759144,-29
32-30,198763050,-29
32-31,198766956,-99
32-32,198770862,-120
32-1,198774773,-74
32-2,198778679,-18
32-3,198782585,-41
32-4,198786491,-85
32-5,198790397,-34
32-6,198794303,19
32-7,198798209,-14
32-8,198802115,-57
32-9,198806021,-48
32-10,198809927,6
32-11,198813833,30
32-12,198817739,-51
32-13,198821645,-123
32-14,198825551,-74
32-15,198829457,-26
32-16,198833363,-79
32-17,198837269,-122
32-18,198841175,-65
32-19,198845081,-1
32-20,198848987,-28
32-21,198852893,-79
32-22,198856799,-44
32-23,198860705,27
32-24,198864611,-8
32-25,198868517,-109
32-26,198872423,-108
32-27,198876329,-48
32-28,198880235,-34
32-29,198884141,-49
32-30,198888047,-86
32-31,198891953,-73
32-32,198895859,-16
32-1,198899771,-59
32-2,198903677,-116
32-3,198907583,-41
32-4,198911489,15
32-5,198915395,-54
32-6,198919301,-113
32-7,198923207,-63
32-8,198927113,10
32-9,198931019,-5
32-10,198934925,-55
32-11,198938831,-11
32-12,198942737,75
32-13,198946643,73
32-14,198950549,-7
32-15,198954455,-61
32-16,198958361,-37
32-17,198962267,-17
32-18,198966173,-70
32-19,198970079,-108
32-20,198973985,-49
32-21,198977891,24
32-22,198981797,-20
32-23,198985703,-111
32-24,198989609,-74
32-25,198993515,38
32-26,198997421,61
32-27,199001327,-24
32-28,199005233,-40
32-29,199009139,86
32-30,199013045,90
32-31,199016951,-46
32-32,199020857,-61
32-1,199024768,22
32-2,199028674,58
32-3,199032580,13
32-4,199036486,-43
32-5,199040392,1
32-6,199044298,70
32-7,199048204,55
32-8,199052110,-16
32-9,199056016,-32
32-10,199059922,25
32-11,199063828,4
32-12,199067734,-90
32-13,199071640,-89
32-14,199075546,-19
32-15,199079452,-13
32-16,199083358,-69
32-17,199087264,-78
32-18,199091170,-18
32-19,199095076,13
32-20,199098982,-28
32-21,199102888,-77
32-22,199106794,-48
32-23,199110700,24
32-24,199114606,22
32-25,199118512,-12
32-26,199122418,12
32-27,199126324,40
32-28,199130230,19
32-29,199134136,-37
32-30,199138042,-68
32-31,199141948,-40
32-32,199145854,-40
32-1,199149858,-103
32-2,199153764,-123
32-3,199157670,-59
32-4,199161576,-7
32-5,199165482,-49
32-6,199169388,-118
32-7,199173294,-98
32-8,199177200,-24
32-9,199181106,-26
32-10,199185012,-82
32-11,199188918,-72
32-12,199192824,5
32-13,199196730,13
32-14,199200636,-69
32-15,199204542,-93
32-16,199208448,-21
32-17,199212354,16
32-18,199216260,-34
32-19,199220166,-82
32-20,199224072,-58
32-21,199227978,-7
32-22,199231884,-28
32-23,199235790,-103
32-24,199239696,-111
32-25,199243602,-48
32-26,199247508,-51
32-27,199251414,-131
32-28,199255320,-110
32-29,199259226,11
32-30,199263132,12
32-31,199267038,-99
32-32,199270944,-131
32-1,199274764,-66
32-2,199278670,-11
32-3,199282576,-47
32-4,199286482,-103
32-5,199290388,-53
32-6,199294294,26
32-7,199298200,2
32-8,199302106,-69
32-9,199306012,-74
32-10,199309918,-43
32-11,199313824,-62
32-12,199317730,-101
32-13,199321636,-92
32-14,199325542,-31
32-15,199329448,2
32-16,199333354,-55
32-17,199337260,-87
32-18,199341166,-15
32-19,199345072,32
32-20,199348978,-8
32-21,199352884,-49
32-22,199356790,-32
32-23,199360696,29
32-24,199364602,21
32-25,199368508,-70
32-26,199372414,-80
32-27,199376320,-9
32-28,199380226,24
32-29,199384132,10
32-30,199388038,-20
32-31,199391944,11
32-32,199395850,60
32-1,199399761,-7
32-2,199403667,-84
32-3,199407573,-47
32-4,199411479,0
32-5,199415385,-36
32-6,199419291,-90
32-7,199423197,-54
32-8,199427103,12
32-9,199431009,-13
32-10,199434915,-82
32-11,199438821,-81
32-12,199442727,-26
32-13,199446633,-11
32-14,199450539,-59
32-15,199454445,-96
32-16,199458351,-59
32-17,199462257,-16
32-18,199466163,-64
32-19,199470069,-121
32-20,199473975,-79
32-21,199477881,-11
32-22,199481787,-29
32-23,199485693,-75
32-24,199489599,-30
32-25,199493505,57
32-26,199497411,42
32-27,199501317,-70
32-28,199505223,-94
32-29,199509129,-3
32-30,199513035,-29
32-31,199516941,-143
32-32,199520847,-130
32-1,199524759,-24
32-2,199528665,32
32-3,199532571,-2
32-4,199536477,-42
32-5,199540383,-7
32-6,199544289,42
32-7,199548195,41
32-8,199552101,15
32-9,199556007,31
32-10,199559913,86
32-11,199563819,63
32-12,199567725,-41
32-13,199571631,-56
32-14,199575537,43
32-15,199579443,89
32-16,199583349,25
32-17,199587255,-9
32-18,199591161,52
32-19,199595067,84
32-20,199598973,7
32-21,199602879,-61
32-22,199606785,-34
32-23,199610691,3
32-24,199614597,-23
32-25,199618503,-70
32-26,199622409,-59
32-27,199626315,-17
32-28,199630221,2
32-29,199634127,-22
32-30,199638033,-62
32-31,199641939,-27
32-32,199645845,4
32-1,199649757,-66
32-2,199653663,-89
32-3,199657569,-3
32-4,199661475,45
32-5,199665381,-12
32-6,199669287,-75
32-7,199673193,-72
32-8,199677099,-45
32-9,199681005,-60
32-10,199684911,-105
32-11,199688817,-79
32-12,199692723,4
32-13,199696629,11
32-14,199700535,-55
32-15,199704441,-79
32-16,199708347,-28
32-17,199712253,4
32-18,199716159,-39
32-19,199720065,-87
32-20,199723971,-59
32-21,199727877,-4
32-22,199731783,-54
32-23,199735689,-151
32-24,199739595,-136
32-25,199743501,-66
32-26,199747407,-61
32-27,199751313,-135
32-28,199755219,-128
32-29,199759125,13
32-30,199763031,26
32-31,199766937,-95
32-32,199770843,-117
32-1,199774876,-66
32-2,199778782,-40
32-3,199782688,-74
32-4,199786594,-114
32-5,199790500,-59
32-6,199794406,-13
32-7,199798312,-80
32-8,199802218,-147
32-9,199806124,-108
32-10,199810030,-19
32-11,199813936,-19
32-12,199817842,-80
32-13,199821748,-66
32-14,199825654,-3
32-15,199829560,-2
32-16,199833466,-69
32-17,199837372,-101
32-18,199841278,-19
32-19,199845184,67
32-20,199849090,29
32-21,199852996,-45
32-22,199856902,-9
32-23,199860808,64
32-24,199864714,3
32-25,199868620,-95
32-26,199872526,-54
32-27,199876432,14
32-28,199880338,2
32-29,199884244,-37
32-30,199888150,-70
32-31,199892056,-46
32-32,199895962,-11
32-1,199899752,-48
32-2,199903658,-57
32-3,199907564,22
32-4,199911470,74
32-5,199915376,25
32-6,199919282,-25
32-7,199923188,11
32-8,199927094,52
32-9,199931000,9
32-10,199934906,-58
32-11,199938812,-49
32-12,199942718,26
32-13,199946624,41
32-14,199950530,-42
32-15,199954436,-91
32-16,199958342,-49
32-17,199962248,-13
32-18,199966154,-61
32-19,199970060,-138
32-20,199973966,-111
32-21,199977872,-13
32-22,199981778,-16
32-23,199985684,-81
32-24,199989590,-53
32-25,199993496,40
32-26,199997402,45
32-27,200001308,-58
32-28,200005214,-63
32-29,200009120,46
32-30,200013026,27
32-31,200016932,-88
32-32,200020838,-118
32-1,200024750,-68
32-2,200028656,-32
32-3,200032562,-72
32-4,200036468,-94
32-5,200040374,-21
32-6,200044280,37
32-7,200048186,-11
32-8,200052092,-86
32-9,200055998,-59
32-10,200059904,27
32-11,200063810,18
32-12,200067716,-65
32-13,200071622,-72
32-14,200075528,1
32-15,200079434,26
32-16,200083340,-27
32-17,200087246,-46
32-18,200091152,8
32-19,200095058,45
32-20,200098964,-16
32-21,200102870,-88
32-22,200106776,-61
32-23,200110682,9
32-24,200114588,-3
32-25,200118494,-51
32-26,200122400,-15
32-27,200126306,40
32-28,200130212,33
32-29,200134118,-10
32-30,200138024,-66
32-31,200141930,-56
32-32,200145836,-21
32-1,200149747,-88
32-2,200153653,-127
32-3,200157559,-51
32-4,200161465,-7
32-5,200165371,-56
32-6,200169277,-105
32-7,200173183,-80
32-8,200177089,-36
32-9,200180995,-73
32-10,200184901,-135
32-11,200188807,-114
32-12,200192713,-45
32-13,200196619,-40
32-14,200200525,-99
32-15,200204431,-123
32-16,200208337,-65
32-17,200212243,-34
32-18,200216149,-85
32-19,200220055,-101
32-20,200223961,-36
32-21,200227867,17
32-22,200231773,-22
32-23,200235679,-89
32-24,200239585,-60
32-25,200243491,4
32-26,200247397,-21
32-27,200251303,-96
32-28,200255209,-85
32-29,200259115,-2
32-30,200263021,-29
32-31,200266927,-143
32-32,200270833,-163
32-1,200274745,-91
32-2,200278651,-67
32-3,200282557,-135
32-4,200286463,-171
32-5,200290369,-109
32-6,200294275,-63
32-7,200298181,-101
32-8,200302087,-147
32-9,200305993,-121
32-10,200309899,-59
32-11,200313805,-61
32-12,200317711,-113
32-13,200321617,-105
32-14,200325523,-26
32-15,200329429,1
32-16,200333335,-50
32-17,200337241,-71
32-18,200341147,-16
32-19,200345053,28
32-20,200348959,-11
32-21,200352865,-43
32-22,200356771,10
32-23,200360677,66
32-24,200364583,35
32-25,200368489,-14
32-26,200372395,18
32-27,200376301,62
32-28,200380207,61
32-29,200384113,47
32-30,200388019,25
32-31,200391925,39
32-32,200395831,49
32-1,200399865,-22
32-2,200403771,-72
32-3,200407677,-15
32-4,200411583,53
32-5,200415489,23
32-6,200419395,-34
32-7,200423301,-3
32-8,200427207,53
32-9,200431113,30
32-10,200435019,-29
32-11,200438925,-13
32-12,200442831,54
32-13,200446737,49
32-14,200450643,-20
32-15,200454549,-36
32-16,200458455,17
32-17,200462361,30
32-18,200466267,-39
32-19,200470173,-77
32-20,200474079,-16
32-21,200477985,40
32-22,200481891,-18
32-23,200485797,-94
32-24,200489703,-61
32-25,200493609,-7
32-26,200497515,-37
32-27,200501421,-100
32-28,200505327,-67
32-29,200509233,52
32-30,200513139,44
32-31,200517045,-83
32-32,200520951,-110
32-1,200524740,-41
32-2,200528646,-19
32-3,200532552,-78
32-4,200536458,-123
32-5,200540364,-70
32-6,200544270,1
32-7,200548176,-14
32-8,200552082,-75
32-9,200555988,-53
32-10,200559894,37
32-11,200563800,59
32-12,200567706,0
32-13,200571612,-28
32-14,200575518,22
32-15,200579424,42
32-16,200583330,-26
32-17,200587236,-41
32-18,200591142,30
32-19,200595048,34
32-20,200598954,-25
32-21,200602860,-55
32-22,200606766,-42
32-23,200610672,-7
32-24,200614578,-43
32-25,200618484,-108
32-26,200622390,-47
32-27,200626296,46
32-28,200630202,60
32-29,200634108,35
32-30,200638014,-3
32-31,200641920,17
32-32,200645826,51
32-1,200649738,-14
32-2,200653644,-68
32-3,200657550,-5
32-4,200661456,65
32-5,200665362,32
32-6,200669268,-20
32-7,200673174,35
32-8,200677080,83
32-9,200680986,7
32-10,200684892,-56
32-11,200688798,-20
32-12,200692704,39
32-13,200696610,38
32-14,200700516,-29
32-15,200704422,-54
32-16,200708328,23
32-17,200712234,63
32-18,200716140,1
32-19,200720046,-18
32-20,200723952,55
32-21,200727858,81
32-22,200731764,8
32-23,200735670,-52
32-24,200739576,-28
32-25,200743482,19
32-26,200747388,-4
32-27,200751294,-77
32-28,200755200,-37
32-29,200759106,100
32-30,200763012,83
32-31,200766918,-55
32-32,200770824,-69
32-1,200774735,21
32-2,200778641,42
32-3,200782547,-37
32-4,200786453,-75
32-5,200790359,5
32-6,200794265,66
32-7,200798171,11
32-8,200802077,-68
32-9,200805983,-62
32-10,200809889,18
32-11,200813795,45
32-12,200817701,-32
32-13,200821607,-66
32-14,200825513,14
32-15,200829419,47
32-16,200833325,-20
32-17,200837231,-49
32-18,200841137,15
32-19,200845043,41
32-20,200848949,-50
32-21,200852855,-109
32-22,200856761,-35
32-23,200860667,48
32-24,200864573,21
32-25,200868479,-43
32-26,200872385,-4
32-27,200876291,75
32-28,200880197,74
32-29,200884103,45
32-30,200888009,30
32-31,200891915,51
32-32,200895821,84
32-1,200899733,19
32-2,200903639,-56
32-3,200907545,-6
32-4,200911451,39
32-5,200915357,-31
32-6,200919263,-100
32-7,200923169,-59
32-8,200927075,19
32-9,200930981,2
32-10,200934887,-68
32-11,200938793,-37
32-12,200942699,79
32-13,200946605,91
32-14,200950511,1
32-15,200954417,-9
32-16,200958323,62
32-17,200962229,77
32-18,200966135,-4
32-19,200970041,-66
32-20,200973947,-22
32-21,200977853,30
32-22,200981759,-12
32-23,200985665,-61
32-24,200989571,-19
32-25,200993477,62
32-26,200997383,70
32-27,201001289,-6
32-28,201005195,-1
32-29,201009101,104
32-30,201013007,79
32-31,201016913,-52
32-32,201020819,-73
32-1,201024700,16
32-2,201028606,65
32-3,201032512,8
32-4,201036418,-38
32-5,201040324,14
32-6,201044230,58
32-7,201048136,21
32-8,201052042,-28
32-9,201055948,-20
32-10,201059854,23
32-11,201063760,1
32-12,201067666,-84
32-13,201071572,-90
32-14,201075478,-16
32-15,201079384,-18
32-16,201083290,-96
32-17,201087196,-94
32-18,201091102,-8
32-19,201095008,26
32-20,201098914,-28
32-21,201102820,-81
32-22,201106726,-52
32-23,201110632,21
32-24,201114538,16
32-25,201118444,-42
32-26,201122350,-16
32-27,201126256,51
32-28,201130162,71
32-29,201134068,67
32-30,201137974,49
32-31,201141880,59
32-32,201145786,82
32-1,201149728,32
32-2,201153634,-10
32-3,201157540,42
32-4,201161446,63
32-5,201165352,-18
32-6,201169258,-80
32-7,201173164,-31
32-8,201177070,38
32-9,201180976,7
32-10,201184882,-51
32-11,201188788,-17
32-12,201192694,42
32-13,201196600,15
32-14,201200506,-59
32-15,201204412,-62
32-16,201208318,17
32-17,201212224,47
32-18,201216130,-32
32-19,201220036,-90
32-20,201223942,-36
32-21,201227848,28
32-22,201231754,-2
32-23,201235660,-40
32-24,201239566,9
32-25,201243472,66
32-26,201247378,44
32-27,201251284,-33
32-28,201255190,-18
32-29,201259096,113
32-30,201263002,102
32-31,201266908,-43
32-32,201270814,-57
32-1,201274726,12
32-2,201278632,25
32-3,201282538,-22
32-4,201286444,-78
32-5,201290350,-43
32-6,201294256,9
32-7,201298162,-57
32-8,201302068,-127
32-9,201305974,-67
32-10,201309880,9
32-11,201313786,-44
32-12,201317692,-136
32-13,201321598,-119
32-14,201325504,-42
32-15,201329410,-37
32-16,201333316,-84
32-17,201337222,-82
32-18,201341128,-23
32-19,201345034,5
32-20,201348940,-56
32-21,201352846,-107
32-22,201356752,-61
32-23,201360658,-7
32-24,201364564,-57
32-25,201368470,-128
32-26,201372376,-90
32-27,201376282,-21
32-28,201380188,-27
32-29,201384094,-62
32-30,201388000,-78
32-31,201391906,-46
32-32,201395812,-26
32-1,201399724,-100
32-2,201403630,-151
32-3,201407536,-81
32-4,201411442,-20
32-5,201415348,-69
32-6,201419254,-122
32-7,201423160,-75
32-8,201427066,-3
32-9,201430972,-15
32-10,201434878,-69
32-11,201438784,-46
32-12,201442690,32
32-13,201446596,11
32-14,201450502,-81
32-15,201454408,-86
32-16,201458314,-22
32-17,201462220,-15
32-18,201466126,-77
32-19,201470032,-94
32-20,201473938,-17
32-21,201477844,28
32-22,201481750,-54
32-23,201485656,-124
32-24,201489562,-66
32-25,201493468,10
32-26,201497374,10
32-27,201501280,-44
32-28,201505186,-31
32-29,201509092,54
32-30,201512998,6
32-31,201516904,-114
32-32,201520810,-105
32-1,201524721,-37
32-2,201528627,-22
32-3,201532533,-59
32-4,201536439,-86
32-5,201540345,-22
32-6,201544251,51
32-7,201548157,24
32-8,201552063,-26
32-9,201555969,-11
32-10,201559875,12
32-11,201563781,-35
32-12,201567687,-93
32-13,201571593,-79
32-14,201575499,-2
32-15,201579405,30
32-16,201583311,-44
32-17,201587217,-90
32-18,201591123,-13
32-19,201595029,34
32-20,201598935,-26
32-21,201602841,-75
32-22,201606747,-41
32-23,201610653,15
32-24,201614559,-10
32-25,201618465,-68
32-26,201622371,-33
32-27,201626277,34
32-28,201630183,38
32-29,201634089,7
32-30,201637995,-34
32-31,201641901,-60
32-32,201645807,-75
32-1,201649719,-90
32-2,201653625,-50
32-3,201657531,30
32-4,201661437,64
32-5,201665343,9
32-6,201669249,-60
32-7,201673155,-41
32-8,201677061,20
32-9,201680967,-1
32-10,201684873,-63
32-11,201688779,-51
32-12,201692685,1
32-13,201696591,-23
32-14,201700497,-84
32-15,201704403,-75
32-16,201708309,-7
32-17,201712215,10
32-18,201716121,-59
32-19,201720027,-92
32-20,201723933,-18
32-21,201727839,36
32-22,201731745,-16
32-23,201735651,-72
32-24,201739557,-37
32-25,201743463,33
32-26,201747369,39
32-27,201751275,-30
32-28,201755181,-30
32-29,201759087,61
32-30,201762993,42
32-31,201766899,-59
32-32,201770805,-43
32-1,201774716,29
32-2,201778622,23
32-3,201782528,-42
32-4,201786434,-51
32-5,201790340,26
32-6,201794246,54
32-7,201798152,-31
32-8,201802058,-117
32-9,201805964,-91
32-10,201809870,-15
32-11,201813776,-26
32-12,201817682,-99
32-13,201821588,-112
32-14,201825494,-52
32-15,201829400,-35
32-16,201833306,-116
32-17,201837212,-153
32-18,201841118,-80
32-19,201845024,-46
32-20,201848930,-113
32-21,201852836,-164
32-22,201856742,-114
32-23,201860648,-44
32-24,201864554,-76
32-25,201868460,-146
32-26,201872366,-114
32-27,201876272,-42
32-28,201880178,-32
32-29,201884084,-46
32-30,201887990,-60
32-31,201891896,-54
32-32,201895802,-30
32-1,201899714,-54
32-2,201903620,-76
32-3,201907526,-35
32-4,201911432,-32
32-5,201915338,-103
32-6,201919244,-144
32-7,201923150,-96
32-8,201927056,-34
32-9,201930962,-82
32-10,201934868,-173
32-11,201938774,-122
32-12,201942680,-11
32-13,201946586,-29
32-14,201950492,-118
32-15,201954398,-123
32-16,201958304,-50
32-17,201962210,-26
32-18,201966116,-75
32-19,201970022,-97
32-20,201973928,-67
32-21,201977834,-43
32-22,201981740,-84
32-23,201985646,-134
32-24,201989552,-86
32-25,201993458,-9
32-26,201997364,-43
32-27,202001270,-147
32-28,202005176,-122
32-29,202009082,28
32-30,202012988,29
32-31,202016894,-86
32-32,202020800,-66
32-1,202024712,35
32-2,202028618,48
32-3,202032524,-19
32-4,202036430,-56
32-5,202040336,-1
32-6,202044242,52
32-7,202048148,11
32-8,202052054,-46
32-9,202055960,-6
32-10,202059866,53
32-11,202063772,9
32-12,202067678,-70
32-13,202071584,-60
32-14,202075490,14
32-15,202079396,33
32-16,202083302,-31
32-17,202087208,-73
32-18,202091114,-32
32-19,202095020,17
32-20,202098926,-3
32-21,202102832,-30
32-22,202106738,1
32-23,202110644,23
32-24,202114550,-31
32-25,202118456,-81
32-26,202122362,-37
32-27,202126268,29
32-28,202130174,39
32-29,202134080,-4
32-30,202137986,-55
32-31,202141892,-44
32-32,202145798,-35
32-1,202149709,-84
32-2,202153615,-87
32-3,202157521,-19
32-4,202161427,14
32-5,202165333,-40
32-6,202169239,-76
32-7,202173145,-8
32-8,202177051,37
32-9,202180957,-35
32-10,202184863,-103
32-11,202188769,-63
32-12,202192675,4
32-13,202196581,-22
32-14,202200487,-83
32-15,202204393,-82
32-16,202208299,-35
32-17,202212205,-13
32-18,202216111,-74
32-19,202220017,-135
32-20,202223923,-86
32-21,202227829,-26
32-22,202231735,-79
32-23,202235641,-139
32-24,202239547,-92
32-25,202243453,-36
32-26,202247359,-67
32-27,202251265,-122
32-28,202255171,-84
32-29,202259077,21
32-30,202262983,11
32-31,202266889,-86
32-32,202270795,-101
32-1,202274707,-59
32-2,202278613,-47
32-3,202282519,-99
32-4,202286425,-148
32-5,202290331,-92
32-6,202294237,-33
32-7,202298143,-85
32-8,202302049,-146
32-9,202305955,-122
32-10,202309861,-73
32-11,202313767,-90
32-12,202317673,-131
32-13,202321579,-104
32-14,202325485,-45
32-15,202329391,-43
32-16,202333297,-96
32-17,202337203,-98
32-18,202341109,-6
32-19,202345015,47
32-20,202348921,-12
32-21,202352827,-59
32-22,202356733,-17
32-23,202360639,6
32-24,202364545,-52
32-25,202368451,-96
32-26,202372357,-62
32-27,202376263,-21
32-28,202380169,-21
32-29,202384075,-39
32-30,202387981,-42
32-31,202391887,-14
32-32,202395793,-18
32-1,202399705,-75
32-2,202403611,-83
32-3,202407517,-18
32-4,202411423,2
32-5,202415329,-57
32-6,202419235,-97
32-7,202423141,-58
32-8,202427047,-28
32-9,202430953,-68
32-10,202434859,-113
32-11,202438765,-89
32-12,202442671,-31
32-13,202446577,-34
32-14,202450483,-102
32-15,202454389,-114
32-16,202458295,-39
32-17,202462201,-16
32-18,202466107,-66
32-19,202470013,-54
32-20,202473919,10
32-21,202477825,18
32-22,202481731,-42
32-23,202485637,-74
32-24,202489543,-27
32-25,202493449,30
32-26,202497355,18
32-27,202501261,-44
32-28,202505167,-36
32-29,202509073,59
32-30,202512979,44
32-31,202516885,-72
32-32,202520791,-74
32-1,202524733,7
32-2,202528639,19
32-3,202532545,-38
32-4,202536451,-78
32-5,202540357,-45
32-6,202544263,-7
32-7,202548169,-45
32-8,202552075,-90
32-9,202555981,-55
32-10,202559887,2
32-11,202563793,-30
32-12,202567699,-114
32-13,202571605,-106
32-14,202575511,-9
32-15,202579417,15
32-16,202583323,-58
32-17,202587229,-82
32-18,202591135,-24
32-19,202595041,3
32-20,202598947,-56
32-21,202602853,-100
32-22,202606759,-54
32-23,202610665,9
32-24,202614571,-9
32-25,202618477,-66
32-26,202622383,-58
32-27,202626289,-4
32-28,202630195,10
32-29,202634101,-19
32-30,202638007,-43
32-31,202641913,-6
32-32,202645819,10
32-1,202649700,-60
32-2,202653606,-81
32-3,202657512,-24
32-4,202661418,-1
32-5,202665324,-37
32-6,202669230,-67
32-7,202673136,-13
32-8,202677042,41
32-9,202680948,-18
32-10,202684854,-69
32-11,202688760,-17
32-12,202692666,30
32-13,202696572,-12
32-14,202700478,-91
32-15,202704384,-103
32-16,202708290,-33
32-17,202712196,-3
32-18,202716102,-68
32-19,202720008,-110
32-20,202723914,-56
32-21,202727820,-5
32-22,202731726,-56
32-23,202735632,-105
32-24,202739538,-49
32-25,202743444,1
32-26,202747350,-30
32-27,202751256,-82
32-28,202755162,-38
32-29,202759068,75
32-30,202762974,24
32-31,202766880,-112
32-32,202770786,-105
32-1,202774697,-54
32-2,202778603,-63
32-3,202782509,-111
32-4,202786415,-134
32-5,202790321,-57
32-6,202794227,2
32-7,202798133,-58
32-8,202802039,-109
32-9,202805945,-66
32-10,202809851,-15
32-11,202813757,-49
32-12,202817663,-105
32-13,202821569,-61
32-14,202825475,25
32-15,202829381,21
32-16,202833287,-45
32-17,202837193,-54
32-18,202841099,1
32-19,202845005,6
32-20,202848911,-51
32-21,202852817,-69
32-22,202856723,-35
32-23,202860629,-4
32-24,202864535,-43
32-25,202868441,-100
32-26,202872347,-66
32-27,202876253,-18
32-28,202880159,-26
32-29,202884065,-13
32-30,202887971,23
32-31,202891877,69
32-32,202895783,70
32-1,202899695,-18
32-2,202903601,-55
32-3,202907507,20
32-4,202911413,63
32-5,202915319,18
32-6,202919225,-22
32-7,202923131,21
32-8,202927037,64
32-9,202930943,14
32-10,202934849,-41
32-11,202938755,-9
32-12,202942661,43
32-13,202946567,16
32-14,202950473,-51
32-15,202954379,-49
32-16,202958285,20
32-17,202962191,50
32-18,202966097,8
32-19,202970003,-13
32-20,202973909,36
32-21,202977815,60
32-22,202981721,9
32-23,202985627,-20
32-24,202989533,18
32-25,202993439,64
32-26,202997345,41
32-27,203001251,-41
32-28,203005157,-38
32-29,203009063,42
32-30,203012969,-7
32-31,203016875,-127
32-32,203020781,-128
32-1,203024693,-62
32-2,203028599,-57
32-3,203032505,-110
32-4,203036411,-115
32-5,203040317,-31
32-6,203044223,24
32-7,203048129,-23
32-8,203052035,-93
32-9,203055941,-62
32-10,203059847,22
32-11,203063753,-7
32-12,203067659,-112
32-13,203071565,-118
32-14,203075471,-48
32-15,203079377,-50
32-16,203083283,-115
32-17,203087189,-109
32-18,203091095,-20
32-19,203095001,12
32-20,203098907,-72
32-21,203102813,-138
32-22,203106719,-105
32-23,203110625,-77
32-24,203114531,-144
32-25,203118437,-206
32-26,203122343,-150
32-27,203126249,-81
32-28,203130155,-91
32-29,203134061,-114
32-30,203137967,-117
32-31,203141873,-76
32-32,203145779,-45
32-1,203149690,-107
32-2,203153596,-148
32-3,203157502,-87
32-4,203161408,-63
32-5,203165314,-135
32-6,203169220,-167
32-7,203173126,-93
32-8,203177032,-43
32-9,203180938,-89
32-10,203184844,-121
32-11,203188750,-58
32-12,203192656,7
32-13,203196562,-18
32-14,203200468,-61
32-15,203204374,-40
32-16,203208280,2
32-17,203212186,-18
32-18,203216092,-84
32-19,203219998,-110
32-20,203223904,-69
32-21,203227810,-36
32-22,203231716,-78
32-23,203235622,-110
32-24,203239528,-61
32-25,203243434,-11
32-26,203247340,-49
32-27,203251246,-123
32-28,203255152,-97
32-29,203259058,-15
32-30,203262964,-60
32-31,203266870,-147
32-32,203270776,-117
32-1,203274719,-45
32-2,203278625,-38
32-3,203282531,-96
32-4,203286437,-141
32-5,203290343,-96
32-6,203294249,-48
32-7,203298155,-101
32-8,203302061,-155
32-9,203305967,-119
32-10,203309873,-82
32-11,203313779,-115
32-12,203317685,-164
32-13,203321591,-135
32-14,203325497,-56
32-15,203329403,-40
32-16,203333309,-85
32-17,203337215,-89
32-18,203341121,-30
32-19,203345027,-11
32-20,203348933,-83
32-21,203352839,-123
32-22,203356745,-78
32-23,203360651,-37
32-24,203364557,-56
32-25,203368463,-107
32-26,203372369,-98
32-27,203376275,-43
32-28,203380181,-20
32-29,203384087,-11
32-30,203387993,-4
32-31,203391899,24
32-32,203395805,40
32-1,203399686,-18
32-2,203403592,-44
32-3,203407498,19
32-4,203411404,52
32-5,203415310,9
32-6,203419216,-39
32-7,203423122,-18
32-8,203427028,14
32-9,203430934,-28
32-10,203434840,-89
32-11,203438746,-66
32-12,203442652,-4
32-13,203446558,-25
32-14,203450464,-87
32-15,203454370,-72
32-16,203458276,-13
32-17,203462182,-18
32-18,203466088,-81
32-19,203469994,-98
32-20,203473900,-43
32-21,203477806,-17
32-22,203481712,-60
32-23,203485618,-62
32-24,203489524,16
32-25,203493430,65
32-26,203497336,26
32-27,203501242,-43
32-28,203505148,-13
32-29,203509054,106
32-30,203512960,84
32-31,203516866,-30
32-32,203520772,-7
32-1,203524683,68
32-2,203528589,63
32-3,203532495,23
32-4,203536401,16
32-5,203540307,75
32-6,203544213,117
32-7,203548119,74
32-8,203552025,9
32-9,203555931,26
32-10,203559837,83
32-11,203563743,49
32-12,203567649,-16
32-13,203571555,16
32-14,203575461,71
32-15,203579367,56
32-16,203583273,18
32-17,203587179,25
32-18,203591085,71
32-19,203594991,75
32-20,203598897,9
32-21,203602803,-19
32-22,203606709,15
32-23,203610615,23
32-24,203614521,-8
32-25,203618427,-34
32-26,203622333,-4
32-27,203626239,47
32-28,203630145,46
32-29,203634051,6
32-30,203637957,-37
32-31,203641863,-38
32-32,203645769,-21
32-1,203649681,-51
32-2,203653587,-68
32-3,203657493,-13
32-4,203661399,10
32-5,203665305,-42
32-6,203669211,-77
32-7,203673117,-50
32-8,203677023,-18
32-9,203680929,-52
32-10,203684835,-105
32-11,203688741,-74
32-12,203692647,-2
32-13,203696553,-12
32-14,203700459,-76
32-15,203704365,-82
32-16,203708271,-39
32-17,203712177,-40
32-18,203716083,-79
32-19,203719989,-94
32-20,203723895,-69
32-21,203727801,-41
32-22,203731707,-65
32-23,203735613,-102
32-24,203739519,-52
32-25,203743425,32
32-26,203747331,27
32-27,203751237,-42
32-28,203755143,-21
32-29,203759049,66
32-30,203762955,26
32-31,203766861,-82
32-32,203770767,-94
32-1,203774679,-46
32-2,203778585,-23
32-3,203782491,-58
32-4,203786397,-72
32-5,203790303,-10
32-6,203794209,27
32-7,203798115,-23
32-8,203802021,-74
32-9,203805927,-24
32-10,203809833,61
32-11,203813739,46
32-12,203817645,-29
32-13,203821551,-29
32-14,203825457,36
32-15,203829363,47
32-16,203833269,-1
32-17,203837175,-4
32-18,203841081,31
32-19,203844987,21
32-20,203848893,-23
32-21,203852799,-29
32-22,203856705,15
32-23,203860611,55
32-24,203864517,32
32-25,203868423,-19
32-26,203872329,6
32-27,203876235,46
32-28,203880141,17
32-29,203884047,-5
32-30,203887953,-5
32-31,203891859,13
32-32,203895765,24
32-1,203899676,-40
32-2,203903582,-77
32-3,203907488,-23
32-4,203911394,0
32-5,203915300,-32
32-6,203919206,-31
32-7,203923112,27
32-8,203927018,65
32-9,203930924,25
32-10,203934830,-18
32-11,203938736,4
32-12,203942642,54
32-13,203946548,56
32-14,203950454,12
32-15,203954360,11
32-16,203958266,67
32-17,203962172,48
32-18,203966078,-55
32-19,203969984,-99
32-20,203973890,-43
32-21,203977796,13
32-22,203981702,-19
32-23,203985608,-52
32-24,203989514,-15
32-25,203993420,8
32-26,203997326,-32
32-27,204001232,-91
32-28,204005138,-53
32-29,204009044,63
32-30,204012950,35
32-31,204016856,-75
32-32,204020762,-59
32-1,204024796,10
32-2,204028702,4
32-3,204032608,-54
32-4,204036514,-69
32-5,204040420,-2
32-6,204044326,61
32-7,204048232,26
32-8,204052138,-41
32-9,204056044,-16
32-10,204059950,27
32-11,204063856,-30
32-12,204067762,-92
32-13,204071668,-73
32-14,204075574,-37
32-15,204079480,-55
32-16,204083386,-120
32-17,204087292,-137
32-18,204091198,-74
32-19,204095104,-47
32-20,204099010,-84
32-21,204102916,-88
32-22,204106822,-51
32-23,204110728,-2
32-24,204114634,5
32-25,204118540,-61
32-26,204122446,-64
32-27,204126352,2
32-28,204130258,0
32-29,204134164,-25
32-30,204138070,-26
32-31,204141976,-6
32-32,204145882,26
32-1,204149671,-14
32-2,204153577,-73
32-3,204157483,-20
32-4,204161389,29
32-5,204165295,-41
32-6,204169201,-92
32-7,204173107,-48
32-8,204177013,-22
32-9,204180919,-45
32-10,204184825,-56
32-11,204188731,-31
32-12,204192637,3
32-13,204196543,-14
32-14,204200449,-63
32-15,204204355,-61
32-16,204208261,-19
32-17,204212167,-29
32-18,204216073,-77
32-19,204219979,-85
32-20,204223885,-32
32-21,204227791,15
32-22,204231697,-32
32-23,204235603,-88
32-24,204239509,-53
32-25,204243415,-31
32-26,204247321,-78
32-27,204251227,-131
32-28,204255133,-108
32-29,204259039,-15
32-30,204262945,-32
32-31,204266851,-143
32-32,204270757,-148
32-1,204274669,-85
32-2,204278575,-95
32-3,204282481,-157
32-4,204286387,-160
32-5,204290293,-88
32-6,204294199,-46
32-7,204298105,-77
32-8,204302011,-120
32-9,204305917,-106
32-10,204309823,-71
32-11,204313729,-103
32-12,204317635,-150
32-13,204321541,-115
32-14,204325447,-50
32-15,204329353,-51
32-16,204333259,-95
32-17,204337165,-119
32-18,204341071,-84
32-19,204344977,-35
32-20,204348883,-54
32-21,204352789,-78
32-22,204356695,-38
32-23,204360601,-21
32-24,204364507,-65
32-25,204368413,-89
32-26,204372319,-55
32-27,204376225,-28
32-28,204380131,-38
32-29,204384037,-43
32-30,204387943,-26
32-31,204391849,9
32-32,204395755,12
32-1,204399667,-43
32-2,204403573,-68
32-3,204407479,-29
32-4,204411385,-7
32-5,204415291,-50
32-6,204419197,-95
32-7,204423103,-62
32-8,204427009,-40
32-9,204430915,-106
32-10,204434821,-135
32-11,204438727,-70
32-12,204442633,-19
32-13,204446539,-46
32-14,204450445,-80
32-15,204454351,-45
32-16,204458257,12
32-17,204462163,8
32-18,204466069,-42
32-19,204469975,-65
32-20,204473881,-12
32-21,204477787,26
32-22,204481693,-42
32-23,204485599,-100
32-24,204489505,-61
32-25,204493411,-10
32-26,204497317,-17
32-27,204501223,-64
32-28,204505129,-60
32-29,204509035,17
32-30,204512941,3
32-31,204516847,-84
32-32,204520753,-57
32-1,204524664,24
32-2,204528570,27
32-3,204532476,-13
32-4,204536382,-16
32-5,204540288,20
32-6,204544194,36
32-7,204548100,2
32-8,204552006,-50
32-9,204555912,-32
32-10,204559818,17
32-11,204563724,-18
32-12,204567630,-83
32-13,204571536,-65
32-14,204575442,7
32-15,204579348,20
32-16,204583254,-28
32-17,204587160,-35
32-18,204591066,26
32-19,204594972,54
32-20,204598878,-11
32-21,204602784,-65
32-22,204606690,-36
32-23,204610596,-1
32-24,204614502,-27
32-25,204618408,-73
32-26,204622314,-41
32-27,204626220,13
32-28,204630126,-5
32-29,204634032,-45
32-30,204637938,-62
32-31,204641844,-31
32-32,204645750,19
32-1,204649692,5
32-2,204653598,-10
32-3,204657504,45
32-4,204661410,68
32-5,204665316,3
32-6,204669222,-35
32-7,204673128,19
32-8,204677034,51
32-9,204680940,-9
32-10,204684846,-76
32-11,204688752,-60
32-12,204692658,1
32-13,204696564,-17
32-14,204700470,-81
32-15,204704376,-61
32-16,204708282,13
32-17,204712188,16
32-18,204716094,-42
32-19,204720000,-58
32-20,204723906,-13
32-21,204727812,11
32-22,204731718,-31
32-23,204735624,-54
32-24,204739530,0
32-25,204743436,41
32-26,204747342,-8
32-27,204751248,-80
32-28,204755154,-48
32-29,204759060,50
32-30,204762966,13
32-31,204766872,-100
32-32,204770778,-83
32-1,204774690,-1
32-2,204778596,8
32-3,204782502,-74
32-4,204786408,-125
32-5,204790314,-70
32-6,204794220,-39
32-7,204798126,-92
32-8,204802032,-102
32-9,204805938,-29
32-10,204809844,28
32-11,204813750,-2
32-12,204817656,-62
32-13,204821562,-43
32-14,204825468,15
32-15,204829374,-6
32-16,204833280,-57
32-17,204837186,-52
32-18,204841092,-19
32-19,204844998,-24
32-20,204848904,-62
32-21,204852810,-66
32-22,204856716,-25
32-23,204860622,-3
32-24,204864528,-46
32-25,204868434,-96
32-26,204872340,-66
32-27,204876246,-23
32-28,204880152,-30
32-29,204884058,-52
32-30,204887964,-72
32-31,204891870,-56
32-32,204895776,-23
32-1,204899657,-32
32-2,204903563,-27
32-3,204907469,25
32-4,204911375,45
32-5,204915281,-11
32-6,204919187,-46
32-7,204923093,0
32-8,204926999,30
32-9,204930905,-4
32-10,204934811,-26
32-11,204938717,4
32-12,204942623,27
32-13,204946529,-12
32-14,204950435,-63
32-15,204954341,-51
32-16,204958247,2
32-17,204962153,2
32-18,204966059,-43
32-19,204969965,-40
32-20,204973871,-2
32-21,204977777,16
32-22,204981683,-16
32-23,204985589,-42
32-24,204989495,-4
32-25,204993401,11
32-26,204997307,-56
32-27,205001213,-137
32-28,205005119,-108
32-29,205009025,-5
32-30,205012931,-32
32-31,205016837,-125
32-32,205020743,-108
32-1,205024655,-52
32-2,205028561,-49
32-3,205032467,-100
32-4,205036373,-119
32-5,205040279,-66
32-6,205044185,-43
32-7,205048091,-93
32-8,205051997,-116
32-9,205055903,-65
32-10,205059809,-36
32-11,205063715,-82
32-12,205067621,-113
32-13,205071527,-75
32-14,205075433,-36
32-15,205079339,-51
32-16,205083245,-99
32-17,205087151,-105
32-18,205091057,-43
32-19,205094963,-20
32-20,205098869,-74
32-21,205102775,-86
32-22,205106681,-39
32-23,205110587,-15
32-24,205114493,-41
32-25,205118399,-72
32-26,205122305,-43
32-27,205126211,-10
32-28,205130117,-27
32-29,205134023,-33
32-30,205137929,-25
32-31,205141835,11
32-32,205145741,47
32-1,205149652,16
32-2,205153558,14
32-3,205157464,73
32-4,205161370,84
32-5,205165276,33
32-6,205169182,-8
32-7,205173088,21
32-8,205176994,52
32-9,205180900,-11
32-10,205184806,-80
32-11,205188712,-59
32-12,205192618,-18
32-13,205196524,-36
32-14,205200430,-65
32-15,205204336,-28
32-16,205208242,37
32-17,205212148,46
32-18,205216054,5
32-19,205219960,-20
32-20,205223866,16
32-21,205227772,40
32-22,205231678,-29
32-23,205235584,-58
32-24,205239490,11
32-25,205243396,33
32-26,205247302,-13
32-27,205251208,-66
32-28,205255114,-51
32-29,205259020,37
32-30,205262926,31
32-31,205266832,-59
32-32,205270738,-73
32-1,205274742,-37
32-2,205278648,-42
32-3,205282554,-103
32-4,205286460,-132
32-5,205290366,-69
32-6,205294272,-28
32-7,205298178,-70
32-8,205302084,-95
32-9,205305990,-53
32-10,205309896,-26
32-11,205313802,-55
32-12,205317708,-80
32-13,205321614,-55
32-14,205325520,-8
32-15,205329426,-24
32-16,205333332,-88
32-17,205337238,-68
32-18,205341144,5
32-19,205345050,0
32-20,205348956,-53
32-21,205352862,-62
32-22,205356768,-36
32-23,205360674,-23
32-24,205364580,-53
32-25,205368486,-46
32-26,205372392,24
32-27,205376298,22
32-28,205380204,-32
32-29,205384110,-41
32-30,205388016,-55
32-31,205391922,-53
32-32,205395828,-26
32-1,205399648,-59
32-2,205403554,-74
32-3,205407460,-4
32-4,205411366,4
32-5,205415272,-72
32-6,205419178,-96
32-7,205423084,-38
32-8,205426990,8
32-9,205430896,-39
32-10,205434802,-98
32-11,205438708,-48
32-12,205442614,27
32-13,205446520,2
32-14,205450426,-61
32-15,205454332,-45
32-16,205458238,18
32-17,205462144,-19
32-18,205466050,-110
32-19,205469956,-94
32-20,205473862,-20
32-21,205477768,-7
32-22,205481674,-72
32-23,205485580,-124
32-24,205489486,-79
32-25,205493392,-19
32-26,205497298,-44
32-27,205501204,-91
32-28,205505110,-39
32-29,205509016,50
32-30,205512922,15
32-31,205516828,-57
32-32,205520734,-22
32-1,205524615,35
32-2,205528521,10
32-3,205532427,-60
32-4,205536333,-71
32-5,205540239,-16
32-6,205544145,13
32-7,205548051,-19
32-8,205551957,-51
32-9,205555863,-22
32-10,205559769,28
32-11,205563675,17
32-12,205567581,-27
32-13,205571487,-18
32-14,205575393,37
32-15,205579299,40
32-16,205583205,-17
32-17,205587111,-14
32-18,205591017,53
32-19,205594923,60
32-20,205598829,0
32-21,205602735,-20
32-22,205606641,33
32-23,205610547,78
32-24,205614453,33
32-25,205618359,-24
32-26,205622265,22
32-27,205626171,78
32-28,205630077,62
32-29,205633983,23
32-30,205637889,2
32-31,205641795,48
32-32,205645701,99
32-1,205649643,52
32-2,205653549,21
32-3,205657455,83
32-4,205661361,101
32-5,205665267,25
32-6,205669173,-15
32-7,205673079,44
32-8,205676985,88
32-9,205680891,31
32-10,205684797,-16
32-11,205688703,26
32-12,205692609,65
32-13,205696515,28
32-14,205700421,-14
32-15,205704327,8
32-16,205708233,47
32-17,205712139,19
32-18,205716045,-42
32-19,205719951,-39
32-20,205723857,21
32-21,205727763,39
32-22,205731669,-6
32-23,205735575,-19
32-24,205739481,40
32-25,205743387,87
32-26,205747293,75
32-27,205751199,15
32-28,205755105,39
32-29,205759011,151
32-30,205762917,105
32-31,205766823,-30
32-32,205770729,-18
32-1,205774641,23
32-2,205778547,-23
32-3,205782453,-81
32-4,205786359,-80
32-5,205790265,-25
32-6,205794171,-10
32-7,205798077,-46
32-8,205801983,-52
32-9,205805889,7
32-10,205809795,61
32-11,205813701,37
32-12,205817607,-19
32-13,205821513,-2
32-14,205825419,46
32-15,205829325,30
32-16,205833231,-16
32-17,205837137,-6
32-18,205841043,37
32-19,205844949,13
32-20,205848855,-60
32-21,205852761,-63
32-22,205856667,1
32-23,205860573,25
32-24,205864479,-32
32-25,205868385,-86
32-26,205872291,-38
32-27,205876197,5
32-28,205880103,-20
32-29,205884009,-31
32-30,205887915,-33
32-31,205891821,-29
32-32,205895727,-20
32-1,205899760,-34
32-2,205903666,-4
32-3,205907572,44
32-4,205911478,23
32-5,205915384,-28
32-6,205919290,-42
32-7,205923196,-4
32-8,205927102,10
32-9,205931008,-49
32-10,205934914,-93
32-11,205938820,-63
32-12,205942726,-20
32-13,205946632,-43
32-14,205950538,-97
32-15,205954444,-70
32-16,205958350,6
32-17,205962256,-7
32-18,205966162,-76
32-19,205970068,-67
32-20,205973974,4
32-21,205977880,15
32-22,205981786,-52
32-23,205985692,-78
32-24,205989598,-27
32-25,205993504,-4
32-26,205997410,-46
32-27,206001316,-88
32-28,206005222,-44
32-29,206009128,27
32-30,206013034,-40
32-31,206016940,-138
32-32,206020846,-95
32-1,206024636,-27
32-2,206028542,-51
32-3,206032448,-107
32-4,206036354,-112
32-5,206040260,-74
32-6,206044166,-56
32-7,206048072,-76
32-8,206051978,-93
32-9,206055884,-56
32-10,206059790,-31
32-11,206063696,-72
32-12,206067602,-109
32-13,206071508,-88
32-14,206075414,-36
32-15,206079320,-44
32-16,206083226,-114
32-17,206087132,-102
32-18,206091038,-7
32-19,206094944,13
32-20,206098850,-39
32-21,206102756,-49
32-22,206106662,-10
32-23,206110568,7
32-24,206114474,-32
32-25,206118380,-75
32-26,206122286,-40
32-27,206126192,-14
32-28,206130098,-46
32-29,206134004,-30
32-30,206137910,-4
32-31,206141816,-11
32-32,206145722,-11
32-1,206149634,-44
32-2,206153540,-50
32-3,206157446,23
32-4,206161352,35
32-5,206165258,-31
32-6,206169164,-54
32-7,206173070,-15
32-8,206176976,29
32-9,206180882,6
32-10,206184788,-60
32-11,206188694,-47
32-12,206192600,-4
32-13,206196506,-41
32-14,206200412,-88
32-15,206204318,-48
32-16,206208224,24
32-17,206212130,14
32-18,206216036,-48
32-19,206219942,-71
32-20,206223848,-44
32-21,206227754,-19
32-22,206231660,-55
32-23,206235566,-93
32-24,206239472,-42
32-25,206243378,0
32-26,206247284,-39
32-27,206251190,-85
32-28,206255096,-47
32-29,206259002,17
32-30,206262908,-45
32-31,206266814,-144
32-32,206270720,-121
32-1,206274631,-59
32-2,206278537,-58
32-3,206282443,-95
32-4,206286349,-94
32-5,206290255,-28
32-6,206294161,-1
32-7,206298067,-65
32-8,206301973,-120
32-9,206305879,-80
32-10,206309785,-26
32-11,206313691,-38
32-12,206317597,-57
32-13,206321503,-19
32-14,206325409,34
32-15,206329315,23
32-16,206333221,-14
32-17,206337127,-1
32-18,206341033,28
32-19,206344939,14
32-20,206348845,-30
32-21,206352751,-23
32-22,206356657,37
32-23,206360563,40
32-24,206364469,-33
32-25,206368375,-80
32-26,206372281,-54
32-27,206376187,-32
32-28,206380093,-48
32-29,206383999,-57
32-30,206387905,-41
32-31,206391811,-7
32-32,206395717,-20
32-1,206399629,-79
32-2,206403535,-73
32-3,206407441,-17
32-4,206411347,-36
32-5,206415253,-114
32-6,206419159,-132
32-7,206423065,-65
32-8,206426971,-32
32-9,206430877,-64
32-10,206434783,-66
32-11,206438689,-8
32-12,206442595,22
32-13,206446501,-11
32-14,206450407,-33
32-15,206454313,-23
32-16,206458219,-11
32-17,206462125,-19
32-18,206466031,-51
32-19,206469937,-29
32-20,206473843,54
32-21,206477749,71
32-22,206481655,10
32-23,206485561,-34
32-24,206489467,-34
32-25,206493373,-6
32-26,206497279,-5
32-27,206501185,-63
32-28,206505091,-35
32-29,206508997,80
32-30,206512903,51
32-31,206516809,-26
32-32,206520715,30
32-1,206524748,68
32-2,206528654,4
32-3,206532560,-71
32-4,206536466,-87
32-5,206540372,-40
32-6,206544278,-20
32-7,206548184,-55
32-8,206552090,-57
32-9,206555996,2
32-10,206559902,33
32-11,206563808,-18
32-12,206567714,-65
32-13,206571620,-31
32-14,206575526,23
32-15,206579432,-5
32-16,206583338,-86
32-17,206587244,-91
32-18,206591150,-1
32-19,206595056,30
32-20,206598962,-32
32-21,206602868,-40
32-22,206606774,34
32-23,206610680,58
32-24,206614586,-11
32-25,206618492,-58
32-26,206622398,-15
32-27,206626304,11
32-28,206630210,-31
32-29,206634116,-58
32-30,206638022,-61
32-31,206641928,-54
32-32,206645834,-59
32-1,206649624,-99
32-2,206653530,-90
32-3,206657436,-26
32-4,206661342,-27
32-5,206665248,-97
32-6,206669154,-110
32-7,206673060,-44
32-8,206676966,-25
32-9,206680872,-80
32-10,206684778,-118
32-11,206688684,-79
32-12,206692590,-10
32-13,206696496,-28
32-14,206700402,-95
32-15,206704308,-89
32-16,206708214,-46
32-17,206712120,-67
32-18,206716026,-134
32-19,206719932,-138
32-20,206723838,-80
32-21,206727744,-81
32-22,206731650,-131
32-23,206735556,-125
32-24,206739462,-71
32-25,206743368,-40
32-26,206747274,-75
32-27,206751180,-135
32-28,206755086,-78
32-29,206758992,29
32-30,206762898,-33
32-31,206766804,-115
32-32,206770710,-53
32-1,206774622,17
32-2,206778528,-3
32-3,206782434,-60
32-4,206786340,-59
32-5,206790246,-4
32-6,206794152,-11
32-7,206798058,-74
32-8,206801964,-91
32-9,206805870,-53
32-10,206809776,-36
32-11,206813682,-94
32-12,206817588,-134
32-13,206821494,-66
32-14,206825400,-9
32-15,206829306,-59
32-16,206833212,-121
32-17,206837118,-101
32-18,206841024,-39
32-19,206844930,-29
32-20,206848836,-66
32-21,206852742,-62
32-22,206856648,-19
32-23,206860554,3
32-24,206864460,-37
32-25,206868366,-84
32-26,206872272,-28
32-27,206876178,30
32-28,206880084,-1
32-29,206883990,-17
32-30,206887896,-10
32-31,206891802,-25
32-32,206895708,-56
32-1,206899619,-89
32-2,206903525,-78
32-3,206907431,-24
32-4,206911337,-2
32-5,206915243,-46
32-6,206919149,-63
32-7,206923055,-1
32-8,206926961,31
32-9,206930867,-28
32-10,206934773,-67
32-11,206938679,-21
32-12,206942585,36
32-13,206946491,44
32-14,206950397,16
32-15,206954303,18
32-16,206958209,78
32-17,206962115,72
32-18,206966021,-32
32-19,206969927,-70
32-20,206973833,-22
32-21,206977739,-9
32-22,206981645,-36
32-23,206985551,-47
32-24,206989457,-17
32-25,206993363,16
32-26,206997269,-9
32-27,207001175,-50
32-28,207005081,5
32-29,207008987,92
32-30,207012893,46
32-31,207016799,-31
32-32,207020705,15
32-1,207024647,85
32-2,207028553,82
32-3,207032459,31
32-4,207036365,9
32-5,207040271,43
32-6,207044177,36
32-7,207048083,-29
32-8,207051989,-39
32-9,207055895,29
32-10,207059801,81
32-11,207063707,45
32-12,207067613,4
32-13,207071519,34
32-14,207075425,55
32-15,207079331,13
32-16,207083237,-46
32-17,207087143,-44
32-18,207091049,15
32-19,207094955,10
32-20,207098861,-55
32-21,207102767,-54
32-22,207106673,7
32-23,207110579,38
32-24,207114485,4
32-25,207118391,-16
32-26,207122297,29
32-27,207126203,21
32-28,207130109,-51
32-29,207134015,-85
32-30,207137921,-91
32-31,207141827,-66
32-32,207145733,-35
32-1,207149615,-45
32-2,207153521,-27
32-3,207157427,40
32-4,207161333,53
32-5,207165239,-20
32-6,207169145,-51
32-7,207173051,-1
32-8,207176957,-9
32-9,207180863,-81
32-10,207184769,-103
32-11,207188675,-54
32-12,207192581,4
32-13,207196487,-8
32-14,207200393,-67
32-15,207204299,-70
32-16,207208205,-15
32-17,207212111,-21
32-18,207216017,-96
32-19,207219923,-98
32-20,207223829,-21
32-21,207227735,2
32-22,207231641,-56
32-23,207235547,-85
32-24,207239453,-43
32-25,207243359,-26
32-26,207247265,-60
32-27,207251171,-83
32-28,207255077,-12
32-29,207258983,111
32-30,207262889,56
32-31,207266795,-102
32-32,207270701,-88
32-1,207274612,0
32-2,207278518,-17
32-3,207282424,-88
32-4,207286330,-98
32-5,207290236,-19
32-6,207294142,12
32-7,207298048,-65
32-8,207301954,-89
32-9,207305860,1
32-10,207309766,44
32-11,207313672,-16
32-12,207317578,-47
32-13,207321484,6
32-14,207325390,56
32-15,207329296,17
32-16,207333202,-54
32-17,207337108,-50
32-18,207341014,-5
32-19,207344920,-7
32-20,207348826,-37
32-21,207352732,-15
32-22,207356638,34
32-23,207360544,20
32-24,207364450,-44
32-25,207368356,-73
32-26,207372262,-19
32-27,207376168,11
32-28,207380074,-33
32-29,207383980,-40
32-30,207387886,-12
32-31,207391792,11
32-32,207395698,-6
32-1,207399610,-73
32-2,207403516,-63
32-3,207407422,32
32-4,207411328,28
32-5,207415234,-66
32-6,207419140,-77
32-7,207423046,-18
32-8,207426952,-12
32-9,207430858,-55
32-10,207434764,-61
32-11,207438670,-24
32-12,207442576,-22
32-13,207446482,-72
32-14,207450388,-117
32-15,207454294,-105
32-16,207458200,-39
32-17,207462106,-17
32-18,207466012,-51
32-19,207469918,-46
32-20,207473824,-2
32-21,207477730,3
32-22,207481636,-31
32-23,207485542,-23
32-24,207489448,33
32-25,207493354,49
32-26,207497260,-6
32-27,207501166,-67
32-28,207505072,-21
32-29,207508978,58
32-30,207512884,-14
32-31,207516790,-105
32-32,207520696,-44
32-1,207524607,33
32-2,207528513,20
32-3,207532419,-14
32-4,207536325,4
32-5,207540231,52
32-6,207544137,46
32-7,207548043,-21
32-8,207551949,-62
32-9,207555855,-47
32-10,207559761,-35
32-11,207563667,-54
32-12,207567573,-59
32-13,207571479,-35
32-14,207575385,-28
32-15,207579291,-81
32-16,207583197,-134
32-17,207587103,-107
32-18,207591009,-51
32-19,207594915,-39
32-20,207598821,-55
32-21,207602727,-56
32-22,207606633,-36
32-23,207610539,-32
32-24,207614445,-71
32-25,207618351,-93
32-26,207622257,-41
32-27,207626163,-11
32-28,207630069,-51
32-29,207633975,-66
32-30,207637881,-33
32-31,207641787,-24
32-32,207645693,-66
32-1,207649605,-94
32-2,207653511,-61
32-3,207657417,-18
32-4,207661323,-29
32-5,207665229,-85
32-6,207669135,-101
32-7,207673041,-40
32-8,207676947,-10
32-9,207680853,-74
32-10,207684759,-100
32-11,207688665,-33
32-12,207692571,-6
32-13,207696477,-54
32-14,207700383,-92
32-15,207704289,-69
32-16,207708195,-7
32-17,207712101,-8
32-18,207716007,-67
32-19,207719913,-52
32-20,207723819,19
32-21,207727725,25
32-22,207731631,-34
32-23,207735537,-59
32-24,207739443,-14
32-25,207743349,4
32-26,207747255,-47
32-27,207751161,-78
32-28,207755067,-28
32-29,207758973,9
32-30,207762879,-59
32-31,207766785,-129
32-32,207770691,-111
32-1,207774664,-72
32-2,207778570,-70
32-3,207782476,-79
32-4,207786382,-42
32-5,207790288,44
32-6,207794194,52
32-7,207798100,-45
32-8,207802006,-78
32-9,207805912,-15
32-10,207809818,-10
32-11,207813724,-80
32-12,207817630,-106
32-13,207821536,-35
32-14,207825442,36
32-15,207829348,10
32-16,207833254,-56
32-17,207837160,-55
32-18,207841066,-4
32-19,207844972,-28
32-20,207848878,-108
32-21,207852784,-116
32-22,207856690,-65
32-23,207860596,-54
32-24,207864502,-113
32-25,207868408,-157
32-26,207872314,-114
32-27,207876220,-84
32-28,207880126,-106
32-29,207884032,-85
32-30,207887938,-29
32-31,207891844,14
32-32,207895750,13
32-1,207899600,-31
32-2,207903506,-17
32-3,207907412,66
32-4,207911318,75
32-5,207915224,-2
32-6,207919130,-22
32-7,207923036,37
32-8,207926942,30
32-9,207930848,-59
32-10,207934754,-89
32-11,207938660,-48
32-12,207942566,-25
32-13,207946472,-54
32-14,207950378,-88
32-15,207954284,-65
32-16,207958190,-10
32-17,207962096,-17
32-18,207966002,-70
32-19,207969908,-77
32-20,207973814,-36
32-21,207977720,-22
32-22,207981626,-62
32-23,207985532,-77
32-24,207989438,-27
32-25,207993344,-2
32-26,207997250,-57
32-27,208001156,-121
32-28,208005062,-67
32-29,208008968,65
32-30,208012874,51
32-31,208016780,-54
32-32,208020686,-35
32-1,208024598,22
32-2,208028504,-10
32-3,208032410,-63
32-4,208036316,-59
32-5,208040222,-8
32-6,208044128,4
32-7,208048034,-47
32-8,208051940,-57
32-9,208055846,9
32-10,208059752,38
32-11,208063658,-21
32-12,208067564,-68
32-13,208071470,-35
32-14,208075376,15
32-15,208079282,-2
32-16,208083188,-42
32-17,208087094,-17
32-18,208091000,21
32-19,208094906,-8
32-20,208098812,-51
32-21,208102718,-45
32-22,208106624,-18
32-23,208110530,-26
32-24,208114436,-86
32-25,208118342,-114
32-26,208122248,-65
32-27,208126154,-38
32-28,208130060,-59
32-29,208133966,-48
32-30,208137872,-16
32-31,208141778,-8
32-32,208145684,-50
32-1,208149596,-120
32-2,208153502,-117
32-3,208157408,-38
32-4,208161314,-7
32-5,208165220,-52
32-6,208169126,-61
32-7,208173032,9
32-8,208176938,28
32-9,208180844,-39
32-10,208184750,-57
32-11,208188656,-4
32-12,208192562,24
32-13,208196468,3
32-14,208200374,-9
32-15,208204280,22
32-16,208208186,52
32-17,208212092,22
32-18,208215998,-34
32-19,208219904,-31
32-20,208223810,25
32-21,208227716,23
32-22,208231622,-46
32-23,208235528,-65
32-24,208239434,-32
32-25,208243340,-34
32-26,208247246,-77
32-27,208251152,-100
32-28,208255058,-32
32-29,208258964,29
32-30,208262870,-49
32-31,208266776,-119
32-32,208270682,-71
32-1,208274593,-8
32-2,208278499,4
32-3,208282405,-32
32-4,208286311,-39
32-5,208290217,23
32-6,208294123,33
32-7,208298029,-46
32-8,208301935,-73
32-9,208305841,-10
32-10,208309747,25
32-11,208313653,-7
32-12,208317559,-37
32-13,208321465,-10
32-14,208325371,10
32-15,208329277,-70
32-16,208333183,-148
32-17,208337089,-98
32-18,208340995,-10
32-19,208344901,-17
32-20,208348807,-77
32-21,208352713,-80
32-22,208356619,-44
32-23,208360525,-45
32-24,208364431,-74
32-25,208368337,-67
32-26,208372243,-13
32-27,208376149,-12
32-28,208380055,-61
32-29,208383961,-54
32-30,208387867,-29
32-31,208391773,-33
32-32,208395679,-58
32-1,208399591,-93
32-2,208403497,-76
32-3,208407403,-12
32-4,208411309,-29
32-5,208415215,-97
32-6,208419121,-90
32-7,208423027,-27
32-8,208426933,-12
32-9,208430839,-72
32-10,208434745,-115
32-11,208438651,-70
32-12,208442557,-42
32-13,208446463,-97
32-14,208450369,-108
32-15,208454275,-15
32-16,208458181,41
32-17,208462087,-9
32-18,208465993,-63
32-19,208469899,-44
32-20,208473805,19
32-21,208477711,35
32-22,208481617,-18
32-23,208485523,-31
32-24,208489429,7
32-25,208493335,0
32-26,208497241,-44
32-27,208501147,-60
32-28,208505053,-4
32-29,208508959,53
32-30,208512865,-5
32-31,208516771,-83
32-32,208520677,-57
32-1,208524680,-14
32-2,208528586,-46
32-3,208532492,-106
32-4,208536398,-92
32-5,208540304,-15
32-6,208544210,4
32-7,208548116,-33
32-8,208552022,-42
32-9,208555928,-6
32-10,208559834,15
32-11,208563740,-40
32-12,208567646,-88
32-13,208571552,-36
32-14,208575458,18
32-15,208579364,-8
32-16,208583270,-33
32-17,208587176,9
32-18,208591082,63
32-19,208594988,43
32-20,208598894,-14
32-21,208602800,-30
32-22,208606706,-4
32-23,208610612,15
32-24,208614518,-26
32-25,208618424,-61
32-26,208622330,-20
32-27,208626236,-13
32-28,208630142,-53
32-29,208634048,-41
32-30,208637954,-40
32-31,208641860,-62
32-32,208645766,-83
32-1,208649647,-112
32-2,208653553,-90
32-3,208657459,-51
32-4,208661365,-76
32-5,208665271,-120
32-6,208669177,-131
32-7,208673083,-80
32-8,208676989,-34
32-9,208680895,-72
32-10,208684801,-104
32-11,208688707,-66
32-12,208692613,-45
32-13,208696519,-90
32-14,208700425,-135
32-15,208704331,-102
32-16,208708237,-33
32-17,208712143,-51
32-18,208716049,-113
32-19,208719955,-112
32-20,208723861,-79
32-21,208727767,-87
32-22,208731673,-124
32-23,208735579,-121
32-24,208739485,-68
32-25,208743391,-44
32-26,208747297,-71
32-27,208751203,-96
32-28,208755109,-37
32-29,208759015,61
32-30,208762921,17
32-31,208766827,-95
32-32,208770733,-83
32-1,208774584,-34
32-2,208778490,-58
32-3,208782396,-108
32-4,208786302,-82
32-5,208790208,-4
32-6,208794114,-26
32-7,208798020,-116
32-8,208801926,-122
32-9,208805832,-58
32-10,208809738,-23
32-11,208813644,-64
32-12,208817550,-105
32-13,208821456,-46
32-14,208825362,21
32-15,208829268,-4
32-16,208833174,-31
32-17,208837080,19
32-18,208840986,74
32-19,208844892,38
32-20,208848798,-32
32-21,208852704,-25
32-22,208856610,20
32-23,208860516,27
32-24,208864422,-1
32-25,208868328,-26
32-26,208872234,29
32-27,208876140,67
32-28,208880046,3
32-29,208883952,-22
32-30,208887858,10
32-31,208891764,14
32-32,208895670,-25
32-1,208899581,-99
32-2,208903487,-98
32-3,208907393,-23
32-4,208911299,-11
32-5,208915205,-71
32-6,208919111,-87
32-7,208923017,-32
32-8,208926923,-50
32-9,208930829,-129
32-10,208934735,-107
32-11,208938641,-22
32-12,208942547,8
32-13,208946453,-32
32-14,208950359,-83
32-15,208954265,-68
32-16,208958171,-30
32-17,208962077,-59
32-18,208965983,-94
32-19,208969889,-46
32-20,208973795,28
32-21,208977701,37
32-22,208981607,4
32-23,208985513,-16
32-24,208989419,17
32-25,208993325,57
32-26,208997231,31
32-27,209001137,-17
32-28,209005043,10
32-29,209008949,56
32-30,209012855,2
32-31,209016761,-78
32-32,209020667,-37
32-1,209024579,34
32-2,209028485,23
32-3,209032391,-9
32-4,209036297,-15
32-5,209040203,20
32-6,209044109,43
32-7,209048015,6
32-8,209051921,-9
32-9,209055827,26
32-10,209059733,13
32-11,209063639,-44
32-12,209067545,-48
32-13,209071451,9
32-14,209075357,32
32-15,209079263,-5
32-16,209083169,-36
32-17,209087075,-16
32-18,209090981,30
32-19,209094887,13
32-20,209098793,-64
32-21,209102699,-90
32-22,209106605,-56
32-23,209110511,-44
32-24,209114417,-88
32-25,209118323,-113
32-26,209122229,-48
32-27,209126135,-5
32-28,209130041,-34
32-29,209133947,-37
32-30,209137853,-10
32-31,209141759,-6
32-32,209145665,-42
32-1,209149577,-79
32-2,209153483,-47
32-3,209157389,15
32-4,209161295,9
32-5,209165201,-54
32-6,209169107,-69
32-7,209173013,-15
32-8,209176919,-13
32-9,209180825,-89
32-10,209184731,-122
32-11,209188637,-68
32-12,209192543,-24
32-13,209196449,-60
32-14,209200355,-100
32-15,209204261,-59
32-16,209208167,5
32-17,209212073,-12
32-18,209215979,-50
32-19,209219885,-5
32-20,209223791,53
32-21,209227697,25
32-22,209231603,-27
32-23,209235509,-26
32-24,209239415,8
32-25,209243321,19
32-26,209247227,-12
32-27,209251133,-42
32-28,209255039,9
32-29,209258945,57
32-30,209262851,-14
32-31,209266757,-67
32-32,209270663,-14
32-1,209274696,26
32-2,209278602,-8
32-3,209282508,-62
32-4,209286414,-54
32-5,209290320,1
32-6,209294226,-1
32-7,209298132,-52
32-8,209302038,-65
32-9,209305944,-33
32-10,209309850,-25
32-11,209313756,-57
32-12,209317662,-71
32-13,209321568,-33
32-14,209325474,-4
32-15,209329380,-36
32-16,209333286,-77
32-17,209337192,-68
32-18,209341098,-24
32-19,209345004,-10
32-20,209348910,-42
32-21,209352816,-50
32-22,209356722,-24
32-23,209360628,-40
32-24,209364534,-106
32-25,209368440,-119
32-26,209372346,-51
32-27,209376252,-31
32-28,209380158,-68
32-29,209384064,-52
32-30,209387970,-9
32-31,209391876,20
32-32,209395782,7
32-1,209399572,-33
32-2,209403478,-11
32-3,209407384,37
32-4,209411290,15
32-5,209415196,-30
32-6,209419102,-8
32-7,209423008,63
32-8,209426914,56
32-9,209430820,-29
32-10,209434726,-57
32-11,209438632,4
32-12,209442538,46
32-13,209446444,8
32-14,209450350,-39
32-15,209454256,-14
32-16,209458162,19
32-17,209462068,-18
32-18,209465974,-60
32-19,209469880,-41
32-20,209473786,-7
32-21,209477692,-7
32-22,209481598,-42
32-23,209485504,-54
32-24,209489410,-25
32-25,209493316,-37
32-26,209497222,-92
32-27,209501128,-118
32-28,209505034,-64
32-29,209508940,30
32-30,209512846,-14
32-31,209516752,-119
32-32,209520658,-84
32-1,209524570,-15
32-2,209528476,-28
32-3,209532382,-68
32-4,209536288,-73
32-5,209540194,-17
32-6,209544100,4
32-7,209548006,-63
32-8,209551912,-82
32-9,209555818,-13
32-10,209559724,9
32-11,209563630,-46
32-12,209567536,-64
32-13,209571442,-12
32-14,209575348,13
32-15,209579254,-38
32-16,209583160,-87
32-17,209587066,-66
32-18,209590972,-11
32-19,209594878,-8
32-20,209598784,-49
32-21,209602690,-37
32-22,209606596,33
32-23,209610502,53
32-24,209614408,-16
32-25,209618314,-48
32-26,209622220,27
32-27,209626126,48
32-28,209630032,-18
32-29,209633938,-20
32-30,209637844,16
32-31,209641750,24
32-32,209645656,3
32-1,209649567,-37
32-2,209653473,-29
32-3,209657379,18
32-4,209661285,3
32-5,209665191,-49
32-6,209669097,-42
32-7,209673003,20
32-8,209676909,16
32-9,209680815,-76
32-10,209684721,-108
32-11,209688627,-49
32-12,209692533,-30
32-13,209696439,-71
32-14,209700345,-100
32-15,209704251,-75
32-16,209708157,-26
32-17,209712063,-44
32-18,209715969,-99
32-19,209719875,-76
32-20,209723781,7
32-21,209727687,26
32-22,209731593,-34
32-23,209735499,-48
32-24,209739405,-9
32-25,209743311,-20
32-26,209747217,-75
32-27,209751123,-105
32-28,209755029,-50
32-29,209758935,18
32-30,209762841,-16
32-31,209766747,-59
32-32,209770653,-21
32-1,209774565,12
32-2,209778471,-9
32-3,209782377,-32
32-4,209786283,-19
32-5,209790189,11
32-6,209794095,-1
32-7,209798001,-62
32-8,209801907,-76
32-9,209805813,-23
32-10,209809719,-17
32-11,209813625,-77
32-12,209817531,-103
32-13,209821437,-51
32-14,209825343,7
32-15,209829249,-23
32-16,209833155,-82
32-17,209837061,-39
32-18,209840967,29
32-19,209844873,-2
32-20,209848779,-58
32-21,209852685,-50
32-22,209856591,-16
32-23,209860497,-23
32-24,209864403,-76
32-25,209868309,-83
32-26,209872215,-26
32-27,209876121,-31
32-28,209880027,-67
32-29,209883933,-26
32-30,209887839,7
32-31,209891745,-20
32-32,209895651,-60
32-1,209899562,-88
32-2,209903468,-67
32-3,209907374,-16
32-4,209911280,-32
32-5,209915186,-101
32-6,209919092,-105
32-7,209922998,-34
32-8,209926904,11
32-9,209930810,-26
32-10,209934716,-64
32-11,209938622,-8
32-12,209942528,39
32-13,209946434,-31
32-14,209950340,-95
32-15,209954246,-57
32-16,209958152,-18
32-17,209962058,-54
32-18,209965964,-87
32-19,209969870,-40
32-20,209973776,-1
32-21,209977682,-52
32-22,209981588,-118
32-23,209985494,-98
32-24,209989400,-39
32-25,209993306,-34
32-26,209997212,-61
32-27,210001118,-73
32-28,210005024,-10
32-29,210008930,67
32-30,210012836,-23
32-31,210016742,-140
32-32,210020648,-100
32-1,210024682,-51
32-2,210028588,-81
32-3,210032494,-115
32-4,210036400,-92
32-5,210040306,-26
32-6,210044212,-43
32-7,210048118,-135
32-8,210052024,-144
32-9,210055930,-70
32-10,210059836,-51
32-11,210063742,-109
32-12,210067648,-135
32-13,210071554,-66
32-14,210075460,-9
32-15,210079366,-64
32-16,210083272,-124
32-17,210087178,-96
32-18,210091084,-58
32-19,210094990,-79
32-20,210098896,-116
32-21,210102802,-89
32-22,210106708,-15
32-23,210110614,-3
32-24,210114520,-55
32-25,210118426,-51
32-26,210122332,31
32-27,210126238,67
32-28,210130144,52
32-29,210134050,63
32-30,210137956,74
32-31,210141862,59
32-32,210145768,21
32-1,210149527,-12
32-2,210153433,24
32-3,210157339,80
32-4,210161245,57
32-5,210165151,-6
32-6,210169057,-5
32-7,210172963,53
32-8,210176869,55
32-9,210180775,-4
32-10,210184681,-34
32-11,210188587,-14
32-12,210192493,-1
32-13,210196399,-34
32-14,210200305,-50
32-15,210204211,0
32-16,210208117,39
32-17,210212023,4
32-18,210215929,-62
32-19,210219835,-72
32-20,210223741,-20
32-21,210227647,-19
32-22,210231553,-92
32-23,210235459,-111
32-24,210239365,-53
32-25,210243271,-28
32-26,210247177,-59
32-27,210251083,-98
32-28,210254989,-55
32-29,210258895,42
32-30,210262801,-2
32-31,210266707,-114
32-32,210270613,-83
32-1,210274555,-20
32-2,210278461,-47
32-3,210282367,-67
32-4,210286273,-36
32-5,210290179,-4
32-6,210294085,-24
32-7,210297991,-77
32-8,210301897,-78
32-9,210305803,-26
32-10,210309709,-26
32-11,210313615,-86
32-12,210317521,-104
32-13,210321427,-59
32-14,210325333,-27
32-15,210329239,-32
32-16,210333145,-22
32-17,210337051,17
32-18,210340957,52
32-19,210344863,48
32-20,210348769,7
32-21,210352675,2
32-22,210356581,40
32-23,210360487,36
32-24,210364393,-23
32-25,210368299,-42
32-26,210372205,17
32-27,210376111,46
32-28,210380017,19
32-29,210383923,28
32-30,210387829,48
32-31,210391735,52
32-32,210395641,23
32-1,210399553,-31
32-2,210403459,-1
32-3,210407365,86
32-4,210411271,87
32-5,210415177,28
32-6,210419083,14
32-7,210422989,48
32-8,210426895,72
32-9,210430801,51
32-10,210434707,20
32-11,210438613,43
32-12,210442519,58
32-13,210446425,-7
32-14,210450331,-63
32-15,210454237,-36
32-16,210458143,7
32-17,210462049,-21
32-18,210465955,-69
32-19,210469861,-50
32-20,210473767,-5
32-21,210477673,-6
32-22,210481579,-44
32-23,210485485,-54
32-24,210489391,-5
32-25,210493297,21
32-26,210497203,-28
32-27,210501109,-68
32-28,210505015,-4
32-29,210508921,53
32-30,210512827,-44
32-31,210516733,-107
32-32,210520639,-6
32-1,210524551,58
32-2,210528457,26
32-3,210532363,-4
32-4,210536269,-1
32-5,210540175,21
32-6,210544081,3
32-7,210547987,-49
32-8,210551893,-75
32-9,210555799,-41
32-10,210559705,-14
32-11,210563611,-69
32-12,210567517,-102
32-13,210571423,-35
32-14,210575329,7
32-15,210579235,-38
32-16,210583141,-76
32-17,210587047,-37
32-18,210590953,29
32-19,210594859,26
32-20,210598765,-26
32-21,210602671,-33
32-22,210606577,7
32-23,210610483,13
32-24,210614389,-34
32-25,210618295,-40
32-26,210622201,16
32-27,210626107,20
32-28,210630013,-4
32-29,210633919,21
32-30,210637825,50
32-31,210641731,46
32-32,210645637,7
32-1,210649548,-27
32-2,210653454,15
32-3,210657360,66
32-4,210661266,42
32-5,210665172,-20
32-6,210669078,-34
32-7,210672984,20
32-8,210676890,40
32-9,210680796,13
32-10,210684702,26
32-11,210688608,76
32-12,210692514,92
32-13,210696420,32
32-14,210700326,-36
32-15,210704232,1
32-16,210708138,63
32-17,210712044,26
32-18,210715950,-33
32-19,210719856,-7
32-20,210723762,44
32-21,210727668,21
32-22,210731574,-44
32-23,210735480,-43
32-24,210739386,14
32-25,210743292,34
32-26,210747198,-21
32-27,210751104,-69
32-28,210755010,-12
32-29,210758916,48
32-30,210762822,-18
32-31,210766728,-74
32-32,210770634,-17
32-1,210774821,13
32-2,210778727,-33
32-3,210782633,-71
32-4,210786539,-52
32-5,210790445,-8
32-6,210794351,-29
32-7,210798257,-93
32-8,210802163,-91
32-9,210806069,-26
32-10,210809975,-10
32-11,210813881,-74
32-12,210817787,-98
32-13,210821693,-19
32-14,210825599,19
32-15,210829505,-49
32-16,210833411,-85
32-17,210837317,-25
32-18,210841223,35
32-19,210845129,4
32-20,210849035,-58
32-21,210852941,-39
32-22,210856847,10
32-23,210860753,11
32-24,210864659,-18
32-25,210868565,-22
32-26,210872471,10
32-27,210876377,-12
32-28,210880283,-65
32-29,210884189,-53
32-30,210888095,-40
32-31,210892001,-50
32-32,210895907,-50
32-1,210899544,-60
32-2,210903450,-39
32-3,210907356,-4
32-4,210911262,-29
32-5,210915168,-74
32-6,210919074,-61
32-7,210922980,1
32-8,210926886,10
32-9,210930792,-60
32-10,210934698,-79
32-11,210938604,4
32-12,210942510,42
32-13,210946416,-23
32-14,210950322,-63
32-15,210954228,-16
32-16,210958134,28
32-17,210962040,-14
32-18,210965946,-69
32-19,210969852,-28
32-20,210973758,37
32-21,210977664,18
32-22,210981570,-24
32-23,210985476,-6
32-24,210989382,14
32-25,210993288,-11
32-26,210997194,-30
32-27,211001100,-48
32-28,211005006,-6
32-29,211008912,87
32-30,211012818,26
32-31,211016724,-102
32-32,211020630,-76
32-1,211024541,-35
32-2,211028447,-76
32-3,211032353,-95
32-4,211036259,-58
32-5,211040165,-9
32-6,211044071,-20
32-7,211047977,-83
32-8,211051883,-97
32-9,211055789,-58
32-10,211059695,-52
32-11,211063601,-103
32-12,211067507,-128
32-13,211071413,-81
32-14,211075319,-51
32-15,211079225,-86
32-16,211083131,-101
32-17,211087037,-65
32-18,211090943,-57
32-19,211094849,-103
32-20,211098755,-136
32-21,211102661,-112
32-22,211106567,-86
32-23,211110473,-97
32-24,211114379,-136
32-25,211118285,-140
32-26,211122191,-83
32-27,211126097,-81
32-28,211130003,-126
32-29,211133909,-106
32-30,211137815,-80
32-31,211141721,-82
32-32,211145627,-95
32-1,211149539,-134
32-2,211153445,-107
32-3,211157351,-30
32-4,211161257,-43
32-5,211165163,-104
32-6,211169069,-81
32-7,211172975,-18
32-8,211176881,-37
32-9,211180787,-86
32-10,211184693,-70
32-11,211188599,-11
32-12,211192505,8
32-13,211196411,-47
32-14,211200317,-82
32-15,211204223,-23
32-16,211208129,23
32-17,211212035,-21
32-18,211215941,-61
32-19,211219847,-27
32-20,211223753,22
32-21,211227659,0
32-22,211231565,-56
32-23,211235471,-70
32-24,211239377,-43
32-25,211243283,-45
32-26,211247189,-95
32-27,211251095,-124
32-28,211255001,-63
32-29,211258907,-10
32-30,211262813,-73
32-31,211266719,-144
32-32,211270625,-111
32-1,211274536,-73
32-2,211278442,-106
32-3,211282348,-145
32-4,211286254,-96
32-5,211290160,-13
32-6,211294066,-15
32-7,211297972,-44
32-8,211301878,-29
32-9,211305784,-10
32-10,211309690,0
32-11,211313596,-17
32-12,211317502,-27
32-13,211321408,26
32-14,211325314,46
32-15,211329220,-19
32-16,211333126,-54
32-17,211337032,-5
32-18,211340938,23
32-19,211344844,-29
32-20,211348750,-72
32-21,211352656,-53
32-22,211356562,-28
32-23,211360468,-37
32-24,211364374,-65
32-25,211368280,-43
32-26,211372186,18
32-27,211376092,-1
32-28,211379998,-60
32-29,211383904,-49
32-30,211387810,-13
32-31,211391716,-5
32-32,211395622,-30
32-1,211399626,-66
32-2,211403532,-41
32-3,211407438,18
32-4,211411344,-6
32-5,211415250,-74
32-6,211419156,-68
32-7,211423062,-21
32-8,211426968,-37
32-9,211430874,-91
32-10,211434780,-96
32-11,211438686,-58
32-12,211442592,-55
32-13,211446498,-100
32-14,211450404,-138
32-15,211454310,-120
32-16,211458216,-84
32-17,211462122,-100
32-18,211466028,-124
32-19,211469934,-73
32-20,211473840,-2
32-21,211477746,-3
32-22,211481652,-73
32-23,211485558,-96
32-24,211489464,-52
32-25,211493370,-56
32-26,211497276,-105
32-27,211501182,-117
32-28,211505088,-61
32-29,211508994,-8
32-30,211512900,-62
32-31,211516806,-117
32-32,211520712,-70
32-1,211524715,-44
32-2,211528621,-99
32-3,211532527,-147
32-4,211536433,-117
32-5,211540339,-63
32-6,211544245,-75
32-7,211548151,-116
32-8,211552057,-116
32-9,211555963,-85
32-10,211559869,-80
32-11,211563775,-114
32-12,211567681,-123
32-13,211571587,-64
32-14,211575493,-18
32-15,211579399,-82
32-16,211583305,-149
32-17,211587211,-89
32-18,211591117,-16
32-19,211595023,-35
32-20,211598929,-64
32-21,211602835,-30
32-22,211606741,29
32-23,211610647,17
32-24,211614553,-52
32-25,211618459,-53
32-26,211622365,16
32-27,211626271,6
32-28,211630177,-58
32-29,211634083,-52
32-30,211637989,-3
32-31,211641895,21
32-32,211645801,-3
32-1,211649529,-43
32-2,211653435,-36
32-3,211657341,-4
32-4,211661247,-24
32-5,211665153,-58
32-6,211669059,-30
32-7,211672965,14
32-8,211676871,-14
32-9,211680777,-71
32-10,211684683,-53
32-11,211688589,11
32-12,211692495,-10
32-13,211696401,-90
32-14,211700307,-104
32-15,211704213,-45
32-16,211708119,3
32-17,211712025,-11
32-18,211715931,-49
32-19,211719837,-29
32-20,211723743,22
32-21,211727649,5
32-22,211731555,-60
32-23,211735461,-58
32-24,211739367,-9
32-25,211743273,-5
32-26,211747179,-32
32-27,211751085,-49
32-28,211754991,-6
32-29,211758897,59
32-30,211762803,-17
32-31,211766709,-135
32-32,211770615,-103
32-1,211774527,-39
32-2,211778433,-60
32-3,211782339,-86
32-4,211786245,-63
32-5,211790151,-23
32-6,211794057,-24
32-7,211797963,-78
32-8,211801869,-97
32-9,211805775,-25
32-10,211809681,22
32-11,211813587,-27
32-12,211817493,-47
32-13,211821399,16
32-14,211825305,38
32-15,211829211,-21
32-16,211833117,-53
32-17,211837023,-8
32-18,211840929,33
32-19,211844835,-7
32-20,211848741,-64
32-21,211852647,-44
32-22,211856553,5
32-23,211860459,-2
32-24,211864365,-46
32-25,211868271,-46
32-26,211872177,10
32-27,211876083,-5
32-28,211879989,-61
32-29,211883895,-5
32-30,211887801,70
32-31,211891707,17
32-32,211895613,-64
32-1,211899525,-81
32-2,211903431,-51
32-3,211907337,-3
32-4,211911243,-6
32-5,211915149,-78
32-6,211919055,-89
32-7,211922961,-25
32-8,211926867,-38
32-9,211930773,-103
32-10,211934679,-103
32-11,211938585,-58
32-12,211942491,-38
32-13,211946397,-55
32-14,211950303,-45
32-15,211954209,30
32-16,211958115,83
32-17,211962021,41
32-18,211965927,-19
32-19,211969833,18
32-20,211973739,84
32-21,211977645,57
32-22,211981551,6
32-23,211985457,31
32-24,211989363,73
32-25,211993269,56
32-26,211997175,-4
32-27,212001081,-51
32-28,212004987,-28
32-29,212008893,2
32-30,212012799,-71
32-31,212016705,-134
32-32,212020611,-81
32-1,212024644,-32
32-2,212028550,-65
32-3,212032456,-108
32-4,212036362,-79
32-5,212040268,-19
32-6,212044174,-31
32-7,212048080,-69
32-8,212051986,-47
32-9,212055892,10
32-10,212059798,15
32-11,212063704,-22
32-12,212067610,-18
32-13,212071516,40
32-14,212075422,47
32-15,212079328,-50
32-16,212083234,-132
32-17,212087140,-97
32-18,212091046,-20
32-19,212094952,-24
32-20,212098858,-80
32-21,212102764,-52
32-22,212106670,38
32-23,212110576,53
32-24,212114482,17
32-25,212118388,37
32-26,212122294,111
32-27,212126200,105
32-28,212130106,33
32-29,212134012,36
32-30,212137918,66
32-31,212141824,47
32-32,212145730,-3
32-1,212149520,-41
32-2,212153426,5
32-3,212157332,63
32-4,212161238,25
32-5,212165144,-23
32-6,212169050,0
32-7,212172956,42
32-8,212176862,43
32-9,212180768,20
32-10,212184674,26
32-11,212188580,72
32-12,212192486,80
32-13,212196392,17
32-14,212200298,10
32-15,212204204,77
32-16,212208110,72
32-17,212212016,-5
32-18,212215922,-33
32-19,212219828,7
32-20,212223734,30
32-21,212227640,0
32-22,212231546,-31
32-23,212235452,-28
32-24,212239358,16
32-25,212243264,46
32-26,212247170,-16
32-27,212251076,-79
32-28,212254982,-23
32-29,212258888,37
32-30,212262794,-38
32-31,212266700,-116
32-32,212270606,-67
32-1,212274701,-7
32-2,212278607,-34
32-3,212282513,-69
32-4,212286419,-25
32-5,212290325,36
32-6,212294231,26
32-7,212298137,-9
32-8,212302043,3
32-9,212305949,52
32-10,212309855,37
32-11,212313761,-32
32-12,212317667,-21
32-13,212321573,61
32-14,212325479,86
32-15,212329385,21
32-16,212333291,-32
32-17,212337197,18
32-18,212341103,82
32-19,212345009,43
32-20,212348915,-20
32-21,212352821,12
32-22,212356727,70
32-23,212360633,55
32-24,212364539,5
32-25,212368445,11
32-26,212372351,68
32-27,212376257,51
32-28,212380163,-11
32-29,212384069,3
32-30,212387975,29
32-31,212391881,25
32-32,212395787,-12
32-1,212399515,-57
32-2,212403421,-14
32-3,212407327,47
32-4,212411233,12
32-5,212415139,-37
32-6,212419045,-3
32-7,212422951,50
32-8,212426857,12
32-9,212430763,-66
32-10,212434669,-73
32-11,212438575,-3
32-12,212442481,25
32-13,212446387,-47
32-14,212450293,-81
32-15,212454199,-36
32-16,212458105,-31
32-17,212462011,-72
32-18,212465917,-100
32-19,212469823,-74
32-20,212473729,-13
32-21,212477635,-18
32-22,212481541,-70
32-23,212485447,-55
32-24,212489353,8
32-25,212493259,32
32-26,212497165,7
32-27,212501071,-25
32-28,212504977,20
32-29,212508883,92
32-30,212512789,7
32-31,212516695,-110
32-32,212520601,-54
32-1,212524513,8
32-2,212528419,-62
32-3,212532325,-130
32-4,212536231,-93
32-5,212540137,-16
32-6,212544043,-9
32-7,212547949,-36
32-8,212551855,-9
32-9,212555761,51
32-10,212559667,61
32-11,212563573,0
32-12,212567479,-34
32-13,212571385,19
32-14,212575291,67
32-15,212579197,27
32-16,212583103,-11
32-17,212587009,20
32-18,212590915,37
32-19,212594821,-4
32-20,212598727,-45
32-21,212602633,-27
32-22,212606539,16
32-23,212610445,-12
32-24,212614351,-88
32-25,212618257,-82
32-26,212622163,-18
32-27,212626069,-27
32-28,212629975,-66
32-29,212633881,-28
32-30,212637787,21
32-31,212641693,13
32-32,212645599,-21
32-1,212649632,-52
32-2,212653538,-26
32-3,212657444,27
32-4,212661350,3
32-5,212665256,-34
32-6,212669162,18
32-7,212673068,61
32-8,212676974,29
32-9,212680880,-4
32-10,212684786,12
32-11,212688692,54
32-12,212692598,42
32-13,212696504,-48
32-14,212700410,-101
32-15,212704316,-40
32-16,212708222,15
32-17,212712128,-35
32-18,212716034,-87
32-19,212719940,-37
32-20,212723846,31
32-21,212727752,14
32-22,212731658,-34
32-23,212735564,-11
32-24,212739470,37
32-25,212743376,34
32-26,212747282,12
32-27,212751188,12
32-28,212755094,61
32-29,212759000,111
32-30,212762906,47
32-31,212766812,-30
32-32,212770718,-1
32-1,212774508,20
32-2,212778414,-40
32-3,212782320,-85
32-4,212786226,-49
32-5,212790132,-5
32-6,212794038,-31
32-7,212797944,-81
32-8,212801850,-71
32-9,212805756,2
32-10,212809662,10
32-11,212813568,-53
32-12,212817474,-50
32-13,212821380,2
32-14,212825286,5
32-15,212829192,-48
32-16,212833098,-90
32-17,212837004,-57
32-18,212840910,-16
32-19,212844816,-63
32-20,212848722,-128
32-21,212852628,-103
32-22,212856534,-45
32-23,212860440,-54
32-24,212864346,-104
32-25,212868252,-90
32-26,212872158,-9
32-27,212876064,5
32-28,212879970,-36
32-29,212883876,-7
32-30,212887782,32
32-31,212891688,33
32-32,212895594,11
32-1,212899506,-33
32-2,212903412,-15
32-3,212907318,24
32-4,212911224,-33
32-5,212915130,-103
32-6,212919036,-86
32-7,212922942,-36
32-8,212926848,-27
32-9,212930754,-62
32-10,212934660,-63
32-11,212938566,4
32-12,212942472,26
32-13,212946378,-56
32-14,212950284,-102
32-15,212954190,-33
32-16,212958096,13
32-17,212962002,-39
32-18,212965908,-89
32-19,212969814,-73
32-20,212973720,-25
32-21,212977626,-44
32-22,212981532,-119
32-23,212985438,-98
32-24,212989344,-13
32-25,212993250,-28
32-26,212997156,-78
32-27,213001062,-66
32-28,213004968,-19
32-29,213008874,7
32-30,213012780,-60
32-31,213016686,-145
32-32,213020592,-129
32-1,213024686,-98
32-2,213028592,-110
32-3,213032498,-114
32-4,213036404,-89
32-5,213040310,-46
32-6,213044216,-55
32-7,213048122,-95
32-8,213052028,-68
32-9,213055934,-13
32-10,213059840,-25
32-11,213063746,-79
32-12,213067652,-86
32-13,213071558,-21
32-14,213075464,15
32-15,213079370,-57
32-16,213083276,-119
32-17,213087182,-74
32-18,213091088,-34
32-19,213094994,-92
32-20,213098900,-145
32-21,213102806,-103
32-22,213106712,-52
32-23,213110618,-76
32-24,213114524,-120
32-25,213118430,-95
32-26,213122336,-17
32-27,213126242,-6
32-28,213130148,-60
32-29,213134054,-56
32-30,213137960,-17
32-31,213141866,-30
32-32,213145772,-82
32-1,213149501,-103
32-2,213153407,-65
32-3,213157313,-43
32-4,213161219,-84
32-5,213165125,-134
32-6,213169031,-128
32-7,213172937,-75
32-8,213176843,-70
32-9,213180749,-109
32-10,213184655,-92
32-11,213188561,-28
32-12,213192467,-19
32-13,213196373,-61
32-14,213200279,-52
32-15,213204185,15
32-16,213208091,42
32-17,213211997,8
32-18,213215903,-4
32-19,213219809,35
32-20,213223715,42
32-21,213227621,-19
32-22,213231527,-83
32-23,213235433,-72
32-24,213239339,-23
32-25,213243245,-25
32-26,213247151,-55
32-27,213251057,-75
32-28,213254963,-43
32-29,213258869,36
32-30,213262775,-4
32-31,213266681,-91
32-32,213270587,-43
32-1,213274499,7
32-2,213278405,-39
32-3,213282311,-63
32-4,213286217,-15
32-5,213290123,40
32-6,213294029,16
32-7,213297935,-41
32-8,213301841,-35
32-9,213305747,4
32-10,213309653,3
32-11,213313559,-34
32-12,213317465,-27
32-13,213321371,37
32-14,213325277,48
32-15,213329183,-14
32-16,213333089,-31
32-17,213336995,24
32-18,213340901,56
32-19,213344807,-1
32-20,213348713,-65
32-21,213352619,-28
32-22,213356525,36
32-23,213360431,7
32-24,213364337,-63
32-25,213368243,-64
32-26,213372149,8
32-27,213376055,3
32-28,213379961,-72
32-29,213383867,-64
32-30,213387773,-30
32-31,213391679,-55
32-32,213395585,-101
32-1,213399496,-137
32-2,213403402,-108
32-3,213407308,-40
32-4,213411214,-44
32-5,213415120,-83
32-6,213419026,-46
32-7,213422932,36
32-8,213426838,30
32-9,213430744,-54
32-10,213434650,-92
32-11,213438556,-55
32-12,213442462,-27
32-13,213446368,-51
32-14,213450274,-56
32-15,213454180,-28
32-16,213458086,-49
32-17,213461992,-104
32-18,213465898,-109
32-19,213469804,-56
32-20,213473710,-2
32-21,213477616,-30
32-22,213481522,-108
32-23,213485428,-105
32-24,213489334,-45
32-25,213493240,-56
32-26,213497146,-113
32-27,213501052,-112
32-28,213504958,-29
32-29,213508864,15
32-30,213512770,-68
32-31,213516676,-115
32-32,213520582,-39
32-1,213524494,8
32-2,213528400,-43
32-3,213532306,-93
32-4,213536212,-58
32-5,213540118,-13
32-6,213544024,-60
32-7,213547930,-116
32-8,213551836,-92
32-9,213555742,-49
32-10,213559648,-66
32-11,213563554,-116
32-12,213567460,-130
32-13,213571366,-94
32-14,213575272,-65
32-15,213579178,-93
32-16,213583084,-118
32-17,213586990,-83
32-18,213590896,-35
32-19,213594802,-56
32-20,213598708,-102
32-21,213602614,-59
32-22,213606520,22
32-23,213610426,7
32-24,213614332,-68
32-25,213618238,-64
32-26,213622144,8
32-27,213626050,-10
32-28,213629956,-77
32-29,213633862,-67
32-30,213637768,-39
32-31,213641674,-47
32-32,213645580,-87
32-1,213649491,-119
32-2,213653397,-69
32-3,213657303,-21
32-4,213661209,-69
32-5,213665115,-99
32-6,213669021,-36
32-7,213672927,9
32-8,213676833,-26
32-9,213680739,-68
32-10,213684645,-64
32-11,213688551,1
32-12,213692457,63
32-13,213696363,50
32-14,213700269,16
32-15,213704175,19
32-16,213708081,26
32-17,213711987,14
32-18,213715893,8
32-19,213719799,25
32-20,213723705,44
32-21,213727611,8
32-22,213731517,-54
32-23,213735423,-32
32-24,213739329,21
32-25,213743235,-7
32-26,213747141,-48
32-27,213751047,-34
32-28,213754953,49
32-29,213758859,105
32-30,213762765,6
32-31,213766671,-96
32-32,213770577,-60
32-1,213774672,-24
32-2,213778578,-69
32-3,213782484,-101
32-4,213786390,-42
32-5,213790296,30
32-6,213794202,18
32-7,213798108,-28
32-8,213802014,-30
32-9,213805920,11
32-10,213809826,11
32-11,213813732,-39
32-12,213817638,-52
32-13,213821544,-12
32-14,213825450,7
32-15,213829356,-22
32-16,213833262,-29
32-17,213837168,13
32-18,213841074,51
32-19,213844980,16
32-20,213848886,-55
32-21,213852792,-44
32-22,213856698,14
32-23,213860604,5
32-24,213864510,-48
32-25,213868416,-39
32-26,213872322,29
32-27,213876228,15
32-28,213880134,-52
32-29,213884040,-31
32-30,213887946,9
32-31,213891852,-3
32-32,213895758,-43
32-1,213899487,-88
32-2,213903393,-53
32-3,213907299,4
32-4,213911205,-39
32-5,213915111,-84
32-6,213919017,-33
32-7,213922923,36
32-8,213926829,30
32-9,213930735,-26
32-10,213934641,-46
32-11,213938547,-13
32-12,213942453,-12
32-13,213946359,-64
32-14,213950265,-77
32-15,213954171,-15
32-16,213958077,46
32-17,213961983,16
32-18,213965889,-37
32-19,213969795,8
32-20,213973701,67
32-21,213977607,15
32-22,213981513,-77
32-23,213985419,-93
32-24,213989325,-51
32-25,213993231,-56
32-26,213997137,-91
32-27,214001043,-100
32-28,214004949,-50
32-29,214008855,23
32-30,214012761,-40
32-31,214016667,-134
32-32,214020573,-57
32-1,214024484,23
32-2,214028390,-30
32-3,214032296,-85
32-4,214036202,-53
32-5,214040108,-2
32-6,214044014,-14
32-7,214047920,-63
32-8,214051826,-75
32-9,214055732,-39
32-10,214059638,-52
32-11,214063544,-123
32-12,214067450,-135
32-13,214071356,-82
32-14,214075262,-63
32-15,214079168,-102
32-16,214083074,-121
32-17,214086980,-58
32-18,214090886,-2
32-19,214094792,-42
32-20,214098698,-76
32-21,214102604,-15
32-22,214106510,49
32-23,214110416,18
32-24,214114322,-53
32-25,214118228,-40
32-26,214122134,34
32-27,214126040,11
32-28,214129946,-60
32-29,214133852,-27
32-30,214137758,8
32-31,214141664,-43
32-32,214145570,-90
32-1,214149482,-84
32-2,214153388,-23
32-3,214157294,32
32-4,214161200,-4
32-5,214165106,-50
32-6,214169012,-29
32-7,214172918,-2
32-8,214176824,-31
32-9,214180730,-68
32-10,214184636,-48
32-11,214188542,6
32-12,214192448,25
32-13,214196354,-12
32-14,214200260,-36
32-15,214204166,17
32-16,214208072,65
32-17,214211978,18
32-18,214215884,-24
32-19,214219790,28
32-20,214223696,75
32-21,214227602,32
32-22,214231508,-11
32-23,214235414,21
32-24,214239320,46
32-25,214243226,0
32-26,214247132,-48
32-27,214251038,-55
32-28,214254944,-2
32-29,214258850,38
32-30,214262756,-38
32-31,214266662,-108
32-32,214270568,-75
32-1,214274480,-39
32-2,214278386,-50
32-3,214282292,-73
32-4,214286198,-40
32-5,214290104,20
32-6,214294010,7
32-7,214297916,-20
32-8,214301822,3
32-9,214305728,34
32-10,214309634,14
32-11,214313540,-58
32-12,214317446,-82
32-13,214321352,-13
32-14,214325258,12
32-15,214329164,-59
32-16,214333070,-86
32-17,214336976,-30
32-18,214340882,15
32-19,214344788,-16
32-20,214348694,-76
32-21,214352600,-62
32-22,214356506,-3
32-23,214360412,-7
32-24,214364318,-57
32-25,214368224,-64
32-26,214372130,-30
32-27,214376036,-37
32-28,214379942,-72
32-29,214383848,-59
32-30,214387754,-33
32-31,214391660,-47
32-32,214395566,-91
32-1,214399477,-117
32-2,214403383,-57
32-3,214407289,27
32-4,214411195,19
32-5,214415101,-29
32-6,214419007,4
32-7,214422913,68
32-8,214426819,40
32-9,214430725,-30
32-10,214434631,-34
32-11,214438537,14
32-12,214442443,6
32-13,214446349,-46
32-14,214450255,-23
32-15,214454161,63
32-16,214458067,89
32-17,214461973,18
32-18,214465879,-31
32-19,214469785,17
32-20,214473691,64
32-21,214477597,33
32-22,214481503,-16
32-23,214485409,-3
32-24,214489315,50
32-25,214493221,42
32-26,214497127,-11
32-27,214501033,-33
32-28,214504939,10
32-29,214508845,48
32-30,214512751,-28
32-31,214516657,-95
32-32,214520563,-45
32-1,214524841,-11
32-2,214528747,-52
32-3,214532653,-79
32-4,214536559,-52
32-5,214540465,-37
32-6,214544371,-68
32-7,214548277,-83
32-8,214552183,-59
32-9,214556089,-20
32-10,214559995,-18
32-11,214563901,-87
32-12,214567807,-107
32-13,214571713,-38
32-14,214575619,-22
32-15,214579525,-76
32-16,214583431,-79
32-17,214587337,-24
32-18,214591243,-12
32-19,214595149,-87
32-20,214599055,-150
32-21,214602961,-109
32-22,214606867,-49
32-23,214610773,-54
32-24,214614679,-83
32-25,214618585,-74
32-26,214622491,-34
32-27,214626397,-46
32-28,214630303,-93
32-29,214634209,-79
32-30,214638115,-52
32-31,214642021,-64
32-32,214645927,-91
32-1,214649472,-107
32-2,214653378,-78
32-3,214657284,-56
32-4,214661190,-91
32-5,214665096,-123
32-6,214669002,-91
32-7,214672908,-22
32-8,214676814,-21
32-9,214680720,-79
32-10,214684626,-81
32-11,214688532,-32
32-12,214692438,-29
32-13,214696344,-79
32-14,214700250,-98
32-15,214704156,-54
32-16,214708062,-27
32-17,214711968,-61
32-18,214715874,-79
32-19,214719780,-32
32-20,214723686,9
32-21,214727592,-16
32-22,214731498,-63
32-23,214735404,-52
32-24,214739310,-3
32-25,214743216,-5
32-26,214747122,-49
32-27,214751028,-85
32-28,214754934,-37
32-29,214758840,30
32-30,214762746,-57
32-31,214766652,-137
32-32,214770558,-40
32-1,214774470,13
32-2,214778376,-47
32-3,214782282,-60
32-4,214786188,-1
32-5,214790094,20
32-6,214794000,-42
32-7,214797906,-83
32-8,214801812,-45
32-9,214805718,5
32-10,214809624,-21
32-11,214813530,-89
32-12,214817436,-90
32-13,214821342,-41
32-14,214825248,-45
32-15,214829154,-103
32-16,214833060,-120
32-17,214836966,-58
32-18,214840872,-2
32-19,214844778,-29
32-20,214848684,-69
32-21,214852590,-26
32-22,214856496,27
32-23,214860402,-8
32-24,214864308,-60
32-25,214868214,-47
32-26,214872120,-6
32-27,214876026,-30
32-28,214879932,-66
32-29,214883838,-21
32-30,214887744,16
32-31,214891650,-10
32-32,214895556,-43
32-1,214899468,-54
32-2,214903374,1
32-3,214907280,49
32-4,214911186,3
32-5,214915092,-42
32-6,214918998,-11
32-7,214922904,36
32-8,214926810,19
32-9,214930716,-49
32-10,214934622,-63
32-11,214938528,5
32-12,214942434,28
32-13,214946340,-28
32-14,214950246,-40
32-15,214954152,-1
32-16,214958058,-8
32-17,214961964,-51
32-18,214965870,-63
32-19,214969776,-28
32-20,214973682,1
32-21,214977588,-46
32-22,214981494,-96
32-23,214985400,-62
32-24,214989306,-24
32-25,214993212,-61
32-26,214997118,-118
32-27,215001024,-130
32-28,215004930,-42
32-29,215008836,28
32-30,215012742,-73
32-31,215016648,-167
32-32,215020554,-106
32-1,215024465,-61
32-2,215028371,-97
32-3,215032277,-108
32-4,215036183,-70
32-5,215040089,-28
32-6,215043995,-47
32-7,215047901,-88
32-8,215051807,-64
32-9,215055713,-14
32-10,215059619,-29
32-11,215063525,-84
32-12,215067431,-84
32-13,215071337,-27
32-14,215075243,-8
32-15,215079149,-61
32-16,215083055,-91
32-17,215086961,-35
32-18,215090867,-1
32-19,215094773,-45
32-20,215098679,-66
32-21,215102585,-8
32-22,215106491,47
32-23,215110397,10
32-24,215114303,-56
32-25,215118209,-32
32-26,215122115,43
32-27,215126021,22
32-28,215129927,-50
32-29,215133833,-29
32-30,215137739,-6
32-31,215141645,-40
32-32,215145551,-64
32-1,215149463,-66
32-2,215153369,-32
32-3,215157275,-2
32-4,215161181,-25
32-5,215165087,-33
32-6,215168993,12
32-7,215172899,49
32-8,215176805,24
32-9,215180711,-31
32-10,215184617,-43
32-11,215188523,-22
32-12,215192429,-43
32-13,215196335,-89
32-14,215200241,-72
32-15,215204147,-17
32-16,215208053,-23
32-17,215211959,-90
32-18,215215865,-115
32-19,215219771,-68
32-20,215223677,-25
32-21,215227583,-42
32-22,215231489,-74
32-23,215235395,-45
32-24,215239301,7
32-25,215243207,-9
32-26,215247113,-61
32-27,215251019,-54
32-28,215254925,25
32-29,215258831,49
32-30,215262737,-51
32-31,215266643,-115
32-32,215270549,-55
32-1,215274461,-11
32-2,215278367,-56
32-3,215282273,-97
32-4,215286179,-51
32-5,215290085,16
32-6,215293991,4
32-7,215297897,-32
32-8,215301803,-14
32-9,215305709,7
32-10,215309615,-24
32-11,215313521,-71
32-12,215317427,-62
32-13,215321333,19
32-14,215325239,39
32-15,215329145,-58
32-16,215333051,-96
32-17,215336957,-25
32-18,215340863,-8
32-19,215344769,-75
32-20,215348675,-106
32-21,215352581,-58
32-22,215356487,-16
32-23,215360393,-38
32-24,215364299,-58
32-25,215368205,-14
32-26,215372111,51
32-27,215376017,35
32-28,215379923,-22
32-29,215383829,-4
32-30,215387735,20
32-31,215391641,-23
32-32,215395547,-75
32-1,215399458,-78
32-2,215403364,0
32-3,215407270,71
32-4,215411176,31
32-5,215415082,-25
32-6,215418988,7
32-7,215422894,58
32-8,215426800,27
32-9,215430706,-25
32-10,215434612,-5
32-11,215438518,37
32-12,215442424,11
32-13,215446330,-51
32-14,215450236,-51
32-15,215454142,11
32-16,215458048,22
32-17,215461954,-57
32-18,215465860,-89
32-19,215469766,-38
32-20,215473672,-36
32-21,215477578,-99
32-22,215481484,-109
32-23,215485390,-40
32-24,215489296,18
32-25,215493202,-13
32-26,215497108,-60
32-27,215501014,-49
32-28,215504920,32
32-29,215508826,104
32-30,215512732,35
32-31,215516638,-44
32-32,215520544,23
32-1,215524456,61
32-2,215528362,6
32-3,215532268,-15
32-4,215536174,21
32-5,215540080,40
32-6,215543986,2
32-7,215547892,-23
32-8,215551798,7
32-9,215555704,32
32-10,215559610,31
32-11,215563516,-6
32-12,215567422,-34
32-13,215571328,0
32-14,215575234,5
32-15,215579140,-51
32-16,215583046,-59
32-17,215586952,7
32-18,215590858,63
32-19,215594764,43
32-20,215598670,-6
32-21,215602576,-4
32-22,215606482,16
32-23,215610388,-10
32-24,215614294,-63
32-25,215618200,-53
32-26,215622106,7
32-27,215626012,-11
32-28,215629918,-58
32-29,215633824,-27
32-30,215637730,16
32-31,215641636,3
32-32,215645542,-35
32-1,215649454,-42
32-2,215653360,-5
32-3,215657266,22
32-4,215661172,-9
32-5,215665078,-54
32-6,215668984,-40
32-7,215672890,-2
32-8,215676796,-25
32-9,215680702,-85
32-10,215684608,-87
32-11,215688514,-32
32-12,215692420,-20
32-13,215696326,-69
32-14,215700232,-69
32-15,215704138,22
32-16,215708044,60
32-17,215711950,-21
32-18,215715856,-60
32-19,215719762,-3
32-20,215723668,26
32-21,215727574,-15
32-22,215731480,-69
32-23,215735386,-43
32-24,215739292,13
32-25,215743198,-29
32-26,215747104,-91
32-27,215751010,-85
32-28,215754916,-35
32-29,215758822,-20
32-30,215762728,-99
32-31,215766634,-135
32-32,215770540,-57
32-1,215774451,-7
32-2,215778357,-45
32-3,215782263,-76
32-4,215786169,-9
32-5,215790075,56
32-6,215793981,14
32-7,215797887,-44
32-8,215801793,-39
32-9,215805699,-9
32-10,215809605,-24
32-11,215813511,-65
32-12,215817417,-56
32-13,215821323,-27
32-14,215825229,-47
32-15,215829135,-100
32-16,215833041,-113
32-17,215836947,-75
32-18,215840853,-53
32-19,215844759,-83
32-20,215848665,-99
32-21,215852571,-59
32-22,215856477,-20
32-23,215860383,-38
32-24,215864289,-73
32-25,215868195,-51
32-26,215872101,18
32-27,215876007,12
32-28,215879913,-39
32-29,215883819,-5
32-30,215887725,28
32-31,215891631,-15
32-32,215895537,-71
32-1,215899449,-79
32-2,215903355,-23
32-3,215907261,15
32-4,215911167,-9
32-5,215915073,-23
32-6,215918979,-3
32-7,215922885,17
32-8,215926791,-6
32-9,215930697,-68
32-10,215934603,-71
32-11,215938509,-20
32-12,215942415,-26
32-13,215946321,-93
32-14,215950227,-100
32-15,215954133,-19
32-16,215958039,16
32-17,215961945,-40
32-18,215965851,-68
32-19,215969757,-14
32-20,215973663,47
32-21,215977569,20
32-22,215981475,-40
32-23,215985381,-13
32-24,215989287,30
32-25,215993193,-10
32-26,215997099,-66
32-27,216001005,-66
32-28,216004911,-7
32-29,216008817,47
32-30,216012723,-16
32-31,216016629,-82
32-32,216020535,-26
32-1,216024446,-7
32-2,216028352,-86
32-3,216032258,-114
32-4,216036164,-78
32-5,216040070,-57
32-6,216043976,-66
32-7,216047882,-71
32-8,216051788,-39
32-9,216055694,27
32-10,216059600,46
32-11,216063506,-2
32-12,216067412,-8
32-13,216071318,45
32-14,216075224,53
32-15,216079130,3
32-16,216083036,-4
32-17,216086942,52
32-18,216090848,69
32-19,216094754,24
32-20,216098660,2
32-21,216102566,17
32-22,216106472,14
32-23,216110378,-27
32-24,216114284,-77
32-25,216118190,-73
32-26,216122096,8
32-27,216126002,33
32-28,216129908,-11
32-29,216133814,15
32-30,216137720,50
32-31,216141626,7
32-32,216145532,-48
32-1,216149444,-66
32-2,216153350,-34
32-3,216157256,-10
32-4,216161162,-20
32-5,216165068,-17
32-6,216168974,21
32-7,216172880,48
32-8,216176786,-17
32-9,216180692,-106
32-10,216184598,-92
32-11,216188504,-35
32-12,216192410,-41
32-13,216196316,-78
32-14,216200222,-59
32-15,216204128,21
32-16,216208034,60
32-17,216211940,5
32-18,216215846,-39
32-19,216219752,-9
32-20,216223658,15
32-21,216227564,-6
32-22,216231470,-10
32-23,216235376,25
32-24,216239282,36
32-25,216243188,-17
32-26,216247094,-66
32-27,216251000,-64
32-28,216254906,-17
32-29,216258812,24
32-30,216262718,-30
32-31,216266624,-89
32-32,216270530,-37
32-1,216274411,-13
32-2,216278317,-72
32-3,216282223,-73
32-4,216286129,-2
32-5,216290035,26
32-6,216293941,-40
32-7,216297847,-87
32-8,216301753,-45
32-9,216305659,-7
32-10,216309565,-17
32-11,216313471,-39
32-12,216317377,-38
32-13,216321283,6
32-14,216325189,12
32-15,216329095,-46
32-16,216333001,-56
32-17,216336907,-14
32-18,216340813,-10
32-19,216344719,-61
32-20,216348625,-85
32-21,216352531,-40
32-22,216356437,-10
32-23,216360343,-27
32-24,216364249,-46
32-25,216368155,-25
32-26,216372061,22
32-27,216375967,-19
32-28,216379873,-84
32-29,216383779,-36
32-30,216387685,27
32-31,216391591,25
32-32,216395497,-10
32-1,216399439,-32
32-2,216403345,16
32-3,216407251,36
32-4,216411157,-26
32-5,216415063,-55
32-6,216418969,-15
32-7,216422875,24
32-8,216426781,6
32-9,216430687,-34
32-10,216434593,-29
32-11,216438499,19
32-12,216442405,35
32-13,216446311,1
32-14,216450217,1
32-15,216454123,53
32-16,216458029,48
32-17,216461935,-17
32-18,216465841,-27
32-19,216469747,26
32-20,216473653,37
32-21,216477559,-37
32-22,216481465,-107
32-23,216485371,-74
32-24,216489277,-20
32-25,216493183,-53
32-26,216497089,-87
32-27,216500995,-50
32-28,216504901,26
32-29,216508807,60
32-30,216512713,-19
32-31,216516619,-97
32-32,216520525,-59
32-1,216524437,-36
32-2,216528343,-89
32-3,216532249,-101
32-4,216536155,-28
32-5,216540061,34
32-6,216543967,8
32-7,216547873,-39
32-8,216551779,-7
32-9,216555685,45
32-10,216559591,20
32-11,216563497,-34
32-12,216567403,-22
32-13,216571309,21
32-14,216575215,-9
32-15,216579121,-84
32-16,216583027,-97
32-17,216586933,-50
32-18,216590839,-25
32-19,216594745,-67
32-20,216598651,-115
32-21,216602557,-86
32-22,216606463,-36
32-23,216610369,-46
32-24,216614275,-75
32-25,216618181,-47
32-26,216622087,4
32-27,216625993,-28
32-28,216629899,-79
32-29,216633805,-34
32-30,216637711,4
32-31,216641617,-44
32-32,216645523,-102
32-1,216649435,-119
32-2,216653341,-65
32-3,216657247,-29
32-4,216661153,-77
32-5,216665059,-89
32-6,216668965,-35
32-7,216672871,-25
32-8,216676777,-65
32-9,216680683,-92
32-10,216684589,-57
32-11,216688495,4
32-12,216692401,-7
32-13,216696307,-67
32-14,216700213,-56
32-15,216704119,1
32-16,216708025,5
32-17,216711931,-39
32-18,216715837,-60
32-19,216719743,-23
32-20,216723649,22
32-21,216727555,-3
32-22,216731461,-55
32-23,216735367,-27
32-24,216739273,31
32-25,216743179,15
32-26,216747085,-33
32-27,216750991,-26
32-28,216754897,59
32-29,216758803,112
32-30,216762709,34
32-31,216766615,-28
32-32,216770521,24
32-1,216774432,30
32-2,216778338,-61
32-3,216782244,-108
32-4,216786150,-67
32-5,216790056,-33
32-6,216793962,-60
32-7,216797868,-87
32-8,216801774,-41
32-9,216805680,31
32-10,216809586,28
32-11,216813492,-40
32-12,216817398,-51
32-13,216821304,4
32-14,216825210,8
32-15,216829116,-72
32-16,216833022,-100
32-17,216836928,-22
32-18,216840834,15
32-19,216844740,-43
32-20,216848646,-74
32-21,216852552,-34
32-22,216856458,-11
32-23,216860364,-57
32-24,216864270,-94
32-25,216868176,-59
32-26,216872082,0
32-27,216875988,-12
32-28,216879894,-53
32-29,216883800,4
32-30,216887706,78
32-31,216891612,43
32-32,216895518,-36
32-1,216899460,-58
32-2,216903366,1
32-3,216907272,46
32-4,216911178,-3
32-5,216915084,-60
32-6,216918990,-40
32-7,216922896,-5
32-8,216926802,-48
32-9,216930708,-101
32-10,216934614,-74
32-11,216938520,-27
32-12,216942426,-49
32-13,216946332,-107
32-14,216950238,-112
32-15,216954144,-70
32-16,216958050,-67
32-17,216961956,-110
32-18,216965862,-132
32-19,216969768,-104
32-20,216973674,-92
32-21,216977580,-131
32-22,216981486,-152
32-23,216985392,-94
32-24,216989298,-32
32-25,216993204,-51
32-26,216997110,-79
32-27,217001016,-59
32-28,217004922,5
32-29,217008828,44
32-30,217012734,-43
32-31,217016640,-120
32-32,217020546,-62
32-1,217024428,-31
32-2,217028334,-78
32-3,217032240,-94
32-4,217036146,-53
32-5,217040052,-19
32-6,217043958,-57
32-7,217047864,-103
32-8,217051770,-55
32-9,217055676,9
32-10,217059582,-39
32-11,217063488,-112
32-12,217067394,-72
32-13,217071300,-18
32-14,217075206,-54
32-15,217079112,-111
32-16,217083018,-127
32-17,217086924,-107
32-18,217090830,-100
32-19,217094736,-127
32-20,217098642,-113
32-21,217102548,-38
32-22,217106454,-6
32-23,217110360,-60
32-24,217114266,-108
32-25,217118172,-71
32-26,217122078,-1
32-27,217125984,-7
32-28,217129890,-39
32-29,217133796,-14
32-30,217137702,16
32-31,217141608,1
32-32,217145514,-57
32-1,217149425,-98
32-2,217153331,-27
32-3,217157237,28
32-4,217161143,-26
32-5,217165049,-55
32-6,217168955,-21
32-7,217172861,11
32-8,217176767,-11
32-9,217180673,-60
32-10,217184579,-39
32-11,217188485,14
32-12,217192391,-15
32-13,217196297,-90
32-14,217200203,-95
32-15,217204109,-38
32-16,217208015,-30
32-17,217211921,-92
32-18,217215827,-116
32-19,217219733,-56
32-20,217223639,-20
32-21,217227545,-65
32-22,217231451,-84
32-23,217235357,-22
32-24,217239263,21
32-25,217243169,-4
32-26,217247075,-24
32-27,217250981,-24
32-28,217254887,3
32-29,217258793,20
32-30,217262699,-60
32-31,217266605,-110
32-32,217270511,-51
32-1,217274423,-39
32-2,217278329,-88
32-3,217282235,-98
32-4,217286141,-66
32-5,217290047,-52
32-6,217293953,-88
32-7,217297859,-106
32-8,217301765,-62
32-9,217305671,-27
32-10,217309577,-48
32-11,217313483,-76
32-12,217317389,-52
32-13,217321295,-9
32-14,217325201,-24
32-15,217329107,-82
32-16,217333013,-98
32-17,217336919,-73
32-18,217340825,-86
32-19,217344731,-143
32-20,217348637,-156
32-21,217352543,-87
32-22,217356449,-48
32-23,217360355,-105
32-24,217364261,-146
32-25,217368167,-102
32-26,217372073,-41
32-27,217375979,-51
32-28,217379885,-77
32-29,217383791,-40
32-30,217387697,-27
32-31,217391603,-73
32-32,217395509,-104
32-1,217399420,-93
32-2,217403326,-41
32-3,217407232,-6
32-4,217411138,-43
32-5,217415044,-71
32-6,217418950,-41
32-7,217422856,-29
32-8,217426762,-70
32-9,217430668,-90
32-10,217434574,-49
32-11,217438480,12
32-12,217442386,13
32-13,217446292,-21
32-14,217450198,-8
32-15,217454104,57
32-16,217458010,80
32-17,217461916,22
32-18,217465822,8
32-19,217469728,83
32-20,217473634,92
32-21,217477540,31
32-22,217481446,4
32-23,217485352,31
32-24,217489258,40
32-25,217493164,-27
32-26,217497070,-70
32-27,217500976,-43
32-28,217504882,-2
32-29,217508788,17
32-30,217512694,-40
32-31,217516600,-102
32-32,217520506,-66
32-1,217524754,-45
32-2,217528660,-95
32-3,217532566,-114
32-4,217536472,-76
32-5,217540378,-67
32-6,217544284,-116
32-7,217548190,-149
32-8,217552096,-108
32-9,217556002,-54
32-10,217559908,-81
32-11,217563814,-130
32-12,217567720,-106
32-13,217571626,-56
32-14,217575532,-60
32-15,217579438,-100
32-16,217583344,-96
32-17,217587250,-31
32-18,217591156,-13
32-19,217595062,-77
32-20,217598968,-103
32-21,217602874,-52
32-22,217606780,-25
32-23,217610686,-63
32-24,217614592,-96
32-25,217618498,-47
32-26,217622404,29
32-27,217626310,1
32-28,217630216,-51
32-29,217634122,-5
32-30,217638028,34
32-31,217641934,-1
32-32,217645840,-39
32-1,217649416,-29
32-2,217653322,25
32-3,217657228,44
32-4,217661134,7
32-5,217665040,-4
32-6,217668946,40
32-7,217672852,54
32-8,217676758,-1
32-9,217680664,-36
32-10,217684570,-5
32-11,217688476,14
32-12,217692382,-49
32-13,217696288,-96
32-14,217700194,-36
32-15,217704100,36
32-16,217708006,30
32-17,217711912,-26
32-18,217715818,-34
32-19,217719724,40
32-20,217723630,73
32-21,217727536,2
32-22,217731442,-57
32-23,217735348,-40
32-24,217739254,-12
32-25,217743160,-40
32-26,217747066,-64
32-27,217750972,-49
32-28,217754878,5
32-29,217758784,59
32-30,217762690,-6
32-31,217766596,-102
32-32,217770502,-68
32-1,217774413,-37
32-2,217778319,-92
32-3,217782225,-122
32-4,217786131,-76
32-5,217790037,-18
32-6,217793943,-37
32-7,217797849,-83
32-8,217801755,-33
32-9,217805661,43
32-10,217809567,7
32-11,217813473,-46
32-12,217817379,-2
32-13,217821285,46
32-14,217825191,21
32-15,217829097,-27
32-16,217833003,-21
32-17,217836909,41
32-18,217840815,59
32-19,217844721,21
32-20,217848627,3
32-21,217852533,30
32-22,217856439,33
32-23,217860345,-38
32-24,217864251,-81
32-25,217868157,-24
32-26,217872063,21
32-27,217875969,-22
32-28,217879875,-49
32-29,217883781,2
32-30,217887687,26
32-31,217891593,-26
32-32,217895499,-79
32-1,217899411,-66
32-2,217903317,-1
32-3,217907223,12
32-4,217911129,-55
32-5,217915035,-100
32-6,217918941,-72
32-7,217922847,-21
32-8,217926753,-36
32-9,217930659,-78
32-10,217934565,-39
32-11,217938471,20
32-12,217942377,0
32-13,217946283,-51
32-14,217950189,-52
32-15,217954095,-3
32-16,217958001,13
32-17,217961907,-39
32-18,217965813,-54
32-19,217969719,-2
32-20,217973625,-4
32-21,217977531,-80
32-22,217981437,-106
32-23,217985343,-54
32-24,217989249,-22
32-25,217993155,-68
32-26,217997061,-106
32-27,218000967,-60
32-28,218004873,15
32-29,218008779,37
32-30,218012685,-20
32-31,218016591,-41
32-32,218020497,39
32-1,218024409,52
32-2,218028315,-25
32-3,218032221,-17
32-4,218036127,77
32-5,218040033,100
32-6,218043939,21
32-7,218047845,-40
32-8,218051751,-13
32-9,218055657,35
32-10,218059563,14
32-11,218063469,-52
32-12,218067375,-66
32-13,218071281,-6
32-14,218075187,12
32-15,218079093,-46
32-16,218082999,-47
32-17,218086905,10
32-18,218090811,-2
32-19,218094717,-64
32-20,218098623,-85
32-21,218102529,-36
32-22,218106435,2
32-23,218110341,-40
32-24,218114247,-95
32-25,218118153,-77
32-26,218122059,-14
32-27,218125965,-13
32-28,218129871,-47
32-29,218133777,-11
32-30,218137683,35
32-31,218141589,6
32-32,218145495,-56
32-1,218149528,-68
32-2,218153434,-5
32-3,218157340,22
32-4,218161246,-43
32-5,218165152,-86
32-6,218169058,-38
32-7,218172964,32
32-8,218176870,18
32-9,218180776,-45
32-10,218184682,-35
32-11,218188588,31
32-12,218192494,31
32-13,218196400,-22
32-14,218200306,-28
32-15,218204212,10
32-16,218208118,19
32-17,218212024,-34
32-18,218215930,-73
32-19,218219836,-23
32-20,218223742,8
32-21,218227648,-49
32-22,218231554,-87
32-23,218235460,-42
32-24,218239366,-1
32-25,218243272,-12
32-26,218247178,-34
32-27,218251084,-57
32-28,218254990,-32
32-29,218258896,8
32-30,218262802,-62
32-31,218266708,-113
32-32,218270614,-40
32-1,218274434,-22
32-2,218278340,-93
32-3,218282246,-108
32-4,218286152,-48
32-5,218290058,-30
32-6,218293964,-84
32-7,218297870,-129
32-8,218301776,-107
32-9,218305682,-54
32-10,218309588,-68
32-11,218313494,-116
32-12,218317400,-96
32-13,218321306,-48
32-14,218325212,-49
32-15,218329118,-91
32-16,218333024,-98
32-17,218336930,-39
32-18,218340836,-10
32-19,218344742,-52
32-20,218348648,-81
32-21,218352554,-27
32-22,218356460,33
32-23,218360366,-1
32-24,218364272,-47
32-25,218368178,-2
32-26,218372084,54
32-27,218375990,4
32-28,218379896,-38
32-29,218383802,45
32-30,218387708,96
32-31,218391614,37
32-32,218395520,-27
32-1,218399401,-36
32-2,218403307,17
32-3,218407213,64
32-4,218411119,29
32-5,218415025,-14
32-6,218418931,19
32-7,218422837,59
32-8,218426743,21
32-9,218430649,-22
32-10,218434555,13
32-11,218438461,55
32-12,218442367,9
32-13,218446273,-91
32-14,218450179,-95
32-15,218454085,-11
32-16,218457991,4
32-17,218461897,-53
32-18,218465803,-57
32-19,218469709,-7
32-20,218473615,5
32-21,218477521,-38
32-22,218481427,-66
32-23,218485333,-23
32-24,218489239,16
32-25,218493145,-13
32-26,218497051,-34
32-27,218500957,-26
32-28,218504863,33
32-29,218508769,109
32-30,218512675,40
32-31,218516581,-42
32-32,218520487,25
32-1,218524399,45
32-2,218528305,-20
