32-1,255995491,9116
32-2,255999397,21863
32-3,256003303,20515
32-4,256007209,23028
32-5,256011115,-3599
32-6,256015021,-32768
32-7,256018927,-18996
32-8,256022833,16540
32-9,256026739,23107
32-10,256030645,17962
32-11,256034551,23595
32-12,256038457,18485
32-13,256042363,-16204
32-14,256046269,-32768
32-15,256050175,-17115
32-16,256054081,15613
32-17,256057987,22058
32-18,256061893,18373
32-19,256065799,23868
32-20,256069705,9828
32-21,256073611,-28051
32-22,256077517,-32768
32-23,256081423,-4246
32-24,256085329,21185
32-25,256089235,19963
32-26,256093141,19548
32-27,256097047,22458
32-28,256100953,-1921
32-29,256104859,-32768
32-30,256108765,-32176
32-31,256112671,1669
32-32,256116577,22391
32-1,256120489,19661
32-2,256124395,22382
32-3,256128301,18217
32-4,256132207,-13785
32-5,256136113,-32768
32-6,256140019,-28964
32-7,256143925,2442
32-8,256147831,21859
32-9,256151737,19985
32-10,256155643,23723
32-11,256159549,12142
32-12,256163455,-27592
32-13,256167361,-32344
32-14,256171267,4327
32-15,256175173,23761
32-16,256179079,19115
32-17,256182985,20201
32-18,256186891,24425
32-19,256190797,-231
32-20,256194703,-32768
32-21,256198609,-26417
32-22,256202515,10336
32-23,256206421,23598
32-24,256210327,17852
32-25,256214233,22773
32-26,256218139,19258
32-27,256222045,-12407
32-28,256225951,-32768
32-29,256229857,-32359
32-30,256233763,-7769
32-31,256237669,17108
32-32,256241575,21583
32-1,256245486,22596
32-2,256249392,12156
32-3,256253298,-23202
32-4,256257204,-32487
32-5,256261110,-15396
32-6,256265016,15761
32-7,256268922,22479
32-8,256272828,19650
32-9,256276734,24685
32-10,256280640,1846
32-11,256284546,-32768
32-12,256288452,-22770
32-13,256292358,14004
32-14,256296264,23540
32-15,256300170,18078
32-16,256304076,22721
32-17,256307982,19777
32-18,256311888,-11170
32-19,256315794,-32768
32-20,256319700,-26230
32-21,256323606,6887
32-22,256327512,22028
32-23,256331418,18615
32-24,256335324,23466
32-25,256339230,14161
32-26,256343136,-25900
32-27,256347042,-32768
32-28,256350948,3415
32-29,256354854,21219
32-30,256358760,15649
32-31,256362666,20173
32-32,256366572,24610
32-1,256370636,1543
32-2,256374542,-30379
32-3,256378448,-32768
32-4,256382354,-18350
32-5,256386260,11435
32-6,256390166,21430
32-7,256394072,20911
32-8,256397978,20635
32-9,256401884,-9609
32-10,256405790,-32768
32-11,256409696,-17860
32-12,256413602,16354
32-13,256417508,22828
32-14,256421414,18360
32-15,256425320,23752
32-16,256429226,14436
32-17,256433132,-22091
32-18,256437038,-32768
32-19,256440944,-11515
32-20,256444850,18136
32-21,256448756,21108
32-22,256452662,19052
32-23,256456568,23827
32-24,256460474,4015
32-25,256464380,-32559
32-26,256468286,-32768
32-27,256472192,2019
32-28,256476098,22588
32-29,256480004,15345
32-30,256483910,17201
32-31,256487816,20779
32-32,256491722,-7745
32-1,256495482,-32768
32-2,256499388,-31948
32-3,256503294,-1604
32-4,256507200,20463
32-5,256511106,19977
32-6,256515012,22410
32-7,256518918,16071
32-8,256522824,-20505
32-9,256526730,-32672
32-10,256530636,-11445
32-11,256534542,18835
32-12,256538448,21641
32-13,256542354,18735
32-14,256546260,23982
32-15,256550166,5714
32-16,256554072,-31610
32-17,256557978,-32768
32-18,256561884,384
32-19,256565790,22338
32-20,256569696,19655
32-21,256573602,20612
32-22,256577508,21977
32-23,256581414,-6903
32-24,256585320,-32768
32-25,256589226,-24085
32-26,256593132,10533
32-27,256597038,23210
32-28,256600944,19603
32-29,256604850,20148
32-30,256608756,11665
32-31,256612662,-18456
32-32,256616568,-32768
32-1,256620571,-21523
32-2,256624477,12049
32-3,256628383,22434
32-4,256632289,19315
32-5,256636195,24174
32-6,256640101,7790
32-7,256644007,-30224
32-8,256647913,-32768
32-9,256651819,-2122
32-10,256655725,21524
32-11,256659631,19781
32-12,256663537,20340
32-13,256667443,22691
32-14,256671349,-5098
32-15,256675255,-32768
32-16,256679161,-25982
32-17,256683067,9434
32-18,256686973,23047
32-19,256690879,18157
32-20,256694785,22299
32-21,256698691,17354
32-22,256702597,-17991
32-23,256706503,-32768
32-24,256710409,-14594
32-25,256714315,17191
32-26,256718221,21550
32-27,256722127,19072
32-28,256726033,23983
32-29,256729939,6467
32-30,256733845,-29113
32-31,256737751,-32768
32-32,256741657,-12084
32-1,256745477,16980
32-2,256749383,21383
32-3,256753289,20302
32-4,256757195,22933
32-5,256761101,-3016
32-6,256765007,-32768
32-7,256768913,-27959
32-8,256772819,6930
32-9,256776725,22635
32-10,256780631,18715
32-11,256784537,22713
32-12,256788443,18520
32-13,256792349,-16401
32-14,256796255,-32768
32-15,256800161,-16753
32-16,256804067,15865
32-17,256807973,21981
32-18,256811879,18231
32-19,256815785,23915
32-20,256819691,9802
32-21,256823597,-28112
32-22,256827503,-32768
32-23,256831409,-4620
32-24,256835315,21106
32-25,256839221,20176
32-26,256843127,19875
32-27,256847033,22824
32-28,256850939,-1831
32-29,256854845,-32768
32-30,256858751,-32166
32-31,256862657,1970
32-32,256866563,22893
32-1,256870474,20164
32-2,256874380,22890
32-3,256878286,18431
32-4,256882192,-14041
32-5,256886098,-32768
32-6,256890004,-28725
32-7,256893910,2818
32-8,256897816,22105
32-9,256901722,20197
32-10,256905628,23894
32-11,256909534,11832
32-12,256913440,-27897
32-13,256917346,-32372
32-14,256921252,4178
32-15,256925158,23535
32-16,256929064,18778
32-17,256932970,20237
32-18,256936876,23953
32-19,256940782,-423
32-20,256944688,-32768
32-21,256948594,-30881
32-22,256952500,3404
32-23,256956406,22349
32-24,256960312,18965
32-25,256964218,22487
32-26,256968124,19628
32-27,256972030,-12861
32-28,256975936,-32768
32-29,256979842,-27552
32-30,256983748,159
32-31,256987654,19544
32-32,256991560,20765
32-1,256995472,23103
32-2,256999378,11374
32-3,257003284,-22575
32-4,257007190,-32672
32-5,257011096,-24418
32-6,257015002,6490
32-7,257018908,21975
32-8,257022814,20257
32-9,257026720,23606
32-10,257030626,1690
32-11,257034532,-32768
32-12,257038438,-22954
32-13,257042344,13928
32-14,257046250,23599
32-15,257050156,18097
32-16,257054062,22499
32-17,257057968,21202
32-18,257061874,-11531
32-19,257065780,-32768
32-20,257069686,-15897
32-21,257073592,17643
32-22,257077498,22371
32-23,257081404,17863
32-24,257085310,24069
32-25,257089216,14217
32-26,257093122,-24483
32-27,257097028,-32768
32-28,257100934,-3675
32-29,257104840,18863
32-30,257108746,16107
32-31,257112652,19271
32-32,257116558,24174
32-1,257120470,2340
32-2,257124376,-30799
32-3,257128282,-32768
32-4,257132188,-13180
32-5,257136094,16191
32-6,257140000,21236
32-7,257143906,20395
32-8,257147812,21518
32-9,257151718,-9872
32-10,257155624,-32768
32-11,257159530,-14055
32-12,257163436,18793
32-13,257167342,22050
32-14,257171248,18053
32-15,257175154,23703
32-16,257179060,13868
32-17,257182966,-21056
32-18,257186872,-32768
32-19,257190778,-17784
32-20,257194684,13683
32-21,257198590,21752
32-22,257202496,19017
32-23,257206402,24413
32-24,257210308,4448
32-25,257214214,-32768
32-26,257218120,-25557
32-27,257222026,12430
32-28,257225932,24101
32-29,257229838,14622
32-30,257233744,18690
32-31,257237650,21383
32-32,257241556,-6777
32-1,257245467,-32768
32-2,257249373,-32359
32-3,257253279,-2819
32-4,257257185,20438
32-5,257261091,19927
32-6,257264997,22381
32-7,257268903,16859
32-8,257272809,-21436
32-9,257276715,-32649
32-10,257280621,-2250
32-11,257284527,22832
32-12,257288433,20199
32-13,257292339,18947
32-14,257296245,24036
32-15,257300151,5905
32-16,257304057,-30648
32-17,257307963,-32768
32-18,257311869,-2915
32-19,257315775,21471
32-20,257319681,19826
32-21,257323587,19879
32-22,257327493,22483
32-23,257331399,-7561
32-24,257335305,-32768
32-25,257339211,-16216
32-26,257343117,17066
32-27,257347023,22047
32-28,257350929,18167
32-29,257354835,20836
32-30,257358741,11083
32-31,257362647,-17804
32-32,257366553,-32768
32-1,257370556,-29848
32-2,257374462,-405
32-3,257378368,19913
32-4,257382274,20232
32-5,257386180,22842
32-6,257390086,7599
32-7,257393992,-30599
32-8,257397898,-32483
32-9,257401804,2924
32-10,257405710,23162
32-11,257409616,19034
32-12,257413522,20285
32-13,257417428,22556
32-14,257421334,-4684
32-15,257425240,-32768
32-16,257429146,-27169
32-17,257433052,7607
32-18,257436958,22744
32-19,257440864,18551
32-20,257444770,22388
32-21,257448676,17797
32-22,257452582,-18220
32-23,257456488,-32768
32-24,257460394,-10817
32-25,257464300,19791
32-26,257468206,21141
32-27,257472112,18704
32-28,257476018,23852
32-29,257479924,6300
32-30,257483830,-28461
32-31,257487736,-32768
32-32,257491642,-14915
32-1,257495463,14741
32-2,257499369,21230
32-3,257503275,19996
32-4,257507181,22296
32-5,257511087,-3004
32-6,257514993,-32768
32-7,257518899,-28722
32-8,257522805,5517
32-9,257526711,22157
32-10,257530617,18771
32-11,257534523,22445
32-12,257538429,18578
32-13,257542335,-16042
32-14,257546241,-32768
32-15,257550147,-16928
32-16,257554053,15532
32-17,257557959,21568
32-18,257561865,17847
32-19,257565771,23698
32-20,257569677,10031
32-21,257573583,-27737
32-22,257577489,-32768
32-23,257581395,-4927
32-24,257585301,20815
32-25,257589207,19898
32-26,257593113,19473
32-27,257597019,22594
32-28,257600925,-1605
32-29,257604831,-32768
32-30,257608737,-32359
32-31,257612643,1207
32-32,257616549,22273
32-1,257620460,19693
32-2,257624366,22148
32-3,257628272,18579
32-4,257632178,-14009
32-5,257636084,-32768
32-6,257639990,-25314
32-7,257643896,7799
32-8,257647802,22284
32-9,257651708,19321
32-10,257655614,23445
32-11,257659520,11280
32-12,257663426,-26278
32-13,257667332,-32768
32-14,257671238,-7861
32-15,257675144,19326
32-16,257679050,20367
32-17,257682956,19597
32-18,257686862,23597
32-19,257690768,-388
32-20,257694674,-32768
32-21,257698580,-30013
32-22,257702486,4969
32-23,257706392,22696
32-24,257710298,18482
32-25,257714204,22244
32-26,257718110,19431
32-27,257722016,-12803
32-28,257725922,-32768
32-29,257729828,-28085
32-30,257733734,-561
32-31,257737640,19331
32-32,257741546,20733
32-1,257745458,22869
32-2,257749364,11670
32-3,257753270,-22939
32-4,257757176,-32649
32-5,257761082,-20586
32-6,257764988,11462
32-7,257768894,22717
32-8,257772800,19852
32-9,257776706,24137
32-10,257780612,1900
32-11,257784518,-32768
32-12,257788424,-23674
32-13,257792330,13346
32-14,257796236,23765
32-15,257800142,18193
32-16,257804048,22611
32-17,257807954,20529
32-18,257811860,-11296
32-19,257815766,-32768
32-20,257819672,-22142
32-21,257823578,11858
32-22,257827484,22261
32-23,257831390,18515
32-24,257835296,23873
32-25,257839202,13992
32-26,257843108,-24134
32-27,257847014,-32768
32-28,257850920,-8942
32-29,257854826,15504
32-30,257858732,15864
32-31,257862638,19353
32-32,257866544,24368
32-1,257870455,2002
32-2,257874361,-31408
32-3,257878267,-32768
32-4,257882173,-11506
32-5,257886079,17540
32-6,257889985,21330
32-7,257893891,20555
32-8,257897797,21798
32-9,257901703,-10033
32-10,257905609,-32768
32-11,257909515,-13614
32-12,257913421,19133
32-13,257917327,22246
32-14,257921233,18180
32-15,257925139,23962
32-16,257929045,14305
32-17,257932951,-21922
32-18,257936857,-32768
32-19,257940763,-12178
32-20,257944669,17834
32-21,257948575,21278
32-22,257952481,19173
32-23,257956387,23982
32-24,257960293,4388
32-25,257964199,-32309
32-26,257968105,-32768
32-27,257972011,1270
32-28,257975917,22560
32-29,257979823,15629
32-30,257983729,17286
32-31,257987635,21455
32-32,257991541,-6733
32-1,257995453,-32768
32-2,257999359,-32228
32-3,258003265,-1499
32-4,258007171,21230
32-5,258011077,20158
32-6,258014983,22706
32-7,258018889,17345
32-8,258022795,-21047
32-9,258026701,-32695
32-10,258030607,-2369
32-11,258034513,23043
32-12,258038419,20414
32-13,258042325,18718
32-14,258046231,24432
32-15,258050137,6236
32-16,258054043,-31515
32-17,258057949,-32452
32-18,258061855,3435
32-19,258065761,23017
32-20,258069667,19009
32-21,258073573,20480
32-22,258077479,22322
32-23,258081385,-6647
32-24,258085291,-32768
32-25,258089197,-21742
32-26,258093103,13106
32-27,258097009,22845
32-28,258100915,18612
32-29,258104821,20395
32-30,258108727,11837
32-31,258112633,-17513
32-32,258116539,-32768
32-1,258120573,-27205
32-2,258124479,4791
32-3,258128385,21564
32-4,258132291,19391
32-5,258136197,23709
32-6,258140103,8281
32-7,258144009,-30886
32-8,258147915,-29857
32-9,258151821,7353
32-10,258155727,23636
32-11,258159633,18364
32-12,258163539,20969
32-13,258167445,22372
32-14,258171351,-4281
32-15,258175257,-32768
32-16,258179163,-31236
32-17,258183069,1385
32-18,258186975,21824
32-19,258190881,19343
32-20,258194787,22182
32-21,258198693,18758
32-22,258202599,-18490
32-23,258206505,-32768
32-24,258210411,-4185
32-25,258214317,22588
32-26,258218223,20153
32-27,258222129,19245
32-28,258226035,24336
32-29,258229941,5927
32-30,258233847,-27679
32-31,258237753,-32768
32-32,258241659,-19728
32-1,258245448,11170
32-2,258249354,21910
32-3,258253260,20027
32-4,258257166,22958
32-5,258261072,-3002
32-6,258264978,-32768
32-7,258268884,-19977
32-8,258272790,15530
32-9,258276696,22647
32-10,258280602,17637
32-11,258284508,23182
32-12,258288414,17747
32-13,258292320,-15216
32-14,258296226,-32768
32-15,258300132,-23808
32-16,258304038,8861
32-17,258307944,21723
32-18,258311850,18525
32-19,258315756,23293
32-20,258319662,10623
32-21,258323568,-28124
32-22,258327474,-32750
32-23,258331380,-219
32-24,258335286,22715
32-25,258339192,19364
32-26,258343098,19705
32-27,258347004,22932
32-28,258350910,-1093
32-29,258354816,-32768
32-30,258358722,-32359
32-31,258362628,-432
32-32,258366534,21726
32-1,258370446,19819
32-2,258374352,22280
32-3,258378258,18066
32-4,258382164,-13939
32-5,258386070,-32768
32-6,258389976,-29748
32-7,258393882,214
32-8,258397788,20447
32-9,258401694,20056
32-10,258405600,22875
32-11,258409506,11588
32-12,258413412,-25998
32-13,258417318,-32604
32-14,258421224,-6589
32-15,258425130,20035
32-16,258429036,20343
32-17,258432942,19232
32-18,258436848,23733
32-19,258440754,-259
32-20,258444660,-32768
32-21,258448566,-26776
32-22,258452472,9754
32-23,258456378,23352
32-24,258460284,17698
32-25,258464190,22563
32-26,258468096,19782
32-27,258472002,-12402
32-28,258475908,-32768
32-29,258479814,-28448
32-30,258483720,-1510
32-31,258487626,18863
32-32,258491532,20824
32-1,258495444,22837
32-2,258499350,11883
32-3,258503256,-22647
32-4,258507162,-32634
32-5,258511068,-20828
32-6,258514974,10575
32-7,258518880,22166
32-8,258522786,19912
32-9,258526692,23045
32-10,258530598,2394
32-11,258534504,-32768
32-12,258538410,-31155
32-13,258542316,3625
32-14,258546222,22634
32-15,258550128,19277
32-16,258554034,21829
32-17,258557940,21025
32-18,258561846,-10949
32-19,258565752,-32768
32-20,258569658,-20720
32-21,258573564,13511
32-22,258577470,22729
32-23,258581376,18514
32-24,258585282,23790
32-25,258589188,13946
32-26,258593094,-24036
32-27,258597000,-32768
32-28,258600906,-8555
32-29,258604812,16064
32-30,258608718,16272
32-31,258612624,19067
32-32,258616530,24218
32-1,258620441,2508
32-2,258624347,-32240
32-3,258628253,-32768
32-4,258632159,-5446
32-5,258636065,20325
32-6,258639971,20226
32-7,258643877,20627
32-8,258647783,21292
32-9,258651689,-8868
32-10,258655595,-32768
32-11,258659501,-23831
32-12,258663407,10725
32-13,258667313,23084
32-14,258671219,19042
32-15,258675125,23551
32-16,258679031,15074
32-17,258682937,-21883
32-18,258686843,-32768
32-19,258690749,-11260
32-20,258694655,18520
32-21,258698561,21375
32-22,258702467,19171
32-23,258706373,24011
32-24,258710279,4442
32-25,258714185,-32275
32-26,258718091,-32768
32-27,258721997,1165
32-28,258725903,22343
32-29,258729809,15349
32-30,258733715,17257
32-31,258737621,20806
32-32,258741527,-7606
32-1,258745439,-32768
32-2,258749345,-32359
32-3,258753251,-7290
32-4,258757157,18426
32-5,258761063,20696
32-6,258764969,22583
32-7,258768875,16887
32-8,258772781,-21550
32-9,258776687,-32578
32-10,258780593,-735
32-11,258784499,23803
32-12,258788405,20296
32-13,258792311,19150
32-14,258796217,24549
32-15,258800123,6037
32-16,258804029,-30798
32-17,258807935,-32768
32-18,258811841,-2130
32-19,258815747,21478
32-20,258819653,19966
32-21,258823559,20610
32-22,258827465,21885
32-23,258831371,-6541
32-24,258835277,-32768
32-25,258839183,-26023
32-26,258843089,8210
32-27,258846995,22881
32-28,258850901,19617
32-29,258854807,20143
32-30,258858713,11595
32-31,258862619,-17859
32-32,258866525,-32768
32-1,258870589,-26297
32-2,258874495,6545
32-3,258878401,22412
32-4,258882307,19537
32-5,258886213,24178
32-6,258890119,8499
32-7,258894025,-31026
32-8,258897931,-29334
32-9,258901837,8442
32-10,258905743,24218
32-11,258909649,18480
32-12,258913555,20936
32-13,258917461,23012
32-14,258921367,-4185
32-15,258925273,-32768
32-16,258929179,-27318
32-17,258933085,8073
32-18,258936991,23204
32-19,258940897,18752
32-20,258944803,22486
32-21,258948709,18208
32-22,258952615,-16879
32-23,258956521,-32768
32-24,258960427,-15163
32-25,258964333,17173
32-26,258968239,21546
32-27,258972145,18963
32-28,258976051,24023
32-29,258979957,5653
32-30,258983863,-27618
32-31,258987769,-32768
32-32,258991675,-23634
32-1,258995434,7048
32-2,258999340,22069
32-3,259003246,20640
32-4,259007152,22949
32-5,259011058,-2253
32-6,259014964,-32768
32-7,259018870,-20284
32-8,259022776,15663
32-9,259026682,23342
32-10,259030588,17978
32-11,259034494,23137
32-12,259038400,19283
32-13,259042306,-15829
32-14,259046212,-32768
32-15,259050118,-12592
32-16,259054024,19086
32-17,259057930,21814
32-18,259061836,18114
32-19,259065742,24496
32-20,259069648,11035
32-21,259073554,-27691
32-22,259077460,-32768
32-23,259081366,-405
32-24,259085272,22798
32-25,259089178,19462
32-26,259093084,19961
32-27,259096990,22846
32-28,259100896,-912
32-29,259104802,-32768
32-30,259108708,-32359
32-31,259112614,-5413
32-32,259116520,20117
32-1,259120432,20871
32-2,259124338,22029
32-3,259128244,18683
32-4,259132150,-13253
32-5,259136056,-32744
32-6,259139962,-26595
32-7,259143868,5842
32-8,259147774,22203
32-9,259151680,19201
32-10,259155586,23746
32-11,259159492,12526
32-12,259163398,-27065
32-13,259167304,-32481
32-14,259171210,3790
32-15,259175116,23340
32-16,259179022,18778
32-17,259182928,20149
32-18,259186834,23662
32-19,259190740,234
32-20,259194646,-32768
32-21,259198552,-31793
32-22,259202458,2561
32-23,259206364,22549
32-24,259210270,18711
32-25,259214176,21646
32-26,259218082,20532
32-27,259221988,-12887
32-28,259225894,-32768
32-29,259229800,-17989
32-30,259233706,9745
32-31,259237612,20152
32-32,259241518,19563
32-1,259245429,23384
32-2,259249335,11452
32-3,259253241,-22137
32-4,259257147,-32768
32-5,259261053,-25482
32-6,259264959,4956
32-7,259268865,21317
32-8,259272771,20106
32-9,259276677,22667
32-10,259280583,2548
32-11,259284489,-32768
32-12,259288395,-28851
32-13,259292301,7461
32-14,259296207,23319
32-15,259300113,18759
32-16,259304019,21921
32-17,259307925,20810
32-18,259311831,-10497
32-19,259315737,-32768
32-20,259319643,-22411
32-21,259323549,11579
32-22,259327455,22242
32-23,259331361,18295
32-24,259335267,23348
32-25,259339173,14137
32-26,259343079,-23522
32-27,259346985,-32768
32-28,259350891,-9037
32-29,259354797,15804
32-30,259358703,16048
32-31,259362609,18918
32-32,259366515,24151
32-1,259370427,2549
32-2,259374333,-30921
32-3,259378239,-32768
32-4,259382145,-12452
32-5,259386051,16076
32-6,259389957,20654
32-7,259393863,20248
32-8,259397769,20898
32-9,259401675,-8586
32-10,259405581,-32768
32-11,259409487,-22813
32-12,259413393,11860
32-13,259417299,22915
32-14,259421205,18500
32-15,259425111,23253
32-16,259429017,15124
32-17,259432923,-21603
32-18,259436829,-32768
32-19,259440735,-11237
32-20,259444641,18486
32-21,259448547,21225
32-22,259452453,19005
32-23,259456359,23932
32-24,259460265,4669
32-25,259464171,-32099
32-26,259468077,-32768
32-27,259471983,1380
32-28,259475889,22509
32-29,259479795,15666
32-30,259483701,17246
32-31,259487607,21197
32-32,259491513,-6840
32-1,259495425,-32768
32-2,259499331,-32104
32-3,259503237,-1566
32-4,259507143,20458
32-5,259511049,19859
32-6,259514955,22341
32-7,259518861,16626
32-8,259522767,-19707
32-9,259526673,-32685
32-10,259530579,-12361
32-11,259534485,18390
32-12,259538391,21660
32-13,259542297,18529
32-14,259546203,23959
32-15,259550109,6445
32-16,259554015,-31069
32-17,259557921,-32768
32-18,259561827,-623
32-19,259565733,21933
32-20,259569639,19565
32-21,259573545,20406
32-22,259577451,22122
32-23,259581357,-6244
32-24,259585263,-32768
32-25,259589169,-24983
32-26,259593075,9677
32-27,259596981,23148
32-28,259600887,19343
32-29,259604793,19644
32-30,259608699,11938
32-31,259612605,-17949
32-32,259616511,-32768
32-1,259620605,-21781
32-2,259624511,11785
32-3,259628417,22180
32-4,259632323,18977
32-5,259636229,24008
32-6,259640135,8375
32-7,259644041,-29626
32-8,259647947,-32768
32-9,259651853,-3048
32-10,259655759,21164
32-11,259659665,19686
32-12,259663571,20092
32-13,259667477,22901
32-14,259671383,-4202
32-15,259675289,-32768
32-16,259679195,-26899
32-17,259683101,8627
32-18,259687007,23321
32-19,259690913,18703
32-20,259694819,22631
32-21,259698725,18152
32-22,259702631,-16961
32-23,259706537,-32768
32-24,259710443,-15798
32-25,259714349,16554
32-26,259718255,21602
32-27,259722161,18952
32-28,259726067,23758
32-29,259729973,6388
32-30,259733879,-27896
32-31,259737785,-32768
32-32,259741691,-18409
32-1,259745420,12443
32-2,259749326,21883
32-3,259753232,19817
32-4,259757138,22930
32-5,259761044,-3246
32-6,259764950,-32768
32-7,259768856,-19880
32-8,259772762,15919
32-9,259776668,23055
32-10,259780574,17949
32-11,259784480,23630
32-12,259788386,18635
32-13,259792292,-15425
32-14,259796198,-32768
32-15,259800104,-19667
32-16,259804010,13351
32-17,259807916,22087
32-18,259811822,18671
32-19,259815728,23951
32-20,259819634,10481
32-21,259823540,-27426
32-22,259827446,-32768
32-23,259831352,-5826
32-24,259835258,20484
32-25,259839164,20176
32-26,259843070,19595
32-27,259846976,22928
32-28,259850882,-933
32-29,259854788,-32768
32-30,259858694,-32359
32-31,259862600,1235
32-32,259866506,22619
32-1,259870418,19771
32-2,259874324,22319
32-3,259878230,18965
32-4,259882136,-12807
32-5,259886042,-32768
32-6,259889948,-29484
32-7,259893854,1890
32-8,259897760,21884
32-9,259901666,20045
32-10,259905572,23415
32-11,259909478,12655
32-12,259913384,-26796
32-13,259917290,-32657
32-14,259921196,3064
32-15,259925102,23559
32-16,259929008,19205
32-17,259932914,19872
32-18,259936820,24455
32-19,259940726,660
32-20,259944632,-32768
32-21,259948538,-27309
32-22,259952444,9363
32-23,259956350,23672
32-24,259960256,18243
32-25,259964162,22708
32-26,259968068,20669
32-27,259971974,-11770
32-28,259975880,-32768
32-29,259979786,-24373
32-30,259983692,4527
32-31,259987598,20443
32-32,259991504,20315
32-1,259995415,23429
32-2,259999321,12835
32-3,260003227,-21674
32-4,260007133,-32768
32-5,260011039,-22724
32-6,260014945,9086
32-7,260018851,22225
32-8,260022757,19468
32-9,260026663,23494
32-10,260030569,2867
32-11,260034475,-32768
32-12,260038381,-25057
32-13,260042287,11906
32-14,260046193,23479
32-15,260050099,18099
32-16,260054005,22347
32-17,260057911,20546
32-18,260061817,-9743
32-19,260065723,-32768
32-20,260069629,-27115
32-21,260073535,6141
32-22,260077441,22079
32-23,260081347,18653
32-24,260085253,23378
32-25,260089159,15219
32-26,260093065,-24702
32-27,260096971,-32768
32-28,260100877,1852
32-29,260104783,20682
32-30,260108689,15407
32-31,260112595,19427
32-32,260116501,24262
32-1,260120413,2706
32-2,260124319,-30322
32-3,260128225,-32768
32-4,260132131,-13859
32-5,260136037,15692
32-6,260139943,20972
32-7,260143849,20085
32-8,260147755,21933
32-9,260151661,-8900
32-10,260155567,-32768
32-11,260159473,-14289
32-12,260163379,18777
32-13,260167285,22252
32-14,260171191,18151
32-15,260175097,23634
32-16,260179003,14629
32-17,260182909,-20894
32-18,260186815,-32768
32-19,260190721,-14215
32-20,260194627,16981
32-21,260198533,21744
32-22,260202439,18551
32-23,260206345,24096
32-24,260210251,4814
32-25,260214157,-32768
32-26,260218063,-27753
32-27,260221969,9981
32-28,260225875,23622
32-29,260229781,13855
32-30,260233687,17607
32-31,260237593,21036
32-32,260241499,-6947
32-1,260245410,-32768
32-2,260249316,-32359
32-3,260253222,-9501
32-4,260257128,16741
32-5,260261034,20809
32-6,260264940,22078
32-7,260268846,16601
32-8,260272752,-19768
32-9,260276658,-32543
32-10,260280564,-8696
32-11,260284470,20565
32-12,260288376,21344
32-13,260292282,18764
32-14,260296188,24338
32-15,260300094,6825
32-16,260304000,-30221
32-17,260307906,-32768
32-18,260311812,-3171
32-19,260315718,20773
32-20,260319624,19656
32-21,260323530,20134
32-22,260327436,22004
32-23,260331342,-5862
32-24,260335248,-32768
32-25,260339154,-25699
32-26,260343060,8678
32-27,260346966,22750
32-28,260350872,19097
32-29,260354778,19404
32-30,260358684,11152
32-31,260362590,-17544
32-32,260366496,-32768
32-1,260370591,-27297
32-2,260374497,4263
32-3,260378403,21108
32-4,260382309,19713
32-5,260386215,23331
32-6,260390121,8523
32-7,260394027,-29571
32-8,260397933,-32612
32-9,260401839,-1776
32-10,260405745,21747
32-11,260409651,19649
32-12,260413557,20106
32-13,260417463,23231
32-14,260421369,-3650
32-15,260425275,-32768
32-16,260429181,-26698
32-17,260433087,8889
32-18,260436993,23190
32-19,260440899,18356
32-20,260444805,22317
32-21,260448711,18325
32-22,260452617,-16489
32-23,260456523,-32768
32-24,260460429,-15791
32-25,260464335,16671
32-26,260468241,21556
32-27,260472147,18573
32-28,260476053,23677
32-29,260479959,7255
32-30,260483865,-28243
32-31,260487771,-32768
32-32,260491677,-13395
32-1,260495406,16265
32-2,260499312,21439
32-3,260503218,19993
32-4,260507124,22966
32-5,260511030,-2008
32-6,260514936,-32768
32-7,260518842,-28906
32-8,260522748,5641
32-9,260526654,22337
32-10,260530560,18857
32-11,260534466,22484
32-12,260538372,18894
32-13,260542278,-15473
32-14,260546184,-32768
32-15,260550090,-17480
32-16,260553996,15391
32-17,260557902,21925
32-18,260561808,18011
32-19,260565714,23805
32-20,260569620,10675
32-21,260573526,-27217
32-22,260577432,-32768
32-23,260581338,-5457
32-24,260585244,20835
32-25,260589150,20235
32-26,260593056,19598
32-27,260596962,23066
32-28,260600868,-602
32-29,260604774,-32768
32-30,260608680,-32359
32-31,260612586,879
32-32,260616492,22456
32-1,260620403,19809
32-2,260624309,22354
32-3,260628215,18989
32-4,260632121,-12847
32-5,260636027,-32768
32-6,260639933,-29555
32-7,260643839,1777
32-8,260647745,21810
32-9,260651651,19947
32-10,260655557,23399
32-11,260659463,12585
32-12,260663369,-26972
32-13,260667275,-32648
32-14,260671181,3316
32-15,260675087,23417
32-16,260678993,18931
32-17,260682899,20099
32-18,260686805,24007
32-19,260690711,409
32-20,260694617,-32768
32-21,260698523,-31214
32-22,260702429,3331
32-23,260706335,22518
32-24,260710241,18931
32-25,260714147,22432
32-26,260718053,19954
32-27,260721959,-12034
32-28,260725865,-32768
32-29,260729771,-29472
32-30,260733677,-2453
32-31,260737583,18777
32-32,260741489,20916
32-1,260745401,23188
32-2,260749307,11851
32-3,260753213,-22149
32-4,260757119,-32620
32-5,260761025,-25103
32-6,260764931,5604
32-7,260768837,21986
32-8,260772743,20271
32-9,260776649,23509
32-10,260780555,2465
32-11,260784461,-32768
32-12,260788367,-23935
32-13,260792273,13413
32-14,260796179,23944
32-15,260800085,18314
32-16,260803991,22458
32-17,260807897,21023
32-18,260811803,-10140
32-19,260815709,-32768
32-20,260819615,-22234
32-21,260823521,12154
32-22,260827427,22520
32-23,260831333,18419
32-24,260835239,23712
32-25,260839145,14795
32-26,260843051,-23182
32-27,260846957,-32768
32-28,260850863,-9132
32-29,260854769,15530
32-30,260858675,15924
32-31,260862581,19042
32-32,260866487,24304
32-1,260870399,3168
32-2,260874305,-30520
32-3,260878211,-32768
32-4,260882117,-12217
32-5,260886023,17164
32-6,260889929,21357
32-7,260893835,20542
32-8,260897741,22670
32-9,260901647,-8340
32-10,260905553,-32768
32-11,260909459,-14349
32-12,260913365,19153
32-13,260917271,22901
32-14,260921177,18233
32-15,260925083,23959
32-16,260928989,15793
32-17,260932895,-21463
32-18,260936801,-32768
32-19,260940707,-7045
32-20,260944613,21058
32-21,260948519,21005
32-22,260952425,19032
32-23,260956331,24384
32-24,260960237,5335
32-25,260964143,-31998
32-26,260968049,-32005
32-27,260971955,4475
32-28,260975861,23090
32-29,260979767,14909
32-30,260983673,17259
32-31,260987579,21112
32-32,260991485,-6416
32-1,260995396,-32768
32-2,260999302,-32359
32-3,261003208,-5630
32-4,261007114,19285
32-5,261011020,20248
32-6,261014926,22267
32-7,261018832,17757
32-8,261022738,-20001
32-9,261026644,-32631
32-10,261030550,-3588
32-11,261034456,22731
32-12,261038362,20387
32-13,261042268,18808
32-14,261046174,23909
32-15,261050080,6348
32-16,261053986,-29114
32-17,261057892,-32768
32-18,261061798,-9645
32-19,261065704,18097
32-20,261069610,20512
32-21,261073516,19550
32-22,261077422,22828
32-23,261081328,-6132
32-24,261085234,-32768
32-25,261089140,-16052
32-26,261093046,17775
32-27,261096952,22582
32-28,261100858,18227
32-29,261104764,20967
32-30,261108670,11888
32-31,261112576,-16947
32-32,261116482,-32768
32-1,261120608,-31137
32-2,261124514,-2859
32-3,261128420,19131
32-4,261132326,20105
32-5,261136232,23129
32-6,261140138,8441
32-7,261144044,-30553
32-8,261147950,-29084
32-9,261151856,8741
32-10,261155762,24006
32-11,261159668,18400
32-12,261163574,20973
32-13,261167480,22992
32-14,261171386,-3422
32-15,261175292,-32768
32-16,261179198,-28990
32-17,261183104,6289
32-18,261187010,23185
32-19,261190916,18917
32-20,261194822,22308
32-21,261198728,18674
32-22,261202634,-15758
32-23,261206540,-32768
32-24,261210446,-17557
32-25,261214352,15202
32-26,261218258,21578
32-27,261222164,18680
32-28,261226070,23359
32-29,261229976,6460
32-30,261233882,-27445
32-31,261237788,-32768
32-32,261241694,-20021
32-1,261245453,10309
32-2,261249359,21465
32-3,261253265,19916
32-4,261257171,21870
32-5,261261077,-1916
32-6,261264983,-32768
32-7,261268889,-28265
32-8,261272795,6910
32-9,261276701,22696
32-10,261280607,18590
32-11,261284513,22387
32-12,261288419,19183
32-13,261292325,-15092
32-14,261296231,-32768
32-15,261300137,-17126
32-16,261304043,15856
32-17,261307949,22108
32-18,261311855,18154
32-19,261315761,23960
32-20,261319667,11049
32-21,261323573,-26928
32-22,261327479,-32768
32-23,261331385,-5153
32-24,261335291,21086
32-25,261339197,20181
32-26,261343103,19511
32-27,261347009,23112
32-28,261350915,-322
32-29,261354821,-32768
32-30,261358727,-32359
32-31,261362633,767
32-32,261366539,22576
32-1,261370389,19896
32-2,261374295,22357
32-3,261378201,19394
32-4,261382107,-12371
32-5,261386013,-32768
32-6,261389919,-29571
32-7,261393825,1458
32-8,261397731,21367
32-9,261401637,20370
32-10,261405543,23239
32-11,261409449,12650
32-12,261413355,-25118
32-13,261417261,-32666
32-14,261421167,-7219
32-15,261425073,20063
32-16,261428979,20788
32-17,261432885,19801
32-18,261436791,24203
32-19,261440697,1098
32-20,261444603,-32768
32-21,261448509,-30296
32-22,261452415,5017
32-23,261456321,22992
32-24,261460227,18678
32-25,261464133,22450
32-26,261468039,20382
32-27,261471945,-11630
32-28,261475851,-32768
32-29,261479757,-28133
32-30,261483663,-312
32-31,261487569,19547
32-32,261491475,20696
32-1,261495387,23038
32-2,261499293,13083
32-3,261503199,-22668
32-4,261507105,-32677
32-5,261511011,-16377
32-6,261514917,15329
32-7,261518823,22500
32-8,261522729,19706
32-9,261526635,23946
32-10,261530541,3474
32-11,261534447,-32768
32-12,261538353,-32251
32-13,261542259,1928
32-14,261546165,22467
32-15,261550071,19797
32-16,261553977,21814
32-17,261557883,21236
32-18,261561789,-10119
32-19,261565695,-32768
32-20,261569601,-21850
32-21,261573507,12461
32-22,261577413,22532
32-23,261581319,18437
32-24,261585225,23714
32-25,261589131,14623
32-26,261593037,-23189
32-27,261596943,-32768
32-28,261600849,-9576
32-29,261604755,15534
32-30,261608661,16061
32-31,261612567,19154
32-32,261616473,24549
32-1,261620384,2751
32-2,261624290,-30055
32-3,261628196,-32768
32-4,261632102,-17307
32-5,261636008,13078
32-6,261639914,21739
32-7,261643820,20759
32-8,261647726,21964
32-9,261651632,-8990
32-10,261655538,-32768
32-11,261659444,-13267
32-12,261663350,19765
32-13,261667256,22386
32-14,261671162,18082
32-15,261675068,23746
32-16,261678974,14739
32-17,261682880,-21077
32-18,261686786,-32768
32-19,261690692,-13291
32-20,261694598,17367
32-21,261698504,21488
32-22,261702410,19232
32-23,261706316,24028
32-24,261710222,5114
32-25,261714128,-31537
32-26,261718034,-32768
32-27,261721940,-1071
32-28,261725846,21910
32-29,261729752,15807
32-30,261733658,17021
32-31,261737564,21309
32-32,261741470,-6547
32-1,261745382,-32768
32-2,261749288,-32359
32-3,261753194,-7508
32-4,261757100,18325
32-5,261761006,20640
32-6,261764912,22477
32-7,261768818,17577
32-8,261772724,-20594
32-9,261776630,-32593
32-10,261780536,-1489
32-11,261784442,23791
32-12,261788348,20459
32-13,261792254,18810
32-14,261796160,24522
32-15,261800066,7387
32-16,261803972,-29871
32-17,261807878,-32768
32-18,261811784,-1997
32-19,261815690,21672
32-20,261819596,19744
32-21,261823502,19953
32-22,261827408,22720
32-23,261831314,-5516
32-24,261835220,-32768
32-25,261839126,-21373
32-26,261843032,13968
32-27,261846938,23251
32-28,261850844,18715
32-29,261854750,20958
32-30,261858656,13159
32-31,261862562,-16261
32-32,261866468,-32768
32-1,261870776,-28008
32-2,261874682,4180
32-3,261878588,21861
32-4,261882494,19778
32-5,261886400,24032
32-6,261890306,9588
32-7,261894212,-30090
32-8,261898118,-30351
32-9,261902024,7044
32-10,261905930,23974
32-11,261909836,18639
32-12,261913742,20556
32-13,261917648,23778
32-14,261921554,-3194
32-15,261925460,-32768
32-16,261929366,-23859
32-17,261933272,12545
32-18,261937178,23700
32-19,261941084,18304
32-20,261944990,22857
32-21,261948896,19089
32-22,261952802,-16241
32-23,261956708,-32768
32-24,261960614,-12509
32-25,261964520,19021
32-26,261968426,21093
32-27,261972332,18625
32-28,261976238,24042
32-29,261980144,6709
32-30,261984050,-27098
32-31,261987956,-32768
32-32,261991862,-21367
32-1,261995377,9406
32-2,261999283,21852
32-3,262003189,19949
32-4,262007095,22836
32-5,262011001,-1834
32-6,262014907,-32768
32-7,262018813,-21291
32-8,262022719,14568
32-9,262026625,22742
32-10,262030531,17641
32-11,262034437,22781
32-12,262038343,18227
32-13,262042249,-14118
32-14,262046155,-32768
32-15,262050061,-24364
32-16,262053967,8471
32-17,262057873,21792
32-18,262061779,18144
32-19,262065685,23340
32-20,262069591,11375
32-21,262073497,-28152
32-22,262077403,-31947
32-23,262081309,4926
32-24,262085215,23704
32-25,262089121,18357
32-26,262093027,19881
32-27,262096933,22838
32-28,262100839,-448
32-29,262104745,-32768
32-30,262108651,-32359
32-31,262112557,-5938
32-32,262116463,19931
32-1,262120375,20713
32-2,262124281,22028
32-3,262128187,18909
32-4,262132093,-12417
32-5,262135999,-32747
32-6,262139905,-30183
32-7,262143811,-251
32-8,262147717,20600
32-9,262151623,20006
32-10,262155529,22799
32-11,262159435,12728
32-12,262163341,-25627
32-13,262167247,-32592
32-14,262171153,-2292
32-15,262175059,22224
32-16,262178965,20007
32-17,262182871,19693
32-18,262186777,24137
32-19,262190683,1466
32-20,262194589,-32768
32-21,262198495,-31273
32-22,262202401,3186
32-23,262206307,22384
32-24,262210213,18801
32-25,262214119,22118
32-26,262218025,20194
32-27,262221931,-11356
32-28,262225837,-32768
32-29,262229743,-28663
32-30,262233649,-1341
32-31,262237555,19146
32-32,262241461,20925
32-1,262245373,23090
32-2,262249279,12799
32-3,262253185,-21658
32-4,262257091,-32665
32-5,262260997,-21766
32-6,262264903,10073
32-7,262268809,22336
32-8,262272715,19749
32-9,262276621,23271
32-10,262280527,3742
32-11,262284433,-32768
32-12,262288339,-31699
32-13,262292245,3175
32-14,262296151,22818
32-15,262300057,19545
32-16,262303963,21551
32-17,262307869,21248
32-18,262311775,-9790
32-19,262315681,-32768
32-20,262319587,-21700
32-21,262323493,12823
32-22,262327399,22756
32-23,262331305,18429
32-24,262335211,23798
32-25,262339117,15199
32-26,262343023,-22748
32-27,262346929,-32768
32-28,262350835,-8912
32-29,262354741,16304
32-30,262358647,16672
32-31,262362553,19007
32-32,262366459,24420
32-1,262370370,4018
32-2,262374276,-31028
32-3,262378182,-32768
32-4,262382088,-7173
32-5,262385994,19909
32-6,262389900,20701
32-7,262393806,20745
32-8,262397712,22194
32-9,262401618,-7311
32-10,262405524,-32768
32-11,262409430,-24365
32-12,262413336,10573
32-13,262417242,23140
32-14,262421148,18705
32-15,262425054,23049
32-16,262428960,15577
32-17,262432866,-20915
32-18,262436772,-32768
32-19,262440678,-11989
32-20,262444584,18346
32-21,262448490,21549
32-22,262452396,19017
32-23,262456302,24193
32-24,262460208,5678
32-25,262464114,-31527
32-26,262468020,-32768
32-27,262471926,586
32-28,262475832,22444
32-29,262479738,16012
32-30,262483644,17144
32-31,262487550,21827
32-32,262491456,-5845
32-1,262495520,-32768
32-2,262499426,-30056
32-3,262503332,3549
32-4,262507238,22448
32-5,262511144,19482
32-6,262515050,22792
32-7,262518956,17268
32-8,262522862,-18855
32-9,262526768,-32768
32-10,262530674,-14481
32-11,262534580,17039
32-12,262538486,21770
32-13,262542392,18533
32-14,262546298,24120
32-15,262550204,7552
32-16,262554110,-30336
32-17,262558016,-32768
32-18,262561922,-1589
32-19,262565828,21932
32-20,262569734,19879
32-21,262573640,20292
32-22,262577546,22428
32-23,262581452,-5291
32-24,262585358,-32768
32-25,262589264,-25939
32-26,262593170,8835
32-27,262597076,23153
32-28,262600982,19452
32-29,262604888,20419
32-30,262608794,12461
32-31,262612700,-16707
32-32,262616606,-32768
32-1,262620518,-29562
32-2,262624424,857
32-3,262628330,20938
32-4,262632236,20314
32-5,262636142,23942
32-6,262640048,8931
32-7,262643954,-30627
32-8,262647860,-29341
32-9,262651766,8758
32-10,262655672,24503
32-11,262659578,18805
32-12,262663484,21409
32-13,262667390,23558
32-14,262671296,-3265
32-15,262675202,-32768
32-16,262679108,-28972
32-17,262683014,5649
32-18,262686920,22520
32-19,262690826,18795
32-20,262694732,22264
32-21,262698638,18514
32-22,262702544,-16148
32-23,262706450,-32768
32-24,262710356,-16643
32-25,262714262,16293
32-26,262718168,21898
32-27,262722074,18873
32-28,262725980,23980
32-29,262729886,6689
32-30,262733792,-27050
32-31,262737698,-32768
32-32,262741604,-23152
32-1,262745363,7674
32-2,262749269,22166
32-3,262753175,20485
32-4,262757081,23372
32-5,262760987,-1095
32-6,262764893,-32768
32-7,262768799,-20629
32-8,262772705,15680
32-9,262776611,23529
32-10,262780517,18078
32-11,262784423,23215
32-12,262788329,19972
32-13,262792235,-14687
32-14,262796141,-32768
32-15,262800047,-13545
32-16,262803953,18687
32-17,262807859,21941
32-18,262811765,18066
32-19,262815671,24509
32-20,262819577,11933
32-21,262823483,-26792
32-22,262827389,-32768
32-23,262831295,-1463
32-24,262835201,22614
32-25,262839107,19737
32-26,262843013,19754
32-27,262846919,23488
32-28,262850825,440
32-29,262854731,-32768
32-30,262858637,-32359
32-31,262862543,-797
32-32,262866449,22074
32-1,262870361,20136
32-2,262874267,22296
32-3,262878173,19305
32-4,262882079,-11921
32-5,262885985,-32768
32-6,262889891,-31278
32-7,262893797,-1439
32-8,262897703,20904
32-9,262901609,20212
32-10,262905515,22980
32-11,262909421,13419
32-12,262913327,-25720
32-13,262917233,-32601
32-14,262921139,2302
32-15,262925045,23420
32-16,262928951,19405
32-17,262932857,20412
32-18,262936763,24154
32-19,262940669,1601
32-20,262944575,-32768
32-21,262948481,-32634
32-22,262952387,-3695
32-23,262956293,20217
32-24,262960199,19412
32-25,262964105,21211
32-26,262968011,20742
32-27,262971917,-11953
32-28,262975823,-32768
32-29,262979729,-18101
32-30,262983635,10169
32-31,262987541,20503
32-32,262991447,19556
32-1,262995358,23555
32-2,262999264,13079
32-3,263003170,-21086
32-4,263007076,-32768
32-5,263010982,-23190
32-6,263014888,8961
32-7,263018794,22479
32-8,263022700,19709
32-9,263026606,23953
32-10,263030512,3813
32-11,263034418,-32768
32-12,263038324,-25214
32-13,263042230,11950
32-14,263046136,23809
32-15,263050042,18472
32-16,263053948,22119
32-17,263057854,20850
32-18,263061760,-9247
32-19,263065666,-32768
32-20,263069572,-24465
32-21,263073478,10328
32-22,263077384,22871
32-23,263081290,18839
32-24,263085196,23653
32-25,263089102,15392
32-26,263093008,-22074
32-27,263096914,-32768
32-28,263100820,-11486
32-29,263104726,14340
32-30,263108632,16419
32-31,263112538,19219
32-32,263116444,24574
32-1,263120356,3730
32-2,263124262,-30076
32-3,263128168,-32768
32-4,263132074,-13725
32-5,263135980,15427
32-6,263139886,21157
32-7,263143792,20535
32-8,263147698,21428
32-9,263151604,-7221
32-10,263155510,-32768
32-11,263159416,-23907
32-12,263163322,11137
32-13,263167228,23199
32-14,263171134,18664
32-15,263175040,23107
32-16,263178946,15949
32-17,263182852,-20461
32-18,263186758,-32768
32-19,263190664,-11855
32-20,263194570,18560
32-21,263198476,21630
32-22,263202382,19160
32-23,263206288,24364
32-24,263210194,5981
32-25,263214100,-31288
32-26,263218006,-32768
32-27,263221912,559
32-28,263225818,22432
32-29,263229724,15684
32-30,263233630,17088
32-31,263237536,21672
32-32,263241442,-5755
32-1,263245354,-32768
32-2,263249260,-32359
32-3,263253166,-3906
32-4,263257072,19825
32-5,263260978,20660
32-6,263264884,22669
32-7,263268790,17664
32-8,263272696,-18463
32-9,263276602,-32687
32-10,263280508,-12612
32-11,263284414,18729
32-12,263288320,22120
32-13,263292226,18583
32-14,263296132,24203
32-15,263300038,7838
32-16,263303944,-30052
32-17,263307850,-32768
32-18,263311756,-1210
32-19,263315662,22180
32-20,263319568,19900
32-21,263323474,20146
32-22,263327380,22602
32-23,263331286,-4653
32-24,263335192,-32768
32-25,263339098,-25609
32-26,263343004,9507
32-27,263346910,23438
32-28,263350816,19514
32-29,263354722,19845
32-30,263358628,12924
32-31,263362534,-16565
32-32,263366440,-32768
32-1,263370534,-23235
32-2,263374440,10664
32-3,263378346,22570
32-4,263382252,19351
32-5,263386158,24102
32-6,263390064,9350
32-7,263393970,-28828
32-8,263397876,-32768
32-9,263401782,-3793
32-10,263405688,21091
32-11,263409594,20003
32-12,263413500,20039
32-13,263417406,23099
32-14,263421312,-3277
32-15,263425218,-32768
32-16,263429124,-27549
32-17,263433030,7982
32-18,263436936,23265
32-19,263440842,18717
32-20,263444748,22626
32-21,263448654,19092
32-22,263452560,-15697
32-23,263456466,-32768
32-24,263460372,-16473
32-25,263464278,16439
32-26,263468184,22006
32-27,263472090,18927
32-28,263475996,23987
32-29,263479902,7991
32-30,263483808,-27737
32-31,263487714,-32768
32-32,263491620,-13707
32-1,263495349,16172
32-2,263499255,21578
32-3,263503161,19926
32-4,263507067,23123
32-5,263510973,-1075
32-6,263514879,-32768
32-7,263518785,-29606
32-8,263522691,5060
32-9,263526597,22647
32-10,263530503,19273
32-11,263534409,22730
32-12,263538315,19883
32-13,263542221,-14276
32-14,263546127,-32768
32-15,263550033,-17971
32-16,263553939,15368
32-17,263557845,22313
32-18,263561751,18418
32-19,263565657,24236
32-20,263569563,11593
32-21,263573469,-26473
32-22,263577375,-32768
32-23,263581281,-6021
32-24,263585187,20715
32-25,263589093,20175
32-26,263592999,19285
32-27,263596905,23071
32-28,263600811,8
32-29,263604717,-32768
32-30,263608623,-32359
32-31,263612529,861
32-32,263616435,22707
32-1,263620347,19921
32-2,263624253,22257
32-3,263628159,19155
32-4,263632065,-12343
32-5,263635971,-32768
32-6,263639877,-30138
32-7,263643783,743
32-8,263647689,21489
32-9,263651595,20021
32-10,263655501,23238
32-11,263659407,13255
32-12,263663313,-26070
32-13,263667219,-32643
32-14,263671125,2154
32-15,263675031,23677
32-16,263678937,19805
32-17,263682843,20349
32-18,263686749,24656
32-19,263690655,1943
32-20,263694561,-32768
32-21,263698467,-31454
32-22,263702373,3278
32-23,263706279,22694
32-24,263710185,19001
32-25,263714091,22269
32-26,263717997,20785
32-27,263721903,-10548
32-28,263725809,-32768
32-29,263729715,-29159
32-30,263733621,-1308
32-31,263737527,19367
32-32,263741433,20798
32-1,263745344,22998
32-2,263749250,13266
32-3,263753156,-21135
32-4,263757062,-32672
32-5,263760968,-21965
32-6,263764874,10421
32-7,263768780,22881
32-8,263772686,19576
32-9,263776592,23974
32-10,263780498,4156
32-11,263784404,-32768
32-12,263788310,-25424
32-13,263792216,11834
32-14,263796122,23992
32-15,263800028,18449
32-16,263803934,22084
32-17,263807840,21943
32-18,263811746,-9310
32-19,263815652,-32768
32-20,263819558,-18529
32-21,263823464,15926
32-22,263827370,22758
32-23,263831276,18179
32-24,263835182,24043
32-25,263839088,15790
32-26,263842994,-22539
32-27,263846900,-32768
32-28,263850806,-5758
32-29,263854712,18089
32-30,263858618,16307
32-31,263862524,19203
32-32,263866430,24690
32-1,263870342,4096
32-2,263874248,-29497
32-3,263878154,-32768
32-4,263882060,-15157
32-5,263885966,14829
32-6,263889872,21171
32-7,263893778,20032
32-8,263897684,22303
32-9,263901590,-7450
32-10,263905496,-32768
32-11,263909402,-15723
32-12,263913308,18198
32-13,263917214,22557
32-14,263921120,18165
32-15,263925026,23781
32-16,263928932,15415
32-17,263932838,-19074
32-18,263936744,-32768
32-19,263940650,-19837
32-20,263944556,12360
32-21,263948462,22225
32-22,263952368,19122
32-23,263956274,24284
32-24,263960180,6264
32-25,263964086,-32169
32-26,263967992,-27751
32-27,263971898,10280
32-28,263975804,23811
32-29,263979710,14367
32-30,263983616,17875
32-31,263987522,21509
32-32,263991428,-5706
32-1,263995339,-32768
32-2,263999245,-32359
32-3,264003151,-5339
32-4,264007057,19512
32-5,264010963,20347
32-6,264014869,22124
32-7,264018775,17930
32-8,264022681,-19523
32-9,264026587,-32645
32-10,264030493,-4205
32-11,264034399,22337
32-12,264038305,20207
32-13,264042211,18658
32-14,264046117,24267
32-15,264050023,7448
32-16,264053929,-28351
32-17,264057835,-32768
32-18,264061741,-10207
32-19,264065647,17952
32-20,264069553,20821
32-21,264073459,19632
32-22,264077365,22561
32-23,264081271,-4416
32-24,264085177,-32768
32-25,264089083,-22866
32-26,264092989,12464
32-27,264096895,23250
32-28,264100801,18705
32-29,264104707,19928
32-30,264108613,12979
32-31,264112519,-16273
32-32,264116425,-32768
32-1,264120551,-24626
32-2,264124457,8629
32-3,264128363,21887
32-4,264132269,19119
32-5,264136175,23449
32-6,264140081,9302
32-7,264143987,-28310
32-8,264147893,-32730
32-9,264151799,-5228
32-10,264155705,20254
32-11,264159611,19793
32-12,264163517,19581
32-13,264167423,22995
32-14,264171329,-2785
32-15,264175235,-32768
32-16,264179141,-27950
32-17,264183047,7321
32-18,264186953,23025
32-19,264190859,18682
32-20,264194765,22429
32-21,264198671,19162
32-22,264202577,-15275
32-23,264206483,-32768
32-24,264210389,-17003
32-25,264214295,16078
32-26,264218201,21965
32-27,264222107,18740
32-28,264226013,23738
32-29,264229919,7952
32-30,264233825,-27450
32-31,264237731,-32768
32-32,264241637,-14974
32-1,264245335,15286
32-2,264249241,21772
32-3,264253147,19915
32-4,264257053,23117
32-5,264260959,-555
32-6,264264865,-32768
32-7,264268771,-29844
32-8,264272677,4672
32-9,264276583,22516
32-10,264280489,19246
32-11,264284395,22486
32-12,264288301,19862
32-13,264292207,-13939
32-14,264296113,-32768
32-15,264300019,-18342
32-16,264303925,14926
32-17,264307831,22149
32-18,264311737,18237
32-19,264315643,23937
32-20,264319549,11591
32-21,264323455,-26292
32-22,264327361,-32768
32-23,264331267,-6336
32-24,264335173,20433
32-25,264339079,20031
32-26,264342985,19249
32-27,264346891,23225
32-28,264350797,322
32-29,264354703,-32768
32-30,264358609,-32359
32-31,264362515,168
32-32,264366421,22380
32-1,264370332,19948
32-2,264374238,21956
32-3,264378144,19556
32-4,264382050,-12170
32-5,264385956,-32768
32-6,264389862,-26913
32-7,264393768,6193
32-8,264397674,22387
32-9,264401580,19614
32-10,264405486,23497
32-11,264409392,13155
32-12,264413298,-24243
32-13,264417204,-32768
32-14,264421110,-10057
32-15,264425016,18426
32-16,264428922,20817
32-17,264432828,19454
32-18,264436734,23929
32-19,264440640,1780
32-20,264444546,-32768
32-21,264448452,-31266
32-22,264452358,3631
32-23,264456264,22782
32-24,264460170,18977
32-25,264464076,22246
32-26,264467982,20449
32-27,264471888,-10849
32-28,264475794,-32768
32-29,264479700,-29719
32-30,264483606,-2135
32-31,264487512,19072
32-32,264491418,20741
32-1,264495330,23203
32-2,264499236,12987
32-3,264503142,-21060
32-4,264507048,-32651
32-5,264510954,-25629
32-6,264514860,5177
32-7,264518766,21965
32-8,264522672,20228
32-9,264526578,23847
32-10,264530484,3823
32-11,264534390,-32768
32-12,264538296,-24603
32-13,264542202,12991
32-14,264546108,24131
32-15,264550014,18580
32-16,264553920,22632
32-17,264557826,21455
32-18,264561732,-9218
32-19,264565638,-32768
32-20,264569544,-23806
32-21,264573450,10698
32-22,264577356,22702
32-23,264581262,18906
32-24,264585168,23810
32-25,264589074,15351
32-26,264592980,-22208
32-27,264596886,-32768
32-28,264600792,-11456
32-29,264604698,14185
32-30,264608604,16148
32-31,264612510,19259
32-32,264616416,24893
32-1,264620328,4238
32-2,264624234,-29889
32-3,264628140,-32768
32-4,264632046,-13327
32-5,264635952,16722
32-6,264639858,21675
32-7,264643764,20298
32-8,264647670,22612
32-9,264651576,-7597
32-10,264655482,-32768
32-11,264659388,-15054
32-12,264663294,18938
32-13,264667200,22993
32-14,264671106,18346
32-15,264675012,23898
32-16,264678918,16110
32-17,264682824,-19668
32-18,264686730,-32768
32-19,264690636,-13499
32-20,264694542,17649
32-21,264698448,21956
32-22,264702354,18913
32-23,264706260,24329
32-24,264710166,6544
32-25,264714072,-31561
32-26,264717978,-31686
32-27,264721884,5328
32-28,264725790,23597
32-29,264729696,15436
32-30,264733602,17810
32-31,264737508,21746
32-32,264741414,-5298
32-1,264745325,-32768
32-2,264749231,-32359
32-3,264753137,-4541
32-4,264757043,19993
32-5,264760949,20435
32-6,264764855,22558
32-7,264768761,18745
32-8,264772667,-18922
32-9,264776573,-32685
32-10,264780479,-4530
32-11,264784385,22631
32-12,264788291,20849
32-13,264792197,18449
32-14,264796103,24646
32-15,264800009,8212
32-16,264803915,-29996
32-17,264807821,-32768
32-18,264811727,1873
32-19,264815633,22981
32-20,264819539,19257
32-21,264823445,20485
32-22,264827351,22399
32-23,264831257,-3814
32-24,264835163,-32768
32-25,264839069,-31152
32-26,264842975,1112
32-27,264846881,21780
32-28,264850787,20321
32-29,264854693,19031
32-30,264858599,12575
32-31,264862505,-15758
32-32,264866411,-32711
32-1,264870323,-27422
32-2,264874229,4554
32-3,264878135,21547
32-4,264882041,19197
32-5,264885947,23693
32-6,264889853,9734
32-7,264893759,-29765
32-8,264897665,-29712
32-9,264901571,7964
32-10,264905477,23955
32-11,264909383,18320
32-12,264913289,20647
32-13,264917195,23331
32-14,264921101,-2134
32-15,264925007,-32768
32-16,264928913,-29302
32-17,264932819,6213
32-18,264936725,23473
32-19,264940631,18679
32-20,264944537,21985
32-21,264948443,19814
32-22,264952349,-16355
32-23,264956255,-32768
32-24,264960161,-7137
32-25,264964067,21859
32-26,264967973,20632
32-27,264971879,18674
32-28,264975785,24085
32-29,264979691,6875
32-30,264983597,-26479
32-31,264987503,-32768
32-32,264991409,-22248
32-1,264995320,8551
32-2,264999226,21897
32-3,265003132,20238
32-4,265007038,22635
32-5,265010944,-351
32-6,265014850,-32768
32-7,265018756,-26961
32-8,265022662,9020
32-9,265026568,23054
32-10,265030474,18301
32-11,265034380,22227
32-12,265038286,19765
32-13,265042192,-14239
32-14,265046098,-32768
32-15,265050004,-15527
32-16,265053910,17151
32-17,265057816,21717
32-18,265061722,17948
32-19,265065628,23984
32-20,265069534,11738
32-21,265073440,-25458
32-22,265077346,-32768
32-23,265081252,-8483
32-24,265085158,19255
32-25,265089064,20324
32-26,265092970,19251
32-27,265096876,23030
32-28,265100782,654
32-29,265104688,-32768
32-30,265108594,-32359
32-31,265112500,-662
32-32,265116406,21759
32-1,265120318,19527
32-2,265124224,21872
32-3,265128130,19098
32-4,265132036,-12102
32-5,265135942,-32768
32-6,265139848,-30989
32-7,265143754,-1568
32-8,265147660,20304
32-9,265151566,20314
32-10,265155472,22969
32-11,265159378,13541
32-12,265163284,-24912
32-13,265167190,-32607
32-14,265171096,-3010
32-15,265175002,22230
32-16,265178908,20280
32-17,265182814,19612
32-18,265186720,24248
32-19,265190626,2121
32-20,265194532,-32768
32-21,265198438,-31830
32-22,265202344,2413
32-23,265206250,22180
32-24,265210156,18754
32-25,265214062,21911
32-26,265217968,20527
32-27,265221874,-10543
32-28,265225780,-32768
32-29,265229686,-29595
32-30,265233592,-2367
32-31,265237498,18889
32-32,265241404,20651
32-1,265245316,22820
32-2,265249222,13505
32-3,265253128,-20930
32-4,265257034,-32649
32-5,265260940,-22018
32-6,265264846,9804
32-7,265268752,22245
32-8,265272658,19838
32-9,265276564,23521
32-10,265280470,4527
32-11,265284376,-32768
32-12,265288282,-32518
32-13,265292188,2057
32-14,265296094,22791
32-15,265300000,19948
32-16,265303906,21751
32-17,265307812,21916
32-18,265311718,-8907
32-19,265315624,-32768
32-20,265319530,-22390
32-21,265323436,12343
32-22,265327342,22860
32-23,265331248,18566
32-24,265335154,23862
32-25,265339060,15643
32-26,265342966,-22131
32-27,265346872,-32768
32-28,265350778,-10273
32-29,265354684,15613
32-30,265358590,17024
32-31,265362496,19210
32-32,265366402,24677
32-1,265370313,4768
32-2,265374219,-30495
32-3,265378125,-32768
32-4,265382031,-8102
32-5,265385937,19538
32-6,265389843,20764
32-7,265393749,20475
32-8,265397655,22232
32-9,265401561,-6549
32-10,265405467,-32768
32-11,265409373,-25250
32-12,265413279,9635
32-13,265417185,23101
32-14,265421091,18906
32-15,265424997,23145
32-16,265428903,16400
32-17,265432809,-19908
32-18,265436715,-32768
32-19,265440621,-12831
32-20,265444527,18011
32-21,265448433,21766
32-22,265452339,19173
32-23,265456245,24352
32-24,265460151,6381
32-25,265464057,-30914
32-26,265467963,-32768
32-27,265471869,-536
32-28,265475775,22203
32-29,265479681,15991
32-30,265483587,17419
32-31,265487493,21857
32-32,265491399,-5663
32-1,265495311,-32768
32-2,265499217,-32359
32-3,265503123,-8829
32-4,265507029,17702
32-5,265510935,20968
32-6,265514841,22567
32-7,265518747,18164
32-8,265522653,-19652
32-9,265526559,-32593
32-10,265530465,-2565
32-11,265534371,23690
32-12,265538277,20935
32-13,265542183,19293
32-14,265546089,25241
32-15,265549995,8356
32-16,265553901,-29007
32-17,265557807,-32768
32-18,265561713,-4505
32-19,265565619,20874
32-20,265569525,20439
32-21,265573431,20288
32-22,265577337,22825
32-23,265581243,-4066
32-24,265585149,-32768
32-25,265589055,-26552
32-26,265592961,8379
32-27,265596867,23320
32-28,265600773,19561
32-29,265604679,19818
32-30,265608585,12843
32-31,265612491,-15834
32-32,265616397,-32768
32-1,265620309,-27362
32-2,265624215,5520
32-3,265628121,22234
32-4,265632027,19452
32-5,265635933,24144
32-6,265639839,10526
32-7,265643745,-29376
32-8,265647651,-30777
32-9,265651557,6690
32-10,265655463,24200
32-11,265659369,18859
32-12,265663275,20493
32-13,265667181,23958
32-14,265671087,-2238
32-15,265674993,-32768
32-16,265678899,-24604
32-17,265682805,11925
32-18,265686711,23627
32-19,265690617,18134
32-20,265694523,22609
32-21,265698429,19801
32-22,265702335,-15040
32-23,265706241,-32768
32-24,265710147,-13230
32-25,265714053,19042
32-26,265717959,21433
32-27,265721865,18645
32-28,265725771,24365
32-29,265729677,6934
32-30,265733583,-26495
32-31,265737489,-32768
32-32,265741395,-25334
32-1,265745306,4652
32-2,265749212,21769
32-3,265753118,20714
32-4,265757024,23024
32-5,265760930,-180
32-6,265764836,-32768
32-7,265768742,-22530
32-8,265772648,13942
32-9,265776554,23231
32-10,265780460,18139
32-11,265784366,22980
32-12,265788272,19049
32-13,265792178,-12937
32-14,265796084,-32768
32-15,265799990,-24927
32-16,265803896,8177
32-17,265807802,21988
32-18,265811708,18377
32-19,265815614,23698
32-20,265819520,12769
32-21,265823426,-27012
32-22,265827332,-32665
32-23,265831238,3948
32-24,265835144,23788
32-25,265839050,18733
32-26,265842956,19930
32-27,265846862,23215
32-28,265850768,661
32-29,265854674,-32768
32-30,265858580,-32768
32-31,265862486,-6934
32-32,265866392,19201
32-1,265870304,20155
32-2,265874210,20883
32-3,265878116,18821
32-4,265882022,-11826
32-5,265885928,-32768
32-6,265889834,-28054
32-7,265893740,4465
32-8,265897646,22274
32-9,265901552,19228
32-10,265905458,23124
32-11,265909364,13713
32-12,265913270,-25446
32-13,265917176,-32728
32-14,265921082,1282
32-15,265924988,23103
32-16,265928894,19295
32-17,265932800,20070
32-18,265936706,23999
32-19,265940612,1998
32-20,265944518,-32679
32-21,265948424,-32768
32-22,265952330,-4996
32-23,265956236,19558
32-24,265960142,19606
32-25,265964048,21252
32-26,265967954,20476
32-27,265971860,-10647
32-28,265975766,-32768
32-29,265979672,-25746
32-30,265983578,3303
32-31,265987484,20416
32-32,265991390,20289
32-1,265995302,23411
32-2,265999208,13907
32-3,266003114,-20468
32-4,266007020,-32768
32-5,266010926,-23586
32-6,266014832,7953
32-7,266018738,21999
32-8,266022644,19920
32-9,266026550,22953
32-10,266030456,4476
32-11,266034362,-32539
32-12,266038268,-32626
32-13,266042174,1367
32-14,266046080,22355
32-15,266049986,19516
32-16,266053892,21035
32-17,266057798,21577
32-18,266061704,-8621
32-19,266065610,-32768
32-20,266069516,-22694
32-21,266073422,12008
32-22,266077328,22720
32-23,266081234,18422
32-24,266085140,23679
32-25,266089046,15904
32-26,266092952,-21705
32-27,266096858,-32768
32-28,266100764,-10198
32-29,266104670,15687
32-30,266108576,16765
32-31,266112482,18974
32-32,266116388,24754
32-1,266120299,5036
32-2,266124205,-30252
32-3,266128111,-32768
32-4,266132017,-8752
32-5,266135923,19068
32-6,266139829,20838
32-7,266143735,20384
32-8,266147641,22128
32-9,266151547,-6305
32-10,266155453,-32768
32-11,266159359,-25249
32-12,266163265,9740
32-13,266167171,23161
32-14,266171077,18748
32-15,266174983,22925
32-16,266178889,16653
32-17,266182795,-19490
32-18,266186701,-32768
32-19,266190607,-12801
32-20,266194513,18155
32-21,266198419,21876
32-22,266202325,19096
32-23,266206231,24419
32-24,266210137,7032
32-25,266214043,-30509
32-26,266217949,-32768
32-27,266221855,-313
32-28,266225761,22501
32-29,266229667,16410
32-30,266233573,17290
32-31,266237479,22565
32-32,266241385,-4457
32-1,266245297,-32768
32-2,266249203,-31023
32-3,266253109,2151
32-4,266257015,22242
32-5,266260921,19767
32-6,266264827,22714
32-7,266268733,18058
32-8,266272639,-17674
32-9,266276545,-32768
32-10,266280451,-15360
32-11,266284357,16737
32-12,266288263,22083
32-13,266292169,18554
32-14,266296075,24139
32-15,266299981,8424
32-16,266303887,-29540
32-17,266307793,-32768
32-18,266311699,-2750
32-19,266315605,21721
32-20,266319511,20187
32-21,266323417,20112
32-22,266327323,22776
32-23,266331229,-3937
32-24,266335135,-32768
32-25,266339041,-26825
32-26,266342947,7970
32-27,266346853,23185
32-28,266350759,19277
32-29,266354665,18925
32-30,266358571,12859
32-31,266362477,-16054
32-32,266366383,-32768
32-1,266370294,-23206
32-2,266374200,10635
32-3,266378106,22384
32-4,266382012,19203
32-5,266385918,24030
32-6,266389824,10018
32-7,266393730,-27975
32-8,266397636,-32768
32-9,266401542,-5208
32-10,266405448,20522
32-11,266409354,20069
32-12,266413260,19899
32-13,266417166,23230
32-14,266421072,-2431
32-15,266424978,-32768
32-16,266428884,-28480
32-17,266432790,6919
32-18,266436696,23143
32-19,266440602,18800
32-20,266444508,22340
32-21,266448414,19215
32-22,266452320,-15008
32-23,266456226,-32768
32-24,266460132,-17414
32-25,266464038,15928
32-26,266467944,21904
32-27,266471850,18766
32-28,266475756,24073
32-29,266479662,8006
32-30,266483568,-26612
32-31,266487474,-32768
32-32,266491380,-20111
32-1,266495292,11221
32-2,266499198,22526
32-3,266503104,20246
32-4,266507010,23761
32-5,266510916,-545
32-6,266514822,-32768
32-7,266518728,-21870
32-8,266522634,14535
32-9,266526540,23553
32-10,266530446,18356
32-11,266534352,23236
32-12,266538258,19859
32-13,266542164,-13211
32-14,266546070,-32768
32-15,266549976,-20213
32-16,266553882,13371
32-17,266557788,22115
32-18,266561694,18275
32-19,266565600,23848
32-20,266569506,12393
32-21,266573412,-25506
32-22,266577318,-32768
32-23,266581224,-7050
32-24,266585130,20282
32-25,266589036,20385
32-26,266592942,19186
32-27,266596848,23174
32-28,266600754,1050
32-29,266604660,-32768
32-30,266608566,-32359
32-31,266612472,-32
32-32,266616378,22589
