32-1,23506365,12989
32-2,23510271,16877
32-3,23514177,-5477
32-4,23518083,-17869
32-5,23521989,-14188
32-6,23525895,-13263
32-7,23529801,-12397
32-8,23533707,-4622
32-9,23537613,9898
32-10,23541519,7209
32-11,23545425,-11513
32-12,23549331,-15723
32-13,23553237,-10159
32-14,23557143,-3833
32-15,23561049,6487
32-16,23564955,22435
32-17,23568861,30771
32-18,23572767,8781
32-19,23576673,-15293
32-20,23580579,-14600
32-21,23584485,-8402
32-22,23588391,-1334
32-23,23592297,11428
32-24,23596203,28110
32-25,23600109,27512
32-26,23604015,-982
32-27,23607921,-17888
32-28,23611827,-13824
32-29,23615733,-12638
32-30,23619639,-14231
32-31,23623545,-8114
32-32,23627451,8093
32-1,23631363,8330
32-2,23635269,-10465
32-3,23639175,-16235
32-4,23643081,-12529
32-5,23646987,-11465
32-6,23650893,-7924
32-7,23654799,6139
32-8,23658705,20530
32-9,23662611,6786
32-10,23666517,-14359
32-11,23670423,-14185
32-12,23674329,-8166
32-13,23678235,-1565
32-14,23682141,10247
32-15,23686047,26735
32-16,23689953,27541
32-17,23693859,367
32-18,23697765,-16532
32-19,23701671,-12094
32-20,23705577,-6609
32-21,23709483,1696
32-22,23713389,16157
32-23,23717295,31122
32-24,23721201,21085
32-25,23725107,-8604
32-26,23729013,-16795
32-27,23732919,-10711
32-28,23736825,-9798
32-29,23740731,-11087
32-30,23744637,-6874
32-31,23748543,4515
32-32,23752449,499
32-1,23756360,-13692
32-2,23760266,-14855
32-3,23764172,-11855
32-4,23768078,-10718
32-5,23771984,-5056
32-6,23775890,11940
32-7,23779796,20400
32-8,23783702,-34
32-9,23787608,-15770
32-10,23791514,-11795
32-11,23795420,-6209
32-12,23799326,1385
32-13,23803232,14811
32-14,23807138,30005
32-15,23811044,21801
32-16,23814950,-6886
32-17,23818856,-16105
32-18,23822762,-10172
32-19,23826668,-4607
32-20,23830574,5323
32-21,23834480,21454
32-22,23838386,32059
32-23,23842292,13237
32-24,23846198,-13344
32-25,23850104,-15427
32-26,23854010,-8068
32-27,23857916,-2838
32-28,23861822,-36
32-29,23865728,1402
32-30,23869634,992
32-31,23873540,-7821
32-32,23877446,-14509
32-1,23881388,-13771
32-2,23885294,-12541
32-3,23889200,-11910
32-4,23893106,-7888
32-5,23897012,4569
32-6,23900918,6686
32-7,23904824,-8390
32-8,23908730,-14491
32-9,23912636,-10000
32-10,23916542,-4338
32-11,23920448,4499
32-12,23924354,19343
32-13,23928260,31279
32-14,23932166,14552
32-15,23936072,-11737
32-16,23939978,-14220
32-17,23943884,-8028
32-18,23947790,-1715
32-19,23951696,10075
32-20,23955602,26751
32-21,23959508,30826
32-22,23963414,4974
32-23,23967320,-15451
32-24,23971226,-12198
32-25,23975132,-7299
32-26,23979038,2826
32-27,23982944,15386
32-28,23986850,17293
32-29,23990756,7025
32-30,23994662,-9170
32-31,23998568,-15273
32-32,24002474,-13146
32-1,24006356,-12383
32-2,24010262,-11591
32-3,24014168,-4407
32-4,24018074,8135
32-5,24021980,3635
32-6,24025886,-12242
32-7,24029792,-14151
32-8,24033698,-9013
32-9,24037604,-2870
32-10,24041510,7483
32-11,24045416,23785
32-12,24049322,29648
32-13,24053228,5653
32-14,24057134,-15256
32-15,24061040,-12804
32-16,24064946,-6948
32-17,24068852,634
32-18,24072758,14047
32-19,24076664,30189
32-20,24080570,25709
32-21,24084476,-3503
32-22,24088382,-17015
32-23,24092288,-11668
32-24,24096194,-7697
32-25,24100100,-534
32-26,24104006,16351
32-27,24107912,27455
32-28,24111818,8819
32-29,24115724,-14488
32-30,24119630,-15287
32-31,24123536,-12415
32-32,24127442,-11528
32-1,24131353,-6458
32-2,24135259,8010
32-3,24139165,18823
32-4,24143071,2083
32-5,24146977,-15689
32-6,24150883,-14120
32-7,24154789,-10953
32-8,24158695,-8296
32-9,24162601,932
32-10,24166507,18275
32-11,24170413,19858
32-12,24174319,-4206
32-13,24178225,-16387
32-14,24182131,-10853
32-15,24186037,-3959
32-16,24189943,6437
32-17,24193849,21109
32-18,24197755,32071
32-19,24201661,18960
32-20,24205567,-10131
32-21,24209473,-16305
32-22,24213379,-10645
32-23,24217285,-6099
32-24,24221191,3694
32-25,24225097,20817
32-26,24229003,29521
32-27,24232909,7402
32-28,24236815,-15876
32-29,24240721,-15473
32-30,24244627,-12545
32-31,24248533,-11905
32-32,24252439,-4288
32-1,24256351,13376
32-2,24260257,17464
32-3,24264163,-4758
32-4,24268069,-17230
32-5,24271975,-13608
32-6,24275881,-12387
32-7,24279787,-10868
32-8,24283693,-1920
32-9,24287599,13422
32-10,24291505,9633
32-11,24295411,-10905
32-12,24299317,-15660
32-13,24303223,-10400
32-14,24307129,-4991
32-15,24311035,4879
32-16,24314941,21272
32-17,24318847,30489
32-18,24322753,9091
32-19,24326659,-15033
32-20,24330565,-14514
32-21,24334471,-8520
32-22,24338377,-1913
32-23,24342283,10541
32-24,24346189,27310
32-25,24350095,27241
32-26,24354001,-586
32-27,24357907,-17326
32-28,24361813,-13371
32-29,24365719,-12194
32-30,24369625,-13823
32-31,24373531,-7777
32-32,24377437,8409
32-1,24381348,8728
32-2,24385254,-10116
32-3,24389160,-16050
32-4,24393066,-12536
32-5,24396972,-12060
32-6,24400878,-10131
32-7,24404784,334
32-8,24408690,12901
32-9,24412596,3283
32-10,24416502,-13620
32-11,24420408,-13473
32-12,24424314,-7741
32-13,24428220,-621
32-14,24432126,11096
32-15,24436032,27521
32-16,24439938,28564
32-17,24443844,1341
32-18,24447750,-15925
32-19,24451656,-11560
32-20,24455562,-5950
32-21,24459468,2422
32-22,24463374,16852
32-23,24467280,31964
32-24,24471186,22357
32-25,24475092,-7481
32-26,24478998,-16066
32-27,24482904,-9951
32-28,24486810,-9001
32-29,24490716,-10390
32-30,24494622,-6354
32-31,24498528,5193
32-32,24502434,1478
32-1,24506346,-13017
32-2,24510252,-14464
32-3,24514158,-11675
32-4,24518064,-11295
32-5,24521970,-7899
32-6,24525876,5234
32-7,24529782,13631
32-8,24533688,-1704
32-9,24537594,-14554
32-10,24541500,-11087
32-11,24545406,-5144
32-12,24549312,3301
32-13,24553218,16763
32-14,24557124,31931
32-15,24561030,23695
32-16,24564936,-5755
32-17,24568842,-15615
32-18,24572748,-9454
32-19,24576654,-3510
32-20,24580560,6704
32-21,24584466,22719
32-22,24588372,32304
32-23,24592278,14525
32-24,24596184,-12412
32-25,24600090,-14876
32-26,24603996,-7288
32-27,24607902,-1637
32-28,24611808,1309
32-29,24615714,2882
32-30,24619620,2712
32-31,24623526,-6618
32-32,24627432,-14050
32-1,24631374,-13376
32-2,24635280,-12165
32-3,24639186,-11622
32-4,24643092,-7542
32-5,24646998,5158
32-6,24650904,7462
32-7,24654810,-7980
32-8,24658716,-14412
32-9,24662622,-9850
32-10,24666528,-4069
32-11,24670434,4961
32-12,24674340,19983
32-13,24678246,31928
32-14,24682152,14947
32-15,24686058,-11657
32-16,24689964,-14157
32-17,24693870,-7944
32-18,24697776,-1777
32-19,24701682,9892
32-20,24705588,26626
32-21,24709494,30864
32-22,24713400,4981
32-23,24717306,-15558
32-24,24721212,-12246
32-25,24725118,-7267
32-26,24729024,2972
32-27,24732930,15679
32-28,24736836,17717
32-29,24740742,7578
32-30,24744648,-8817
32-31,24748554,-15214
32-32,24752460,-13095
32-1,24756341,-12455
32-2,24760247,-11966
32-3,24764153,-5557
32-4,24768059,6207
32-5,24771965,2504
32-6,24775871,-12097
32-7,24779777,-13909
32-8,24783683,-9045
32-9,24787589,-3102
32-10,24791495,6969
32-11,24795401,23248
32-12,24799307,29416
32-13,24803213,5780
32-14,24807119,-14977
32-15,24811025,-12565
32-16,24814931,-6872
32-17,24818837,431
32-18,24822743,13653
32-19,24826649,29911
32-20,24830555,25684
32-21,24834461,-3390
32-22,24838367,-16769
32-23,24842273,-10865
32-24,24846179,-5082
32-25,24850085,4259
32-26,24853991,21349
32-27,24857897,30865
32-28,24861803,10343
32-29,24865709,-14213
32-30,24869615,-15151
32-31,24873521,-12071
32-32,24877427,-10700
32-1,24881339,-4014
32-2,24885245,12818
32-3,24889151,24027
32-4,24893057,4294
32-5,24896963,-16063
32-6,24900869,-14530
32-7,24904775,-11350
32-8,24908681,-9421
32-9,24912587,-1002
32-10,24916493,15685
32-11,24920399,17640
32-12,24924305,-5213
32-13,24928211,-16561
32-14,24932117,-10242
32-15,24936023,-1184
32-16,24939929,11836
32-17,24943835,25977
32-18,24947741,31627
32-19,24951647,18837
32-20,24955553,-10246
32-21,24959459,-16718
32-22,24963365,-10584
32-23,24967271,-4549
32-24,24971177,6107
32-25,24975083,22591
32-26,24978989,30139
32-27,24982895,7197
32-28,24986801,-16644
32-29,24990707,-16286
32-30,24994613,-12876
32-31,24998519,-10619
32-32,25002425,-68
32-1,25006398,19889
32-2,25010304,22760
32-3,25014210,-3756
32-4,25018116,-18678
32-5,25022022,-14743
32-6,25025928,-13810
32-7,25029834,-13280
32-8,25033740,-6041
32-9,25037646,7610
32-10,25041552,5384
32-11,25045458,-12308
32-12,25049364,-16486
32-13,25053270,-11201
32-14,25057176,-5151
32-15,25061082,4779
32-16,25064988,20750
32-17,25068894,29682
32-18,25072800,8345
32-19,25076706,-15714
32-20,25080612,-15513
32-21,25084518,-10505
32-22,25088424,-5806
32-23,25092330,5391
32-24,25096236,22933
32-25,25100142,24538
32-26,25104048,-1945
32-27,25107954,-18031
32-28,25111860,-13947
32-29,25115766,-12653
32-30,25119672,-14101
32-31,25123578,-7528
32-32,25127484,9242
32-1,25131334,9135
32-2,25135240,-10529
32-3,25139146,-16490
32-4,25143052,-12927
32-5,25146958,-12868
32-6,25150864,-11522
32-7,25154770,-2437
32-8,25158676,9284
32-9,25162582,1359
32-10,25166488,-13625
32-11,25170394,-13089
32-12,25174300,-6451
32-13,25178206,2435
32-14,25182112,14571
32-15,25186018,29765
32-16,25189924,29738
32-17,25193830,1833
32-18,25197736,-16285
32-19,25201642,-12460
32-20,25205548,-8029
32-21,25209454,-1697
32-22,25213360,12134
32-23,25217266,28514
32-24,25221172,20675
32-25,25225078,-7946
32-26,25228984,-16340
32-27,25232890,-10447
32-28,25236796,-9540
32-29,25240702,-10807
32-30,25244608,-7081
32-31,25248514,3823
32-32,25252420,539
32-1,25256332,-13103
32-2,25260238,-14533
32-3,25264144,-11822
32-4,25268050,-11381
32-5,25271956,-8165
32-6,25275862,4485
32-7,25279768,12715
32-8,25283674,-1991
32-9,25287580,-14260
32-10,25291486,-10201
32-11,25295392,-2503
32-12,25299298,8149
32-13,25303204,21518
32-14,25307110,32767
32-15,25311016,24544
32-16,25314922,-5151
32-17,25318828,-15664
32-18,25322734,-10289
32-19,25326640,-5923
32-20,25330546,2484
32-21,25334452,18637
32-22,25338358,30839
32-23,25342264,13803
32-24,25346170,-12428
32-25,25350076,-14935
32-26,25353982,-7717
32-27,25357888,-2543
32-28,25361794,334
32-29,25365700,1923
32-30,25369606,1677
32-31,25373512,-7092
32-32,25377418,-14020
32-1,25381360,-13463
32-2,25385266,-12078
32-3,25389172,-11155
32-4,25393078,-6429
32-5,25396984,7462
32-6,25400890,9592
32-7,25404796,-7654
32-8,25408702,-14835
32-9,25412608,-9931
32-10,25416514,-4120
32-11,25420420,4931
32-12,25424326,19882
32-13,25428232,31926
32-14,25432138,15384
32-15,25436044,-11352
32-16,25439950,-14197
32-17,25443856,-8003
32-18,25447762,-1730
32-19,25451668,9966
32-20,25455574,26641
32-21,25459480,31205
32-22,25463386,5482
32-23,25467292,-15512
32-24,25471198,-12372
32-25,25475104,-7267
32-26,25479010,2943
32-27,25482916,15538
32-28,25486822,17592
32-29,25490728,7597
32-30,25494634,-8881
32-31,25498540,-15367
32-32,25502446,-13214
32-1,25506327,-12609
32-2,25510233,-12101
32-3,25514139,-5754
32-4,25518045,6156
32-5,25521951,2771
32-6,25525857,-12079
32-7,25529763,-14185
32-8,25533669,-9191
32-9,25537575,-3107
32-10,25541481,6956
32-11,25545387,23252
32-12,25549293,29869
32-13,25553199,6412
32-14,25557105,-14873
32-15,25561011,-12647
32-16,25564917,-6837
32-17,25568823,438
32-18,25572729,13631
32-19,25576635,30022
32-20,25580541,26158
32-21,25584447,-2939
32-22,25588353,-16690
32-23,25592259,-10808
32-24,25596165,-4950
32-25,25600071,4365
32-26,25603977,21506
32-27,25607883,30935
32-28,25611789,10302
32-29,25615695,-14213
32-30,25619601,-15212
32-31,25623507,-12469
32-32,25627413,-12093
32-1,25631447,-7896
32-2,25635353,5498
32-3,25639259,16511
32-4,25643165,1176
32-5,25647071,-15898
32-6,25650977,-14337
32-7,25654883,-10716
32-8,25658789,-6936
32-9,25662695,3430
32-10,25666601,21056
32-11,25670507,21735
32-12,25674413,-3743
32-13,25678319,-16752
32-14,25682225,-11809
32-15,25686131,-6565
32-16,25690037,1992
32-17,25693943,16869
32-18,25697849,30927
32-19,25701755,17844
32-20,25705661,-10733
32-21,25709567,-16439
32-22,25713473,-10035
32-23,25717379,-3828
32-24,25721285,7312
32-25,25725191,23869
32-26,25729097,31236
32-27,25733003,8054
32-28,25736909,-15868
32-29,25740815,-15529
32-30,25744721,-12607
32-31,25748627,-11947
32-32,25752533,-4231
32-1,25756322,13543
32-2,25760228,17930
32-3,25764134,-4544
32-4,25768040,-17562
32-5,25771946,-13974
32-6,25775852,-13027
32-7,25779758,-12364
32-8,25783664,-5129
32-9,25787570,8832
32-10,25791476,6659
32-11,25795382,-11296
32-12,25799288,-15577
32-13,25803194,-10238
32-14,25807100,-3951
32-15,25811006,6266
32-16,25814912,22162
32-17,25818818,30896
32-18,25822724,9369
32-19,25826630,-14895
32-20,25830536,-14511
32-21,25834442,-8443
32-22,25838348,-1537
32-23,25842254,11195
32-24,25846160,27927
32-25,25850066,27653
32-26,25853972,-550
32-27,25857878,-17690
32-28,25861784,-13780
32-29,25865690,-12503
32-30,25869596,-14149
32-31,25873502,-8500
32-32,25877408,7086
32-1,25881320,7656
32-2,25885226,-10391
32-3,25889132,-16130
32-4,25893038,-12738
32-5,25896944,-12258
32-6,25900850,-10468
32-7,25904756,-431
32-8,25908662,11930
32-9,25912568,2837
32-10,25916474,-13548
32-11,25920380,-13447
32-12,25924286,-7799
32-13,25928192,-619
32-14,25932098,11120
32-15,25936004,27605
32-16,25939910,28842
32-17,25943816,1566
32-18,25947722,-16064
32-19,25951628,-11800
32-20,25955534,-6039
32-21,25959440,2514
32-22,25963346,16968
32-23,25967252,31836
32-24,25971158,22350
32-25,25975064,-7411
32-26,25978970,-16580
32-27,25982876,-11227
32-28,25986782,-10879
32-29,25990688,-12025
32-30,25994594,-8868
32-31,25998500,517
32-32,26002406,-1610
32-1,26006318,-12878
32-2,26010224,-14216
32-3,26014130,-11715
32-4,26018036,-10754
32-5,26021942,-6967
32-6,26025848,6597
32-7,26029754,14763
32-8,26033660,-1319
32-9,26037566,-14519
32-10,26041472,-11058
32-11,26045378,-5049
32-12,26049284,3641
32-13,26053190,17087
32-14,26057096,32033
32-15,26061002,24181
32-16,26064908,-5117
32-17,26068814,-15504
32-18,26072720,-10101
32-19,26076626,-5952
32-20,26080532,2231
32-21,26084438,18264
32-22,26088344,30633
32-23,26092250,13998
32-24,26096156,-12040
32-25,26100062,-14201
32-26,26103968,-4740
32-27,26107874,3243
32-28,26111780,6388
32-29,26115686,7634
32-30,26119592,6898
32-31,26123498,-4915
32-32,26127404,-14188
32-1,26131346,-13348
32-2,26135252,-12091
32-3,26139158,-11756
32-4,26143064,-7843
32-5,26146970,4644
32-6,26150876,7309
32-7,26154782,-7811
32-8,26158688,-14222
32-9,26162594,-8960
32-10,26166500,-1427
32-11,26170406,9105
32-12,26174312,23424
32-13,26178218,32662
32-14,26182124,16380
32-15,26186030,-11244
32-16,26189936,-14730
32-17,26193842,-9143
32-18,26197748,-4587
32-19,26201654,5858
32-20,26205560,23228
32-21,26209466,29392
32-22,26213372,5077
32-23,26217278,-15367
32-24,26221184,-12403
32-25,26225090,-7622
32-26,26228996,2205
32-27,26232902,14539
32-28,26236808,16554
32-29,26240714,6887
32-30,26244620,-8933
32-31,26248526,-15226
32-32,26252432,-13185
32-1,26256435,-12319
32-2,26260341,-11457
32-3,26264247,-4183
32-4,26268153,8849
32-5,26272059,4571
32-6,26275965,-11965
32-7,26279871,-13898
32-8,26283777,-7346
32-9,26287683,1246
32-10,26291589,13082
32-11,26295495,28075
32-12,26299401,32212
32-13,26303307,7364
32-14,26307213,-15159
32-15,26311119,-13510
32-16,26315025,-8433
32-17,26318931,-2661
32-18,26322837,9922
32-19,26326743,27195
32-20,26330649,24695
32-21,26334555,-3545
32-22,26338461,-17175
32-23,26342367,-11386
32-24,26346273,-5815
32-25,26350179,3181
32-26,26354085,20408
32-27,26357991,30019
32-28,26361897,9576
32-29,26365803,-14675
32-30,26369709,-15583
32-31,26373615,-12739
32-32,26377521,-11741
32-1,26381311,-6484
32-2,26385217,7930
32-3,26389123,19248
32-4,26393029,2720
32-5,26396935,-15950
32-6,26400841,-14830
32-7,26404747,-11779
32-8,26408653,-10024
32-9,26412559,-2186
32-10,26416465,14571
32-11,26420371,17654
32-12,26424277,-4630
32-13,26428183,-16741
32-14,26432089,-12095
32-15,26435995,-7161
32-16,26439901,831
32-17,26443807,15438
32-18,26447713,30076
32-19,26451619,17908
32-20,26455525,-10421
32-21,26459431,-16308
32-22,26463337,-9896
32-23,26467243,-3682
32-24,26471149,7372
32-25,26475055,23929
32-26,26478961,31599
32-27,26482867,8854
32-28,26486773,-15480
32-29,26490679,-15295
32-30,26494585,-12335
32-31,26498491,-11645
32-32,26502397,-3832
32-1,26506308,14123
32-2,26510214,18974
32-3,26514120,-3726
32-4,26518026,-17426
32-5,26521932,-13742
32-6,26525838,-12139
32-7,26529744,-10130
32-8,26533650,643
32-9,26537556,18278
32-10,26541462,13555
32-11,26545368,-10652
32-12,26549274,-16575
32-13,26553180,-10324
32-14,26557086,-4400
32-15,26560992,5656
32-16,26564898,21493
32-17,26568804,30232
32-18,26572710,8986
32-19,26576616,-15324
32-20,26580522,-14997
32-21,26584428,-8843
32-22,26588334,-1904
32-23,26592240,10703
32-24,26596146,27440
32-25,26600052,27552
32-26,26603958,-469
32-27,26607864,-17771
32-28,26611770,-13948
32-29,26615676,-12717
32-30,26619582,-14401
32-31,26623488,-8568
32-32,26627394,7449
32-1,26631306,8071
32-2,26635212,-10555
32-3,26639118,-16550
32-4,26643024,-13138
32-5,26646930,-12984
32-6,26650836,-11748
32-7,26654742,-2995
32-8,26658648,8604
32-9,26662554,1084
32-10,26666460,-13670
32-11,26670366,-13598
32-12,26674272,-8311
32-13,26678178,-1472
32-14,26682084,9929
32-15,26685990,26476
32-16,26689896,28160
32-17,26693802,1452
32-18,26697708,-15995
32-19,26701614,-11856
32-20,26705520,-6264
32-21,26709426,1920
32-22,26713332,16103
32-23,26717238,31340
32-24,26721144,22365
32-25,26725050,-7237
32-26,26728956,-16179
32-27,26732862,-10230
32-28,26736768,-9247
32-29,26740674,-10546
32-30,26744580,-6656
32-31,26748486,4599
32-32,26752392,1154
32-1,26756303,-13024
32-2,26760209,-14527
32-3,26764115,-11839
32-4,26768021,-11561
32-5,26771927,-8642
32-6,26775833,3120
32-7,26779739,11123
32-8,26783645,-2491
32-9,26787551,-14316
32-10,26791457,-11292
32-11,26795363,-5964
32-12,26799269,1591
32-13,26803175,14508
32-14,26807081,30288
32-15,26810987,23262
32-16,26814893,-5515
32-17,26818799,-15459
32-18,26822705,-9502
32-19,26826611,-3817
32-20,26830517,6146
32-21,26834423,22087
32-22,26838329,32501
32-23,26842235,14840
32-24,26846141,-12134
32-25,26850047,-14857
32-26,26853953,-7299
32-27,26857859,-1869
32-28,26861765,1050
32-29,26865671,2820
32-30,26869577,2795
32-31,26873483,-6397
32-32,26877389,-13915
32-1,26881271,-13312
32-2,26885177,-11826
32-3,26889083,-10905
32-4,26892989,-6138
32-5,26896895,7734
32-6,26900801,10043
32-7,26904707,-7081
32-8,26908613,-14404
32-9,26912519,-9578
32-10,26916425,-3581
32-11,26920331,5768
32-12,26924237,20675
32-13,26928143,32646
32-14,26932049,16233
32-15,26935955,-10932
32-16,26939861,-14378
32-17,26943767,-8981
32-18,26947673,-4764
32-19,26951579,5270
32-20,26955485,22525
32-21,26959391,29037
32-22,26963297,5238
32-23,26967203,-14844
32-24,26971109,-11343
32-25,26975015,-4610
32-26,26978921,7551
32-27,26982827,19883
32-28,26986733,20408
32-29,26990639,9265
32-30,26994545,-8234
32-31,26998451,-15187
32-32,27002357,-12939
32-1,27006299,-12423
32-2,27010205,-12020
32-3,27014111,-5937
32-4,27018017,5744
32-5,27021923,2638
32-6,27025829,-11878
32-7,27029735,-13740
32-8,27033641,-7893
32-9,27037547,-30
32-10,27041453,11050
32-11,27045359,26334
32-12,27049265,31595
32-13,27053171,7141
32-14,27057077,-15210
32-15,27060983,-13432
32-16,27064889,-8482
32-17,27068795,-3056
32-18,27072701,9257
32-19,27076607,26461
32-20,27080513,24303
32-21,27084419,-3459
32-22,27088325,-16569
32-23,27092231,-8864
32-24,27096137,2365
32-25,27100043,16679
32-26,27103949,30693
32-27,27107855,31374
32-28,27111761,11127
32-29,27115667,-13991
32-30,27119573,-16098
32-31,27123479,-13227
32-32,27127385,-12946
32-1,27131296,-9377
32-2,27135202,2981
32-3,27139108,14189
32-4,27143014,525
32-5,27146920,-16140
32-6,27150826,-14952
32-7,27154732,-11078
32-8,27158638,-6462
32-9,27162544,5024
32-10,27166450,23638
32-11,27170356,24291
32-12,27174262,-3101
32-13,27178168,-17736
32-14,27182074,-12784
32-15,27185980,-8312
32-16,27189886,-1354
32-17,27193792,12830
32-18,27197698,27622
32-19,27201604,16341
32-20,27205510,-11165
32-21,27209416,-16957
32-22,27213322,-10856
32-23,27217228,-5264
32-24,27221134,5133
32-25,27225040,21589
32-26,27228946,30054
32-27,27232852,8144
32-28,27236758,-15864
32-29,27240664,-15937
32-30,27244570,-12881
32-31,27248476,-12230
32-32,27252382,-4780
32-1,27256294,12766
32-2,27260200,17435
32-3,27264106,-4644
32-4,27268012,-17729
32-5,27271918,-14201
32-6,27275824,-13169
32-7,27279730,-12429
32-8,27283636,-5077
32-9,27287542,9403
32-10,27291448,7631
32-11,27295354,-10989
32-12,27299260,-15845
32-13,27303166,-10441
32-14,27307072,-4353
32-15,27310978,5570
32-16,27314884,21335
32-17,27318790,30467
32-18,27322696,9509
32-19,27326602,-14904
32-20,27330508,-14720
32-21,27334414,-8525
32-22,27338320,-1578
32-23,27342226,10935
32-24,27346132,27598
32-25,27350038,27871
32-26,27353944,-231
32-27,27357850,-17824
32-28,27361756,-13907
32-29,27365662,-12507
32-30,27369568,-14150
32-31,27373474,-8280
32-32,27377380,8040
32-1,27381292,8931
32-2,27385198,-10090
32-3,27389104,-16395
32-4,27393010,-12874
32-5,27396916,-12709
32-6,27400822,-11484
32-7,27404728,-2768
32-8,27408634,9089
32-9,27412540,1860
32-10,27416446,-13229
32-11,27420352,-13400
32-12,27424258,-8041
32-13,27428164,-1166
32-14,27432070,10140
32-15,27435976,26572
32-16,27439882,28607
32-17,27443788,1991
32-18,27447694,-15882
32-19,27451600,-11766
32-20,27455506,-6010
32-21,27459412,2300
32-22,27463318,16507
32-23,27467224,31768
32-24,27471130,23049
32-25,27475036,-6797
32-26,27478942,-16156
32-27,27482848,-10152
32-28,27486754,-9111
32-29,27490660,-10391
32-30,27494566,-6300
32-31,27498472,5350
32-32,27502378,1838
32-1,27506289,-12895
32-2,27510195,-14511
32-3,27514101,-11401
32-4,27518007,-10307
32-5,27521913,-4953
32-6,27525819,11645
32-7,27529725,20910
32-8,27533631,1285
32-9,27537537,-15068
32-10,27541443,-11451
32-11,27545349,-5803
32-12,27549255,1653
32-13,27553161,14836
32-14,27557067,30180
32-15,27560973,22835
32-16,27564879,-5927
32-17,27568785,-15890
32-18,27572691,-10010
32-19,27576597,-4527
32-20,27580503,5098
32-21,27584409,20999
32-22,27588315,32273
32-23,27592221,14585
32-24,27596127,-12397
32-25,27600033,-15151
32-26,27603939,-7789
32-27,27607845,-2771
32-28,27611751,-175
32-29,27615657,1298
32-30,27619563,1384
32-31,27623469,-7031
32-32,27627375,-14025
32-1,27631287,-13492
32-2,27635193,-12112
32-3,27639099,-11249
32-4,27643005,-6819
32-5,27646911,6552
32-6,27650817,9019
32-7,27654723,-7442
32-8,27658629,-14541
32-9,27662535,-9795
32-10,27666441,-3962
32-11,27670347,5111
32-12,27674253,20013
32-13,27678159,32291
32-14,27682065,16126
32-15,27685971,-10902
32-16,27689877,-14140
32-17,27693783,-7941
32-18,27697689,-1797
32-19,27701595,9772
32-20,27705501,26359
32-21,27709407,31135
32-22,27713313,5842
32-23,27717219,-15311
32-24,27721125,-12387
32-25,27725031,-7303
32-26,27728937,2801
32-27,27732843,15587
32-28,27736749,17806
32-29,27740655,7821
32-30,27744561,-8624
32-31,27748467,-15300
32-32,27752373,-13198
32-1,27756285,-12305
32-2,27760191,-11507
32-3,27764097,-4424
32-4,27768003,8369
32-5,27771909,4337
32-6,27775815,-11929
32-7,27779721,-14290
32-8,27783627,-9035
32-9,27787533,-2719
32-10,27791439,7610
32-11,27795345,23677
32-12,27799251,30076
32-13,27803157,6514
32-14,27807063,-15164
32-15,27810969,-13141
32-16,27814875,-7314
32-17,27818781,79
32-18,27822687,13349
32-19,27826593,29701
32-20,27830499,26101
32-21,27834405,-3011
32-22,27838311,-17169
32-23,27842217,-11274
32-24,27846123,-5303
32-25,27850029,3969
32-26,27853935,21129
32-27,27857841,30960
32-28,27861747,10670
32-29,27865653,-14280
32-30,27869559,-15565
32-31,27873465,-12461
32-32,27877371,-10986
32-1,27881282,-4144
32-2,27885188,12849
32-3,27889094,24651
32-4,27893000,4960
32-5,27896906,-16326
32-6,27900812,-15052
32-7,27904718,-11664
32-8,27908624,-9700
32-9,27912530,-1349
32-10,27916436,15502
32-11,27920342,18353
32-12,27924248,-4441
32-13,27928154,-16898
32-14,27932060,-11758
32-15,27935966,-5239
32-16,27939872,4479
32-17,27943778,18892
32-18,27947684,31763
32-19,27951590,18849
32-20,27955496,-10358
32-21,27959402,-17101
32-22,27963308,-11451
32-23,27967214,-7183
32-24,27971120,2006
32-25,27975026,18910
32-26,27978932,28670
32-27,27982838,7605
32-28,27986744,-16073
32-29,27990650,-15987
32-30,27994556,-12767
32-31,27998462,-11478
32-32,28002368,-2972
32-1,28006280,15472
32-2,28010186,20118
32-3,28014092,-3343
32-4,28017998,-17555
32-5,28021904,-14004
32-6,28025810,-13197
32-7,28029716,-13048
32-8,28033622,-6787
32-9,28037528,6393
32-10,28041434,5459
32-11,28045340,-11162
32-12,28049246,-15381
32-13,28053152,-9334
32-14,28057058,-1310
32-15,28060964,9774
32-16,28064870,24605
32-17,28068776,32011
32-18,28072682,10794
32-19,28076588,-14613
32-20,28080494,-15103
32-21,28084400,-9790
32-22,28088306,-4803
32-23,28092212,6708
32-24,28096118,24305
32-25,28100024,26366
32-26,28103930,-253
32-27,28107836,-17503
32-28,28111742,-13433
32-29,28115648,-11598
32-30,28119554,-12943
32-31,28123460,-4601
32-32,28127366,15130
32-1,28131277,14318
32-2,28135183,-9302
32-3,28139089,-16803
32-4,28142995,-12678
32-5,28146901,-12564
32-6,28150807,-10976
32-7,28154713,-1247
32-8,28158619,11118
32-9,28162525,2719
32-10,28166431,-13649
32-11,28170337,-13385
32-12,28174243,-6304
32-13,28178149,3088
32-14,28182055,15495
32-15,28185961,30269
32-16,28189867,30292
32-17,28193773,2309
32-18,28197679,-16687
32-19,28201585,-13105
32-20,28205491,-8446
32-21,28209397,-1962
32-22,28213303,11793
32-23,28217209,28162
32-24,28221115,20855
32-25,28225021,-7957
32-26,28228927,-16993
32-27,28232833,-11148
32-28,28236739,-10321
32-29,28240645,-11658
32-30,28244551,-8105
32-31,28248457,2939
32-32,28252363,409
32-1,28256275,-13049
32-2,28260181,-14684
32-3,28264087,-11828
32-4,28267993,-11092
32-5,28271899,-7049
32-6,28275805,7979
32-7,28279711,17709
32-8,28283617,309
32-9,28287523,-15090
32-10,28291429,-11817
32-11,28295335,-6474
32-12,28299241,542
32-13,28303147,13337
32-14,28307053,29027
32-15,28310959,22677
32-16,28314865,-5621
32-17,28318771,-15809
32-18,28322677,-10037
32-19,28326583,-4672
32-20,28330489,4767
32-21,28334395,20605
32-22,28338301,32132
32-23,28342207,14742
32-24,28346113,-12324
32-25,28350019,-15288
32-26,28353925,-7925
32-27,28357831,-2689
32-28,28361737,164
32-29,28365643,1707
32-30,28369549,1881
32-31,28373455,-6639
32-32,28377361,-13930
32-1,28381303,-13412
32-2,28385209,-11585
32-3,28389115,-9801
32-4,28393021,-2791
32-5,28396927,14660
32-6,28400833,16582
32-7,28404739,-5757
32-8,28408645,-15610
32-9,28412551,-10149
32-10,28416457,-4709
32-11,28420363,3850
32-12,28424269,18635
32-13,28428175,31055
32-14,28432081,15517
32-15,28435987,-11376
32-16,28439893,-14736
32-17,28443799,-8497
32-18,28447705,-2485
32-19,28451611,8834
32-20,28455517,25551
32-21,28459423,30966
32-22,28463329,5990
32-23,28467235,-15391
32-24,28471141,-12620
32-25,28475047,-7673
32-26,28478953,2149
32-27,28482859,14652
32-28,28486765,16794
32-29,28490671,7104
32-30,28494577,-9015
32-31,28498483,-15573
32-32,28502389,-13455
32-1,28506270,-12563
32-2,28510176,-11786
32-3,28514082,-4940
32-4,28517988,7696
32-5,28521894,3967
32-6,28525800,-12043
32-7,28529706,-14419
32-8,28533612,-9191
32-9,28537518,-2912
32-10,28541424,7384
32-11,28545330,23528
32-12,28549236,30213
32-13,28553142,6851
32-14,28557048,-14960
32-15,28560954,-13034
32-16,28564860,-7272
32-17,28568766,-191
32-18,28572672,12804
32-19,28576578,29254
32-20,28580484,26070
32-21,28584390,-2700
32-22,28588296,-16857
32-23,28592202,-11224
32-24,28596108,-5708
32-25,28600014,3227
32-26,28603920,20438
32-27,28607826,30377
32-28,28611732,10355
32-29,28615638,-14163
32-30,28619544,-15428
32-31,28623450,-12754
32-32,28627356,-12473
32-1,28631268,-8591
32-2,28635174,4233
32-3,28639080,15676
32-4,28642986,1458
32-5,28646892,-15643
32-6,28650798,-14441
32-7,28654704,-10819
32-8,28658610,-7389
32-9,28662516,2166
32-10,28666422,19363
32-11,28670328,21020
32-12,28674234,-3583
32-13,28678140,-16889
32-14,28682046,-12093
32-15,28685952,-6917
32-16,28689858,1361
32-17,28693764,16072
32-18,28697670,30604
32-19,28701576,18571
32-20,28705482,-10078
32-21,28709388,-16460
32-22,28713294,-10089
32-23,28717200,-3895
32-24,28721106,7235
32-25,28725012,23741
32-26,28728918,31539
32-27,28732824,9103
32-28,28736730,-15567
32-29,28740636,-15823
32-30,28744542,-12215
32-31,28748448,-9735
32-32,28752354,961
32-1,28756266,21151
32-2,28760172,24629
32-3,28764078,-2183
32-4,28767984,-18146
32-5,28771890,-14317
32-6,28775796,-13317
32-7,28779702,-12995
32-8,28783608,-6072
32-9,28787514,7552
32-10,28791420,6039
32-11,28795326,-11574
32-12,28799232,-16196
32-13,28803138,-10943
32-14,28807044,-4781
32-15,28810950,5238
32-16,28814856,21046
32-17,28818762,30490
32-18,28822668,9815
32-19,28826574,-14885
32-20,28830480,-15003
32-21,28834386,-8805
32-22,28838292,-1850
32-23,28842198,10671
32-24,28846104,27327
32-25,28850010,27844
32-26,28853916,-108
32-27,28857822,-18006
32-28,28861728,-14313
32-29,28865634,-13098
32-30,28869540,-14830
32-31,28873446,-10216
32-32,28877352,3579
32-1,28881263,5147
32-2,28885169,-10619
32-3,28889075,-16166
32-4,28892981,-12980
32-5,28896887,-11989
32-6,28900793,-9780
32-7,28904699,844
32-8,28908605,13999
32-9,28912511,4450
32-10,28916417,-13400
32-11,28920323,-13664
32-12,28924229,-7712
32-13,28928135,-362
32-14,28932041,11354
32-15,28935947,27593
32-16,28939853,29485
32-17,28943759,2474
32-18,28947665,-16169
32-19,28951571,-12527
32-20,28955477,-8132
32-21,28959383,-2050
32-22,28963289,11360
32-23,28967195,27980
32-24,28971101,21368
32-25,28975007,-7162
32-26,28978913,-15929
32-27,28982819,-8879
32-28,28986725,-6718
32-29,28990631,-8099
32-30,28994537,-3317
32-31,28998443,10229
32-32,29002349,5256
32-1,29006261,-12859
32-2,29010167,-14892
32-3,29014073,-11799
32-4,29017979,-12163
32-5,29021885,-9672
32-6,29025791,1387
32-7,29029697,9814
32-8,29033603,-2563
32-9,29037509,-14210
32-10,29041415,-10925
32-11,29045321,-4001
32-12,29049227,5664
32-13,29053133,18700
32-14,29057039,32767
32-15,29060945,24926
32-16,29064851,-4650
32-17,29068757,-15802
32-18,29072663,-10468
32-19,29076569,-6341
32-20,29080475,1657
32-21,29084381,17574
32-22,29088287,30359
32-23,29092193,14345
32-24,29096099,-12103
32-25,29100005,-15123
32-26,29103911,-7906
32-27,29107817,-2880
32-28,29111723,-135
32-29,29115629,1450
32-30,29119535,1680
32-31,29123441,-6645
32-32,29127347,-13820
32-1,29131320,-13378
32-2,29135226,-11918
32-3,29139132,-10967
32-4,29143038,-6538
32-5,29146944,7113
32-6,29150850,10069
32-7,29154756,-6721
32-8,29158662,-14172
32-9,29162568,-8343
32-10,29166474,25
32-11,29170380,11451
32-12,29174286,25488
32-13,29178192,32699
32-14,29182098,17510
32-15,29186004,-10514
32-16,29189910,-14714
32-17,29193816,-9097
32-18,29197722,-4561
32-19,29201628,5612
32-20,29205534,22935
32-21,29209440,29761
32-22,29213346,5836
32-23,29217252,-15255
32-24,29221158,-12555
32-25,29225064,-7870
32-26,29228970,1511
32-27,29232876,13812
32-28,29236782,16143
32-29,29240688,6955
32-30,29244594,-8646
32-31,29248500,-15121
32-32,29252406,-13015
32-1,29256256,-11660
32-2,29260162,-10010
32-3,29264068,-301
32-4,29267974,15832
32-5,29271880,9915
32-6,29275786,-11435
32-7,29279692,-14940
32-8,29283598,-9204
32-9,29287504,-3804
32-10,29291410,6017
32-11,29295316,22180
32-12,29299222,29381
32-13,29303128,6671
32-14,29307034,-15164
32-15,29310940,-13358
32-16,29314846,-7557
32-17,29318752,-517
32-18,29322658,12354
32-19,29326564,28934
32-20,29330470,26124
32-21,29334376,-2779
32-22,29338282,-17287
32-23,29342188,-11516
32-24,29346094,-5860
32-25,29350000,3018
32-26,29353906,20109
32-27,29357812,29805
32-28,29361718,9719
32-29,29365624,-14637
32-30,29369530,-15763
32-31,29373436,-13109
32-32,29377342,-12933
32-1,29381254,-9546
32-2,29385160,2295
32-3,29389066,13821
32-4,29392972,865
32-5,29396878,-15732
32-6,29400784,-14688
32-7,29404690,-10968
32-8,29408596,-7364
32-9,29412502,2330
32-10,29416408,19774
32-11,29420314,21708
32-12,29424220,-3104
32-13,29428126,-16807
32-14,29432032,-12024
32-15,29435938,-6891
32-16,29439844,1224
32-17,29443750,15904
32-18,29447656,30500
32-19,29451562,18443
32-20,29455468,-10345
32-21,29459374,-16698
32-22,29463280,-10183
32-23,29467186,-3966
32-24,29471092,6942
32-25,29474998,23379
32-26,29478904,31531
32-27,29482810,9046
32-28,29486716,-15575
32-29,29490622,-15662
32-30,29494528,-12581
32-31,29498434,-11951
32-32,29502340,-4543
32-1,29506251,12959
32-2,29510157,18162
32-3,29514063,-3813
32-4,29517969,-17448
32-5,29521875,-14010
32-6,29525781,-12955
32-7,29529687,-12372
32-8,29533593,-5466
32-9,29537499,8518
32-10,29541405,7252
32-11,29545311,-10597
32-12,29549217,-15436
32-13,29553123,-10176
32-14,29557029,-3988
32-15,29560935,5995
32-16,29564841,21656
32-17,29568747,30998
32-18,29572653,10245
32-19,29576559,-14620
32-20,29580465,-14749
32-21,29584371,-8582
32-22,29588277,-1837
32-23,29592183,10549
32-24,29596089,27292
32-25,29599995,28094
32-26,29603901,363
32-27,29607807,-17565
32-28,29611713,-13847
32-29,29615619,-12411
32-30,29619525,-14130
32-31,29623431,-8493
32-32,29627337,7630
32-1,29631249,8896
32-2,29635155,-9705
32-3,29639061,-16123
32-4,29642967,-12630
32-5,29646873,-12165
32-6,29650779,-10506
32-7,29654685,-773
32-8,29658591,11883
32-9,29662497,3486
32-10,29666403,-13233
32-11,29670309,-13527
32-12,29674215,-7864
32-13,29678121,-734
32-14,29682027,10865
32-15,29685933,27255
32-16,29689839,29392
32-17,29693745,2635
32-18,29697651,-15857
32-19,29701557,-11934
32-20,29705463,-6032
32-21,29709369,2509
32-22,29713275,16817
32-23,29717181,31890
32-24,29721087,23240
32-25,29724993,-6713
32-26,29728899,-16532
32-27,29732805,-10536
32-28,29736711,-9303
32-29,29740617,-10633
32-30,29744523,-6659
32-31,29748429,5195
32-32,29752335,2052
32-1,29756247,-12831
32-2,29760153,-14655
32-3,29764059,-11768
32-4,29767965,-11531
32-5,29771871,-8609
32-6,29775777,3610
32-7,29779683,12419
32-8,29783589,-1473
32-9,29787495,-14306
32-10,29791401,-11395
32-11,29795307,-5670
32-12,29799213,2492
32-13,29803119,15595
32-14,29807025,31153
32-15,29810931,24566
32-16,29814837,-4503
32-17,29818743,-15543
32-18,29822649,-10320
32-19,29826555,-6428
32-20,29830461,1212
32-21,29834367,16920
32-22,29838273,29936
32-23,29842179,14439
32-24,29846085,-11675
32-25,29849991,-14412
32-26,29853897,-5484
32-27,29857803,1732
32-28,29861709,4512
32-29,29865615,5734
32-30,29869521,5873
32-31,29873427,-4720
32-32,29877333,-13951
32-1,29881427,-13350
32-2,29885333,-12008
32-3,29889239,-11645
32-4,29893145,-7969
32-5,29897051,4441
32-6,29900957,7742
32-7,29904863,-7298
32-8,29908769,-14243
32-9,29912675,-9135
32-10,29916581,-1790
32-11,29920487,8524
32-12,29924393,22683
32-13,29928299,32767
32-14,29932205,17303
32-15,29936111,-10692
32-16,29940017,-14867
32-17,29943923,-9166
32-18,29947829,-4682
32-19,29951735,5412
32-20,29955641,22659
32-21,29959547,29673
32-22,29963453,6176
32-23,29967359,-14707
32-24,29971265,-11106
32-25,29975171,-1317
32-26,29979077,14131
32-27,29982983,26403
32-28,29986889,26257
32-29,29990795,14099
32-30,29994701,-7173
32-31,29998607,-16301
32-32,30002513,-13400
32-1,30006242,-12517
32-2,30010148,-11724
32-3,30014054,-3425
32-4,30017960,11565
32-5,30021866,7256
32-6,30025772,-11991
32-7,30029678,-15071
32-8,30033584,-8726
32-9,30037490,-1612
32-10,30041396,9027
32-11,30045302,24388
32-12,30049208,30326
32-13,30053114,6439
32-14,30057020,-16216
32-15,30060926,-14696
32-16,30064832,-9897
32-17,30068738,-4902
32-18,30072644,6900
32-19,30076550,24296
32-20,30080456,23417
32-21,30084362,-3695
32-22,30088268,-17686
32-23,30092174,-12178
32-24,30096080,-6932
32-25,30099986,1379
32-26,30103892,18422
32-27,30107798,28704
32-28,30111704,9223
32-29,30115610,-14877
32-30,30119516,-16043
32-31,30123422,-13256
32-32,30127328,-12468
32-1,30131240,-7841
32-2,30135146,5646
32-3,30139052,17567
32-4,30142958,2578
32-5,30146864,-15969
32-6,30150770,-15053
32-7,30154676,-10911
32-8,30158582,-5961
32-9,30162488,5939
32-10,30166394,24768
32-11,30170300,26019
32-12,30174206,-1734
32-13,30178112,-17537
32-14,30182018,-12705
32-15,30185924,-7995
32-16,30189830,-840
32-17,30193736,13407
32-18,30197642,28314
32-19,30201548,17441
32-20,30205454,-10600
32-21,30209360,-17136
32-22,30213266,-10957
32-23,30217172,-5243
32-24,30221078,5117
32-25,30224984,21538
32-26,30228890,30329
32-27,30232796,8494
32-28,30236702,-16018
32-29,30240608,-16172
32-30,30244514,-13141
32-31,30248420,-12526
32-32,30252326,-5127
32-1,30256237,12338
32-2,30260143,17870
32-3,30264049,-3947
32-4,30267955,-17903
32-5,30271861,-14494
32-6,30275767,-13096
32-7,30279673,-12018
32-8,30283579,-3200
32-9,30287485,13822
32-10,30291391,11866
32-11,30295297,-10237
32-12,30299203,-16584
32-13,30303109,-10820
32-14,30307015,-5544
32-15,30310921,3557
32-16,30314827,19117
32-17,30318733,29179
32-18,30322639,9700
32-19,30326545,-14741
32-20,30330451,-15048
32-21,30334357,-8992
32-22,30338263,-2478
32-23,30342169,9606
32-24,30346075,26370
32-25,30349981,27774
32-26,30353887,457
32-27,30357793,-17675
32-28,30361699,-14061
32-29,30365605,-12575
32-30,30369511,-14269
32-31,30373417,-8954
32-32,30377323,6681
32-1,30381235,8243
32-2,30385141,-9932
32-3,30389047,-16464
32-4,30392953,-12800
32-5,30396859,-11628
32-6,30400765,-8520
32-7,30404671,4669
32-8,30408577,19745
32-9,30412483,7864
32-10,30416389,-13570
32-11,30420295,-14294
32-12,30424201,-8380
32-13,30428107,-2209
32-14,30432013,9013
32-15,30435919,25484
32-16,30439825,28001
32-17,30443731,1832
32-18,30447637,-16337
32-19,30451543,-12459
32-20,30455449,-6904
32-21,30459355,1027
32-22,30463261,14987
32-23,30467167,30479
32-24,30471073,22423
32-25,30474979,-7199
32-26,30478885,-16821
32-27,30482791,-10916
32-28,30486697,-9950
32-29,30490603,-11284
32-30,30494509,-7567
32-31,30498415,3757
32-32,30502321,1006
32-1,30506263,-13060
32-2,30510169,-14797
32-3,30514075,-12037
32-4,30517981,-11771
32-5,30521887,-8966
32-6,30525793,2993
32-7,30529699,11769
32-8,30533605,-1847
32-9,30537511,-14524
32-10,30541417,-11619
32-11,30545323,-6007
32-12,30549229,1959
32-13,30553135,14969
32-14,30557041,30545
32-15,30560947,24069
32-16,30564853,-4819
32-17,30568759,-15614
32-18,30572665,-9812
32-19,30576571,-4278
32-20,30580477,5355
32-21,30584383,21149
32-22,30588289,32390
32-23,30592195,15442
32-24,30596101,-11863
32-25,30600007,-15204
32-26,30603913,-7819
32-27,30607819,-2808
32-28,30611725,-256
32-29,30615631,1191
32-30,30619537,1558
32-31,30623443,-6578
32-32,30627349,-13818
32-1,30631322,-13380
32-2,30635228,-11924
32-3,30639134,-11129
32-4,30643040,-6792
32-5,30646946,6727
32-6,30650852,9650
32-7,30654758,-6898
32-8,30658664,-14231
32-9,30662570,-8718
32-10,30666476,-405
32-11,30670382,11959
32-12,30674288,26503
32-13,30678194,32711
32-14,30682100,18040
32-15,30686006,-10021
32-16,30689912,-14562
32-17,30693818,-8449
32-18,30697724,-2735
32-19,30701630,8019
32-20,30705536,24626
32-21,30709442,30633
32-22,30713348,6398
32-23,30717254,-15220
32-24,30721160,-12774
32-25,30725066,-7817
32-26,30728972,1787
32-27,30732878,14223
32-28,30736784,16671
32-29,30740690,7401
32-30,30744596,-8606
32-31,30748502,-15305
32-32,30752408,-13279
32-1,30756228,-12448
32-2,30760134,-11705
32-3,30764040,-5009
32-4,30767946,7743
32-5,30771852,4435
32-6,30775758,-11778
32-7,30779664,-14573
32-8,30783570,-9473
32-9,30787476,-3502
32-10,30791382,6537
32-11,30795288,22575
32-12,30799194,29642
32-13,30803100,7069
32-14,30807006,-14771
32-15,30810912,-13420
32-16,30814818,-9025
32-17,30818724,-4713
32-18,30822630,6312
32-19,30826536,23532
32-20,30830442,23326
32-21,30834348,-2869
32-22,30838254,-16476
32-23,30842160,-10272
32-24,30846066,-2571
32-25,30849972,8213
32-26,30853878,24685
32-27,30857784,31780
32-28,30861690,12046
32-29,30865596,-13390
32-30,30869502,-15249
32-31,30873408,-12424
32-32,30877314,-12118
32-1,30881225,-8368
32-2,30885131,4198
32-3,30889037,15996
32-4,30892943,2293
32-5,30896849,-15322
32-6,30900755,-14591
32-7,30904661,-11293
32-8,30908567,-8884
32-9,30912473,-514
32-10,30916379,16603
32-11,30920285,19937
32-12,30924191,-3238
32-13,30928097,-16532
32-14,30932003,-11433
32-15,30935909,-4834
32-16,30939815,4844
32-17,30943721,19186
32-18,30947627,32038
32-19,30951533,20119
32-20,30955439,-9504
32-21,30959345,-16928
32-22,30963251,-11121
32-23,30967157,-6745
32-24,30971063,2502
32-25,30974969,19372
32-26,30978875,29436
32-27,30982781,8828
32-28,30986687,-15367
32-29,30990593,-15700
32-30,30994499,-12445
32-31,30998405,-11858
32-32,31002311,-4829
32-1,31006223,12502
32-2,31010129,18121
32-3,31014035,-3363
32-4,31017941,-17025
32-5,31021847,-13687
32-6,31025753,-12827
32-7,31029659,-12661
32-8,31033565,-6800
32-9,31037471,6084
32-10,31041377,5716
32-11,31045283,-10538
32-12,31049189,-14999
32-13,31053095,-9014
32-14,31057001,-949
32-15,31060907,10122
32-16,31064813,24860
32-17,31068719,32234
32-18,31072625,12004
32-19,31076531,-14009
32-20,31080437,-14932
32-21,31084343,-9551
32-22,31088249,-4758
32-23,31092155,6478
32-24,31096061,24006
32-25,31099967,26750
32-26,31103873,555
32-27,31107779,-17198
32-28,31111685,-13643
32-29,31115591,-12148
32-30,31119497,-13729
32-31,31123403,-8824
32-32,31127309,5782
32-1,31131282,7518
32-2,31135188,-9442
32-3,31139094,-15713
32-4,31143000,-12443
32-5,31146906,-11826
32-6,31150812,-10299
32-7,31154718,-773
32-8,31158624,12119
32-9,31162530,4115
32-10,31166436,-12782
32-11,31170342,-13305
32-12,31174248,-7807
32-13,31178154,-1232
32-14,31182060,9957
32-15,31185966,26447
32-16,31189872,29190
32-17,31193778,2957
32-18,31197684,-15546
32-19,31201590,-11725
32-20,31205496,-6097
32-21,31209402,1813
32-22,31213308,15695
32-23,31217214,31274
32-24,31221120,23602
32-25,31225026,-6167
32-26,31228932,-16154
32-27,31232838,-10162
32-28,31236744,-9115
32-29,31240650,-10493
32-30,31244556,-6882
32-31,31248462,4688
32-32,31252368,2195
32-1,31256218,-12309
32-2,31260124,-14303
32-3,31264030,-11091
32-4,31267936,-9907
32-5,31271842,-4852
32-6,31275748,11359
32-7,31279654,21420
32-8,31283560,2465
32-9,31287466,-14706
32-10,31291372,-11502
32-11,31295278,-5797
32-12,31299184,1538
32-13,31303090,14505
32-14,31306996,30167
32-15,31310902,24179
32-16,31314808,-4597
32-17,31318714,-15701
32-18,31322620,-9888
32-19,31326526,-4244
32-20,31330432,5383
32-21,31334338,21147
32-22,31338244,32256
32-23,31342150,15899
32-24,31346056,-11615
32-25,31349962,-15201
32-26,31353868,-7741
32-27,31357774,-2458
32-28,31361680,273
32-29,31365586,1799
32-30,31369492,2178
32-31,31373398,-6343
32-32,31377304,-13947
32-1,31381338,-13500
32-2,31385244,-12087
32-3,31389150,-11268
32-4,31393056,-6995
32-5,31396962,6340
32-6,31400868,9475
32-7,31404774,-6886
32-8,31408680,-14573
32-9,31412586,-10008
32-10,31416492,-4316
32-11,31420398,4503
32-12,31424304,19169
32-13,31428210,31943
32-14,31432116,16725
32-15,31436022,-10622
32-16,31439928,-14446
32-17,31443834,-8168
32-18,31447740,-2061
32-19,31451646,9369
32-20,31455552,25932
32-21,31459458,31531
32-22,31463364,6933
32-23,31467270,-14930
32-24,31471176,-12540
32-25,31475082,-7518
32-26,31478988,2258
32-27,31482894,14813
32-28,31486800,17226
32-29,31490706,7953
32-30,31494612,-8149
32-31,31498518,-15050
32-32,31502424,-13041
32-1,31506214,-12215
32-2,31510120,-11540
32-3,31514026,-4731
32-4,31517932,8276
32-5,31521838,4955
32-6,31525744,-11484
32-7,31529650,-14302
32-8,31533556,-9106
32-9,31537462,-2914
32-10,31541368,7289
32-11,31545274,23303
32-12,31549180,30429
32-13,31553086,7468
32-14,31556992,-14917
32-15,31560898,-13248
32-16,31564804,-7233
32-17,31568710,118
32-18,31572616,13278
32-19,31576522,29697
32-20,31580428,26975
32-21,31584334,-1863
32-22,31588240,-16887
32-23,31592146,-11311
32-24,31596052,-5467
32-25,31599958,3537
32-26,31603864,20656
32-27,31607770,30700
32-28,31611676,10944
32-29,31615582,-13932
32-30,31619488,-15453
32-31,31623394,-12439
32-32,31627300,-11206
32-1,31631211,-4958
32-2,31635117,11279
32-3,31639023,23781
32-4,31642929,5529
32-5,31646835,-15903
32-6,31650741,-15099
32-7,31654647,-11600
32-8,31658553,-9658
32-9,31662459,-1559
32-10,31666365,15198
32-11,31670271,18881
32-12,31674177,-3534
32-13,31678083,-16695
32-14,31681989,-11834
32-15,31685895,-5438
32-16,31689801,4111
32-17,31693707,18466
32-18,31697613,31702
32-19,31701519,19537
32-20,31705425,-9958
32-21,31709331,-17170
32-22,31713237,-10614
32-23,31717143,-4061
32-24,31721049,7280
32-25,31724955,23596
32-26,31728861,31196
32-27,31732767,9641
32-28,31736673,-15816
32-29,31740579,-16560
32-30,31744485,-12845
32-31,31748391,-11181
32-32,31752297,-1889
32-1,31756331,17841
32-2,31760237,22775
32-3,31764143,-2486
32-4,31768049,-18403
32-5,31771955,-14753
32-6,31775861,-13373
32-7,31779767,-12498
32-8,31783673,-4726
32-9,31787579,10175
32-10,31791485,8553
32-11,31795391,-11098
32-12,31799297,-16767
32-13,31803203,-11239
32-14,31807109,-4874
32-15,31811015,5319
32-16,31814921,20888
32-17,31818827,30608
32-18,31822733,10431
32-19,31826639,-15145
32-20,31830545,-16046
32-21,31834451,-10709
32-22,31838357,-5935
32-23,31842263,5154
32-24,31846169,22724
32-25,31850075,25771
32-26,31853981,-266
32-27,31857887,-18024
32-28,31861793,-14387
32-29,31865699,-12758
32-30,31869605,-14285
32-31,31873511,-8198
32-32,31877417,8688
32-1,31881206,10117
32-2,31885112,-9587
32-3,31889018,-16757
32-4,31892924,-13158
32-5,31896830,-12927
32-6,31900736,-11857
32-7,31904642,-3387
32-8,31908548,8845
32-9,31912454,2220
32-10,31916360,-13308
32-11,31920266,-13622
32-12,31924172,-7076
32-13,31928078,1672
32-14,31931984,13635
32-15,31935890,28875
32-16,31939796,30445
32-17,31943702,3391
32-18,31947608,-16111
32-19,31951514,-12852
32-20,31955420,-8299
32-21,31959326,-2150
32-22,31963232,11249
32-23,31967138,27942
32-24,31971044,21934
32-25,31974950,-6697
32-26,31978856,-16586
32-27,31982762,-10842
32-28,31986668,-9880
32-29,31990574,-11209
32-30,31994480,-7836
32-31,31998386,3215
32-32,32002292,1081
32-1,32006204,-12708
32-2,32010110,-14791
32-3,32014016,-11999
32-4,32017922,-11514
32-5,32021828,-8622
32-6,32025734,3577
32-7,32029640,12872
32-8,32033546,-988
32-9,32037452,-14246
32-10,32041358,-9939
32-11,32045264,255
32-12,32049170,14125
32-13,32053076,27006
32-14,32056982,32676
32-15,32060888,25818
32-16,32064794,-3579
32-17,32068700,-16024
32-18,32072606,-11153
32-19,32076512,-7003
32-20,32080418,174
32-21,32084324,15526
32-22,32088230,28935
32-23,32092136,14164
32-24,32096042,-12231
32-25,32099948,-15690
32-26,32103854,-8646
32-27,32107760,-4033
32-28,32111666,-1433
32-29,32115572,122
32-30,32119478,624
32-31,32123384,-7051
32-32,32127290,-14066
32-1,32131354,-13687
32-2,32135260,-11906
32-3,32139166,-10301
32-4,32143072,-4171
32-5,32146978,12416
32-6,32150884,15415
32-7,32154790,-5541
32-8,32158696,-15554
32-9,32162602,-10390
32-10,32166508,-5155
32-11,32170414,2926
32-12,32174320,17433
32-13,32178226,30496
32-14,32182132,16071
32-15,32186038,-10932
32-16,32189944,-14863
32-17,32193850,-8700
32-18,32197756,-2852
32-19,32201662,8116
32-20,32205568,24666
32-21,32209474,31100
32-22,32213380,6960
32-23,32217286,-15249
32-24,32221192,-12963
32-25,32225098,-7900
32-26,32229004,1604
32-27,32232910,13917
32-28,32236816,16477
32-29,32240722,7516
32-30,32244628,-8520
32-31,32248534,-15452
32-32,32252440,-13327
32-1,32256199,-11914
32-2,32260105,-10104
32-3,32264011,-295
32-4,32267917,16353
32-5,32271823,10907
32-6,32275729,-11245
32-7,32279635,-15366
32-8,32283541,-9392
32-9,32287447,-3850
32-10,32291353,6007
32-11,32295259,21996
32-12,32299165,29406
32-13,32303071,7061
32-14,32306977,-15224
32-15,32310883,-13733
32-16,32314789,-7913
32-17,32318695,-1000
32-18,32322601,11802
32-19,32326507,28570
32-20,32330413,26459
32-21,32334319,-2211
32-22,32338225,-17252
32-23,32342131,-11708
32-24,32346037,-6169
32-25,32349943,2480
32-26,32353849,19544
32-27,32357755,29673
32-28,32361661,10152
32-29,32365567,-14382
32-30,32369473,-15860
32-31,32373379,-13082
32-32,32377285,-12700
32-1,32381319,-8957
32-2,32385225,3646
32-3,32389131,15729
32-4,32393037,2033
32-5,32396943,-15737
32-6,32400849,-14875
32-7,32404755,-11078
32-8,32408661,-7541
32-9,32412567,2113
32-10,32416473,19507
32-11,32420379,21897
32-12,32424285,-2694
32-13,32428191,-16706
32-14,32432097,-11494
32-15,32436003,-4161
32-16,32439909,7540
32-17,32443815,22868
32-18,32447721,31838
32-19,32451627,20738
32-20,32455533,-9073
32-21,32459439,-16965
32-22,32463345,-10904
32-23,32467251,-5320
32-24,32471157,4690
32-25,32475063,21166
32-26,32478969,30362
32-27,32482875,9008
32-28,32486781,-15913
32-29,32490687,-16516
32-30,32494593,-13176
32-31,32498499,-12527
32-32,32502405,-5585
32-1,32506195,11629
32-2,32510101,17653
32-3,32514007,-3613
32-4,32517913,-17703
32-5,32521819,-14491
32-6,32525725,-13309
32-7,32529631,-12801
32-8,32533537,-6213
32-9,32537443,7633
32-10,32541349,6941
32-11,32545255,-10787
32-12,32549161,-16062
32-13,32553067,-10898
32-14,32556973,-4754
32-15,32560879,5174
32-16,32564785,20776
32-17,32568691,30773
32-18,32572597,10963
32-19,32576503,-14267
32-20,32580409,-14968
32-21,32584315,-8826
32-22,32588221,-2182
32-23,32592127,10057
32-24,32596033,26784
32-25,32599939,28356
32-26,32603845,1076
32-27,32607751,-17561
32-28,32611657,-14140
32-29,32615563,-12566
32-30,32619469,-14309
32-31,32623375,-9047
32-32,32627281,6752
32-1,32631192,8738
32-2,32635098,-9467
32-3,32639004,-16340
32-4,32642910,-12883
32-5,32646816,-12326
32-6,32650722,-10853
32-7,32654628,-1469
32-8,32658534,11384
32-9,32662440,3657
32-10,32666346,-13238
32-11,32670252,-13934
32-12,32674158,-8286
32-13,32678064,-1289
32-14,32681970,10138
32-15,32685876,26505
32-16,32689782,29332
32-17,32693688,3070
32-18,32697594,-16056
32-19,32701500,-12810
32-20,32705406,-8430
32-21,32709312,-2542
32-22,32713218,10619
32-23,32717124,27400
32-24,32721030,21760
32-25,32724936,-6500
32-26,32728842,-15996
32-27,32732748,-9332
32-28,32736654,-7298
32-29,32740560,-8683
32-30,32744466,-4426
32-31,32748372,8815
32-32,32752278,5113
32-1,32756190,-12248
32-2,32760096,-14672
32-3,32764002,-11580
32-4,32767908,-11809
32-5,32771814,-9627
32-6,32775720,1128
32-7,32779626,10195
32-8,32783532,-1630
32-9,32787438,-13826
32-10,32791344,-10861
32-11,32795250,-3947
32-12,32799156,5609
32-13,32803062,18508
32-14,32806968,32767
32-15,32810874,25812
32-16,32814780,-3821
32-17,32818686,-15842
32-18,32822592,-10595
32-19,32826498,-6446
32-20,32830404,1328
32-21,32834310,16997
32-22,32838216,30301
32-23,32842122,15365
32-24,32846028,-11358
32-25,32849934,-15039
32-26,32853840,-7841
32-27,32857746,-2932
32-28,32861652,-202
32-29,32865558,1525
32-30,32869464,2259
32-31,32873370,-5738
32-32,32877276,-13404
32-1,32881371,-13197
32-2,32885277,-11473
32-3,32889183,-10087
32-4,32893089,-4766
32-5,32896995,10115
32-6,32900901,13097
32-7,32904807,-5672
32-8,32908713,-14809
32-9,32912619,-10412
32-10,32916525,-5903
32-11,32920431,1577
32-12,32924337,16132
32-13,32928243,30090
32-14,32932149,16576
32-15,32936055,-10156
32-16,32939961,-14272
32-17,32943867,-8220
32-18,32947773,-2420
32-19,32951679,8596
32-20,32955585,25259
32-21,32959491,31761
32-22,32963397,7685
32-23,32967303,-14575
32-24,32971209,-12377
32-25,32975115,-7365
32-26,32979021,2049
32-27,32982927,14176
32-28,32986833,16546
32-29,32990739,7755
32-30,32994645,-8020
32-31,32998551,-14935
32-32,33002457,-12928
32-1,33006185,-12044
32-2,33010091,-11284
32-3,33013997,-4637
32-4,33017903,8479
32-5,33021809,5634
32-6,33025715,-11042
32-7,33029621,-14244
32-8,33033527,-9018
32-9,33037433,-3032
32-10,33041339,6860
32-11,33045245,22796
32-12,33049151,30504
32-13,33053057,8182
32-14,33056963,-14457
32-15,33060869,-13115
32-16,33064775,-7172
32-17,33068681,-75
32-18,33072587,12775
32-19,33076493,29388
32-20,33080399,27496
32-21,33084305,-1078
32-22,33088211,-16482
32-23,33092117,-10977
32-24,33096023,-5341
32-25,33099929,3326
32-26,33103835,20495
32-27,33107741,30540
32-28,33111647,10843
32-29,33115553,-13728
32-30,33119459,-15171
32-31,33123365,-12318
32-32,33127271,-11381
32-1,33131183,-6431
32-2,33135089,7412
32-3,33138995,19763
32-4,33142901,4470
32-5,33146807,-15287
32-6,33150713,-14832
32-7,33154619,-11179
32-8,33158525,-8689
32-9,33162431,-230
32-10,33166337,16960
32-11,33170243,20770
32-12,33174149,-2572
32-13,33178055,-16730
32-14,33181961,-12225
32-15,33185867,-6917
32-16,33189773,1270
32-17,33193679,15556
32-18,33197585,30414
32-19,33201491,19801
32-20,33205397,-9177
32-21,33209303,-16671
32-22,33213209,-10249
32-23,33217115,-4060
32-24,33221021,6762
32-25,33224927,23100
32-26,33228833,31593
32-27,33232739,10565
32-28,33236645,-14874
32-29,33240551,-15719
32-30,33244457,-12473
32-31,33248363,-11806
32-32,33252269,-4430
32-1,33256180,13341
32-2,33260086,19589
32-3,33263992,-2396
32-4,33267898,-17279
32-5,33271804,-13975
32-6,33275710,-12227
32-7,33279616,-10432
32-8,33283522,-191
32-9,33287428,17805
32-10,33291334,14806
32-11,33295240,-9530
32-12,33299146,-16713
32-13,33303052,-10636
32-14,33306958,-4919
32-15,33310864,4870
32-16,33314770,20606
32-17,33318676,30583
32-18,33322582,10829
32-19,33326488,-14542
32-20,33330394,-15305
32-21,33334300,-9108
32-22,33338206,-2370
32-23,33342112,9980
32-24,33346018,26797
32-25,33349924,28484
32-26,33353830,1198
32-27,33357736,-17594
32-28,33361642,-14302
32-29,33365548,-12764
32-30,33369454,-14481
32-31,33373360,-9070
32-32,33377266,7039
32-1,33381178,8973
32-2,33385084,-9751
32-3,33388990,-16823
32-4,33392896,-13273
32-5,33396802,-12713
32-6,33400708,-11242
32-7,33404614,-1901
32-8,33408520,11043
32-9,33412426,3546
32-10,33416332,-13274
32-11,33420238,-14006
32-12,33424144,-8423
32-13,33428050,-1501
32-14,33431956,9824
32-15,33435862,26256
32-16,33439768,29335
32-17,33443674,3086
32-18,33447580,-16063
32-19,33451486,-12464
32-20,33455392,-6789
32-21,33459298,1320
32-22,33463204,15424
32-23,33467110,30977
32-24,33471016,23637
32-25,33474922,-6081
32-26,33478828,-16688
32-27,33482734,-10860
32-28,33486640,-9586
32-29,33490546,-10942
32-30,33494452,-7210
32-31,33498358,4694
32-32,33502264,2173
32-1,33506176,-12803
32-2,33510082,-15000
32-3,33513988,-12023
32-4,33517894,-11695
32-5,33521800,-8873
32-6,33525706,3276
32-7,33529612,12625
32-8,33533518,-1116
32-9,33537424,-14638
32-10,33541330,-11897
32-11,33545236,-6144
32-12,33549142,1925
32-13,33553048,14894
32-14,33556954,30591
32-15,33560860,24939
32-16,33564766,-4052
32-17,33568672,-15752
32-18,33572578,-9992
32-19,33576484,-4070
32-20,33580390,5858
32-21,33584296,21452
32-22,33588202,32320
32-23,33592108,16551
32-24,33596014,-11357
32-25,33599920,-15488
32-26,33603826,-7640
32-27,33607732,-2000
32-28,33611638,805
32-29,33615544,2702
32-30,33619450,3614
32-31,33623356,-5413
32-32,33627262,-14122
32-1,33631539,-13811
32-2,33635445,-12165
32-3,33639351,-11298
32-4,33643257,-6844
32-5,33647163,6941
32-6,33651069,10491
32-7,33654975,-6418
32-8,33658881,-14814
32-9,33662787,-10225
32-10,33666693,-4260
32-11,33670599,4984
32-12,33674505,19698
32-13,33678411,32554
32-14,33682317,17773
32-15,33686223,-10149
32-16,33690129,-14853
32-17,33694035,-9370
32-18,33697941,-5283
32-19,33701847,4227
32-20,33705753,21205
32-21,33709659,29192
32-22,33713565,6534
32-23,33717471,-14971
32-24,33721377,-12279
32-25,33725283,-5165
32-26,33729189,7059
32-27,33733095,19314
32-28,33737001,20154
32-29,33740907,9936
32-30,33744813,-7709
32-31,33748719,-15496
32-32,33752625,-13262
32-1,33756171,-12703
32-2,33760077,-12383
32-3,33763983,-6900
32-4,33767889,4704
32-5,33771795,2869
32-6,33775701,-11592
32-7,33779607,-14280
32-8,33783513,-8596
32-9,33787419,-845
32-10,33791325,10021
32-11,33795231,25294
32-12,33799137,32013
32-13,33803043,8743
32-14,33806949,-14867
32-15,33810855,-13972
32-16,33814761,-8979
32-17,33818667,-3921
32-18,33822573,7898
32-19,33826479,25393
32-20,33830385,25170
32-21,33834291,-2071
32-22,33838197,-17112
32-23,33842103,-11813
32-24,33846009,-6333
32-25,33849915,1982
32-26,33853821,18922
32-27,33857727,29764
32-28,33861633,10964
32-29,33865539,-13826
32-30,33869445,-15580
32-31,33873351,-12595
32-32,33877257,-11838
32-1,33881169,-7239
32-2,33885075,6252
32-3,33888981,18414
32-4,33892887,3545
32-5,33896793,-15417
32-6,33900699,-14596
32-7,33904605,-10408
32-8,33908511,-5465
32-9,33912417,6366
32-10,33916323,25144
32-11,33920229,27066
32-12,33924135,-662
32-13,33928041,-17398
32-14,33931947,-12752
32-15,33935853,-7891
32-16,33939759,-699
32-17,33943665,13406
32-18,33947571,28547
32-19,33951477,18752
32-20,33955383,-9403
32-21,33959289,-16851
32-22,33963195,-10757
32-23,33967101,-4936
32-24,33971007,5449
32-25,33974913,21679
32-26,33978819,31090
32-27,33982725,10164
32-28,33986631,-15292
32-29,33990537,-16283
32-30,33994443,-12838
32-31,33998349,-12152
32-32,34002255,-5014
32-1,34006166,12494
32-2,34010072,18641
32-3,34013978,-3017
32-4,34017884,-17585
32-5,34021790,-14365
32-6,34025696,-13137
32-7,34029602,-12607
32-8,34033508,-5843
32-9,34037414,8527
32-10,34041320,8153
32-11,34045226,-10261
32-12,34049132,-16089
32-13,34053038,-10908
32-14,34056944,-4986
32-15,34060850,4725
32-16,34064756,20327
32-17,34068662,30632
32-18,34072568,11080
32-19,34076474,-14447
32-20,34080380,-15288
32-21,34084286,-9069
32-22,34088192,-2486
32-23,34092098,9672
32-24,34096004,26506
32-25,34099910,28751
32-26,34103816,1768
32-27,34107722,-17307
32-28,34111628,-13992
32-29,34115534,-12331
32-30,34119440,-14056
32-31,34123346,-8892
32-32,34127252,6983
32-1,34131164,9356
32-2,34135070,-9132
32-3,34138976,-16470
32-4,34142882,-12738
32-5,34146788,-11486
32-6,34150694,-8542
32-7,34154600,4266
32-8,34158506,19775
32-9,34162412,8765
32-10,34166318,-13310
32-11,34170224,-14699
32-12,34174130,-8569
32-13,34178036,-2262
32-14,34181942,8846
32-15,34185848,25245
32-16,34189754,28776
32-17,34193660,3088
32-18,34197566,-16164
32-19,34201472,-12664
32-20,34205378,-6961
32-21,34209284,940
32-22,34213190,14860
32-23,34217096,30628
32-24,34221002,23598
32-25,34224908,-6106
32-26,34228814,-16770
32-27,34232720,-11013
32-28,34236626,-9927
32-29,34240532,-11346
32-30,34244438,-7728
32-31,34248344,4034
32-32,34252250,1797
32-1,34256161,-12857
32-2,34260067,-15080
32-3,34263973,-12189
32-4,34267879,-11872
32-5,34271785,-9209
32-6,34275691,2461
32-7,34279597,11737
32-8,34283503,-1373
32-9,34287409,-14566
32-10,34291315,-11943
32-11,34295221,-6335
32-12,34299127,1426
32-13,34303033,14204
32-14,34306939,30127
32-15,34310845,24794
32-16,34314751,-4052
32-17,34318657,-15724
32-18,34322563,-10061
32-19,34326469,-4526
32-20,34330375,4942
32-21,34334281,20606
32-22,34338187,32434
32-23,34342093,16500
32-24,34345999,-11288
32-25,34349905,-15363
32-26,34353811,-7913
32-27,34357717,-2921
32-28,34361623,-438
32-29,34365529,1070
32-30,34369435,1904
32-31,34373341,-6016
32-32,34377247,-13769
32-1,34381342,-13534
32-2,34385248,-12067
32-3,34389154,-11343
32-4,34393060,-7431
32-5,34396966,5695
32-6,34400872,9458
32-7,34404778,-6550
32-8,34408684,-14601
32-9,34412590,-10096
32-10,34416496,-4313
32-11,34420402,4498
32-12,34424308,18976
32-13,34428214,32027
32-14,34432120,17585
32-15,34436026,-10060
32-16,34439932,-14526
32-17,34443838,-8256
32-18,34447744,-2275
32-19,34451650,8892
32-20,34455556,25443
32-21,34459462,31790
32-22,34463368,7655
32-23,34467274,-14938
32-24,34471180,-12849
32-25,34475086,-7608
32-26,34478992,2086
32-27,34482898,14660
32-28,34486804,17200
32-29,34490710,8078
32-30,34494616,-8117
32-31,34498522,-15214
32-32,34502428,-13103
32-1,34506157,-12184
32-2,34510063,-11518
32-3,34513969,-5086
32-4,34517875,7752
32-5,34521781,5132
32-6,34525687,-11114
32-7,34529593,-14335
32-8,34533499,-9239
32-9,34537405,-3134
32-10,34541311,6943
32-11,34545217,22991
32-12,34549123,30858
32-13,34553029,8543
32-14,34556935,-14423
32-15,34560841,-13261
32-16,34564747,-7339
32-17,34568653,-214
32-18,34572559,12685
32-19,34576465,29219
32-20,34580371,27532
32-21,34584277,-947
32-22,34588183,-16758
32-23,34592089,-11405
32-24,34595995,-5369
32-25,34599901,3689
32-26,34603807,20827
32-27,34607713,31134
32-28,34611619,11771
32-29,34615525,-13427
32-30,34619431,-15424
32-31,34623337,-12679
32-32,34627243,-12464
32-1,34631154,-8934
32-2,34635060,3102
32-3,34638966,15223
32-4,34642872,2481
32-5,34646778,-15138
32-6,34650684,-14711
32-7,34654590,-11351
32-8,34658496,-8961
32-9,34662402,-980
32-10,34666308,15944
32-11,34670214,20255
32-12,34674120,-2405
32-13,34678026,-16403
32-14,34681932,-11533
32-15,34685838,-4890
32-16,34689744,4748
32-17,34693650,18952
32-18,34697556,32082
32-19,34701462,21168
32-20,34705368,-8443
32-21,34709274,-16728
32-22,34713180,-11062
32-23,34717086,-6728
32-24,34720992,2283
32-25,34724898,18857
32-26,34728804,29438
32-27,34732710,9623
32-28,34736616,-15162
32-29,34740522,-16054
32-30,34744428,-12526
32-31,34748334,-11210
32-32,34752240,-3080
32-1,34756152,15147
32-2,34760058,21120
32-3,34763964,-1751
32-4,34767870,-17269
32-5,34771776,-13982
32-6,34775682,-12885
32-7,34779588,-12896
32-8,34783494,-7145
32-9,34787400,5959
32-10,34791306,6282
32-11,34795212,-10170
32-12,34799118,-15286
32-13,34803024,-9447
32-14,34806930,-1509
32-15,34810836,9551
32-16,34814742,24284
32-17,34818648,32164
32-18,34822554,12852
32-19,34826460,-13692
32-20,34830366,-15248
32-21,34834272,-9932
32-22,34838178,-5589
32-23,34842084,5010
32-24,34845990,22326
32-25,34849896,26169
32-26,34853802,947
32-27,34857708,-17307
32-28,34861614,-13714
32-29,34865520,-11526
32-30,34869426,-12870
32-31,34873332,-5340
32-32,34877238,14233
32-1,34881150,15320
32-2,34885056,-7949
32-3,34888962,-16685
32-4,34892868,-12570
32-5,34896774,-12329
32-6,34900680,-11105
32-7,34904586,-2166
32-8,34908492,10581
32-9,34912398,3750
32-10,34916304,-12915
32-11,34920210,-13461
32-12,34924116,-6305
32-13,34928022,3144
32-14,34931928,15503
32-15,34935834,30109
32-16,34939740,31434
32-17,34943646,4498
32-18,34947552,-15847
32-19,34951458,-13058
32-20,34955364,-8396
32-21,34959270,-2507
32-22,34963176,10503
32-23,34967082,27327
32-24,34970988,22185
32-25,34974894,-6262
32-26,34978800,-16728
32-27,34982706,-11087
32-28,34986612,-10152
32-29,34990518,-11637
32-30,34994424,-8434
32-31,34998330,2821
32-32,35002236,1263
32-1,35006147,-12551
32-2,35010053,-14811
32-3,35013959,-11666
32-4,35017865,-10573
32-5,35021771,-6241
32-6,35025677,9054
32-7,35029583,19726
32-8,35033489,2213
32-9,35037395,-14916
32-10,35041301,-12098
32-11,35045207,-6407
32-12,35049113,791
32-13,35053019,13491
32-14,35056925,29352
32-15,35060831,24487
32-16,35064737,-4046
32-17,35068643,-15958
32-18,35072549,-10394
32-19,35076455,-4972
32-20,35080361,4147
32-21,35084267,19584
32-22,35088173,32037
32-23,35092079,16361
32-24,35095985,-11601
32-25,35099891,-15860
32-26,35103797,-8329
32-27,35107703,-3243
32-28,35111609,-553
32-29,35115515,1087
32-30,35119421,1987
32-31,35123327,-6007
32-32,35127233,-13966
32-1,35131297,-13734
32-2,35135203,-11795
32-3,35139109,-10114
32-4,35143015,-3754
32-5,35146921,13399
32-6,35150827,16943
32-7,35154733,-4697
32-8,35158639,-15612
32-9,35162545,-10411
32-10,35166451,-4916
32-11,35170357,3446
32-12,35174263,17944
32-13,35178169,31114
32-14,35182075,17089
32-15,35185981,-10415
32-16,35189887,-14944
32-17,35193793,-8705
32-18,35197699,-2807
32-19,35201605,8194
32-20,35205511,24701
32-21,35209417,31247
32-22,35213323,7256
32-23,35217229,-15319
32-24,35221135,-13253
32-25,35225041,-8245
32-26,35228947,992
32-27,35232853,13232
32-28,35236759,15861
32-29,35240665,7190
32-30,35244571,-8548
32-31,35248477,-15474
32-32,35252383,-13447
32-1,35256142,-12595
32-2,35260048,-11938
32-3,35263954,-5746
32-4,35267860,6858
32-5,35271766,4556
32-6,35275672,-11261
32-7,35279578,-14465
32-8,35283484,-9528
32-9,35287390,-3664
32-10,35291296,6127
32-11,35295202,22056
32-12,35299108,30196
32-13,35303014,8343
32-14,35306920,-14464
32-15,35310826,-13353
32-16,35314732,-7549
32-17,35318638,-849
32-18,35322544,11662
32-19,35326450,28313
32-20,35330356,27006
32-21,35334262,-1171
32-22,35338168,-16833
32-23,35342074,-11482
32-24,35345980,-5770
32-25,35349886,2823
32-26,35353792,19833
32-27,35357698,30197
32-28,35361604,10993
32-29,35365510,-13780
32-30,35369416,-15482
32-31,35373322,-12475
32-32,35377228,-11259
32-1,35381140,-5483
32-2,35385046,9990
32-3,35388952,23055
32-4,35392858,5960
32-5,35396764,-15716
32-6,35400670,-15310
32-7,35404576,-11685
32-8,35408482,-9920
32-9,35412388,-2302
32-10,35416294,14183
32-11,35420200,18692
32-12,35424106,-2991
32-13,35428012,-16333
32-14,35431918,-10789
32-15,35435824,-2064
32-16,35439730,10346
32-17,35443636,24439
32-18,35447542,31737
32-19,35451448,21255
32-20,35455354,-8658
32-21,35459260,-17240
32-22,35463166,-11207
32-23,35467072,-5678
32-24,35470978,4090
32-25,35474884,20343
32-26,35478790,30110
32-27,35482696,9684
32-28,35486602,-15604
32-29,35490508,-16685
32-30,35494414,-12839
32-31,35498320,-10617
32-32,35502226,-953
32-1,35506138,18656
32-2,35510044,24110
32-3,35513950,-1305
32-4,35517856,-18509
32-5,35521762,-15119
32-6,35525668,-13813
32-7,35529574,-13636
32-8,35533480,-7351
32-9,35537386,6034
32-10,35541292,6051
32-11,35545198,-10951
32-12,35549104,-16459
32-13,35553010,-11590
32-14,35556916,-5927
32-15,35560822,3392
32-16,35564728,18734
32-17,35568634,29388
32-18,35572540,10671
32-19,35576446,-14677
32-20,35580352,-16057
32-21,35584258,-10909
32-22,35588164,-6649
32-23,35592070,3722
32-24,35595976,21112
32-25,35599882,25359
32-26,35603788,558
32-27,35607694,-17459
32-28,35611600,-14196
32-29,35615506,-12521
32-30,35619412,-14047
32-31,35623318,-8369
32-32,35627224,8238
32-1,35631135,10494
32-2,35635041,-8850
32-3,35638947,-16522
32-4,35642853,-12837
32-5,35646759,-12303
32-6,35650665,-11138
32-7,35654571,-1478
32-8,35658477,12881
32-9,35662383,5587
32-10,35666289,-12866
32-11,35670195,-13907
32-12,35674101,-7412
32-13,35678007,66
32-14,35681913,11255
32-15,35685819,26741
32-16,35689725,29747
32-17,35693631,3897
32-18,35697537,-15930
32-19,35701443,-13010
32-20,35705349,-8608
32-21,35709255,-3063
32-22,35713161,9625
32-23,35717067,26383
32-24,35720973,21761
32-25,35724879,-6101
32-26,35728785,-16551
32-27,35732691,-11015
32-28,35736597,-9937
32-29,35740503,-11233
32-30,35744409,-8179
32-31,35748315,2633
32-32,35752221,1259
32-1,35756133,-12064
32-2,35760039,-14415
32-3,35763945,-11561
32-4,35767851,-10749
32-5,35771757,-7447
32-6,35775663,5446
32-7,35779569,15258
32-8,35783475,662
32-9,35787381,-14149
32-10,35791287,-11895
32-11,35795193,-7304
32-12,35799099,-1295
32-13,35803005,10832
32-14,35806911,27610
32-15,35810817,24198
32-16,35814723,-3286
32-17,35818629,-14963
32-18,35822535,-9615
32-19,35826441,-4442
32-20,35830347,4485
32-21,35834253,19862
32-22,35838159,32467
32-23,35842065,17250
32-24,35845971,-10484
32-25,35849877,-14901
32-26,35853783,-7576
32-27,35857689,-2753
32-28,35861595,-188
32-29,35865501,1468
32-30,35869407,2520
32-31,35873313,-5145
32-32,35877219,-13051
32-1,35881314,-12993
32-2,35885220,-11443
32-3,35889126,-10521
32-4,35893032,-6472
32-5,35896938,6967
32-6,35900844,11141
32-7,35904750,-5348
32-8,35908656,-14144
32-9,35912562,-9756
32-10,35916468,-4207
32-11,35920374,4293
32-12,35924280,18653
32-13,35928186,32005
32-14,35932092,18284
32-15,35935998,-9232
32-16,35939904,-13975
32-17,35943810,-7792
32-18,35947716,-1887
32-19,35951622,9132
32-20,35955528,25620
32-21,35959434,32420
32-22,35963340,8607
32-23,35967246,-14309
32-24,35971152,-12406
32-25,35975058,-7252
32-26,35978964,2163
32-27,35982870,14372
32-28,35986776,16821
32-29,35990682,8238
32-30,35994588,-7526
32-31,35998494,-14716
32-32,36002400,-12641
32-1,36006128,-11179
32-2,36010034,-9480
32-3,36013940,-200
32-4,36017846,16399
32-5,36021752,11924
32-6,36025658,-10176
32-7,36029564,-14977
32-8,36033470,-9152
32-9,36037376,-3694
32-10,36041282,5968
32-11,36045188,21832
32-12,36049094,30156
32-13,36053000,8721
32-14,36056906,-14328
32-15,36060812,-13416
32-16,36064718,-7521
32-17,36068624,-681
32-18,36072530,11888
32-19,36076436,28592
32-20,36080342,27756
32-21,36084248,-323
32-22,36088154,-16540
32-23,36092060,-11377
32-24,36095966,-5754
32-25,36099872,2603
32-26,36103778,19556
32-27,36107684,29872
32-28,36111590,10854
32-29,36115496,-13677
32-30,36119402,-15465
32-31,36123308,-12615
32-32,36127214,-11676
32-1,36131126,-6858
32-2,36135032,6740
32-3,36138938,19221
32-4,36142844,4355
32-5,36146750,-15472
32-6,36150656,-15290
32-7,36154562,-12054
32-8,36158468,-10744
32-9,36162374,-4269
32-10,36166280,11627
32-11,36170186,17085
32-12,36174092,-3300
32-13,36177998,-16474
32-14,36181904,-11980
32-15,36185810,-5895
32-16,36189716,3090
32-17,36193622,17203
32-18,36197528,31521
32-19,36201434,20797
32-20,36205340,-8523
32-21,36209246,-16519
32-22,36213152,-10144
32-23,36217058,-4077
32-24,36220964,6551
32-25,36224870,22831
32-26,36228776,31590
32-27,36232682,10999
32-28,36236588,-14826
32-29,36240494,-16080
32-30,36244400,-12572
32-31,36248306,-11902
32-32,36252212,-5212
32-1,36256124,11924
32-2,36260030,18760
32-3,36263936,-2295
32-4,36267842,-17238
32-5,36271748,-14155
32-6,36275654,-12817
32-7,36279560,-12443
32-8,36283466,-6029
32-9,36287372,8038
32-10,36291278,8026
32-11,36295184,-9913
32-12,36299090,-15727
32-13,36302996,-10504
32-14,36306902,-4420
32-15,36310808,5327
32-16,36314714,20772
32-17,36318620,31225
32-18,36322526,12000
32-19,36326432,-13826
32-20,36330338,-15024
32-21,36334244,-8792
32-22,36338150,-2227
32-23,36342056,9867
32-24,36345962,26660
32-25,36349868,29171
32-26,36353774,2335
32-27,36357680,-17150
32-28,36361586,-14012
32-29,36365492,-12212
32-30,36369398,-13966
32-31,36373304,-8927
32-32,36377210,6936
32-1,36381121,9576
32-2,36385027,-8815
32-3,36388933,-16310
32-4,36392839,-12826
32-5,36396745,-12376
32-6,36400651,-11374
32-7,36404557,-3150
32-8,36408463,9287
32-9,36412369,3232
32-10,36416275,-12509
32-11,36420181,-13142
32-12,36424087,-6434
32-13,36427993,3307
32-14,36431899,16603
32-15,36435805,31240
32-16,36439711,32119
32-17,36443617,5330
32-18,36447523,-15181
32-19,36451429,-12513
32-20,36455335,-7056
32-21,36459241,-67
32-22,36463147,13237
32-23,36467053,29342
32-24,36470959,23503
32-25,36474865,-5490
32-26,36478771,-16495
32-27,36482677,-10872
32-28,36486583,-9674
32-29,36490489,-11088
32-30,36494395,-7768
32-31,36498301,3858
32-32,36502207,2194
32-1,36506119,-12296
32-2,36510025,-14690
32-3,36513931,-12065
32-4,36517837,-12461
32-5,36521743,-11102
32-6,36525649,-2759
32-7,36529555,5237
32-8,36533461,-3563
32-9,36537367,-13607
32-10,36541273,-11314
32-11,36545179,-5179
32-12,36549085,3418
32-13,36552991,15645
32-14,36556897,30799
32-15,36560803,25667
32-16,36564709,-3151
32-17,36568615,-15563
32-18,36572521,-10529
32-19,36576427,-6594
32-20,36580333,612
32-21,36584239,15718
32-22,36588145,29554
32-23,36592051,16072
32-24,36595957,-10484
32-25,36599863,-14497
32-26,36603769,-5703
32-27,36607675,1227
32-28,36611581,3888
32-29,36615487,5078
32-30,36619393,5971
32-31,36623299,-3678
32-32,36627205,-13437
32-1,36631361,-13204
32-2,36635267,-11734
32-3,36639173,-11449
32-4,36643079,-8368
32-5,36646985,3215
32-6,36650891,7538
32-7,36654797,-6349
32-8,36658703,-13858
32-9,36662609,-9241
32-10,36666515,-2252
32-11,36670421,7572
32-12,36674327,21443
32-13,36678233,32767
32-14,36682139,18982
32-15,36686045,-9354
32-16,36689951,-14783
32-17,36693857,-9170
32-18,36697763,-5049
32-19,36701669,4333
32-20,36705575,21158
32-21,36709481,29496
32-22,36713387,7343
32-23,36717293,-14725
32-24,36721199,-12933
32-25,36725105,-8265
32-26,36729011,454
32-27,36732917,12217
32-28,36736823,14598
32-29,36740729,6542
32-30,36744635,-8067
32-31,36748541,-14671
32-32,36752447,-12809
32-1,36756114,-11915
32-2,36760020,-11234
32-3,36763926,-5178
32-4,36767832,7587
32-5,36771738,5549
32-6,36775644,-10540
32-7,36779550,-13742
32-8,36783456,-7726
32-9,36787362,97
32-10,36791268,11134
32-11,36795174,26107
32-12,36799080,32403
32-13,36802986,10291
32-14,36806892,-13827
32-15,36810798,-13481
32-16,36814704,-8457
32-17,36818610,-3500
32-18,36822516,8102
32-19,36826422,25657
32-20,36830328,26276
32-21,36834234,-699
32-22,36838140,-16469
32-23,36842046,-11344
32-24,36845952,-5976
32-25,36849858,1968
32-26,36853764,18777
32-27,36857670,29657
32-28,36861576,11294
32-29,36865482,-13228
32-30,36869388,-15192
32-31,36873294,-12345
32-32,36877200,-11474
32-1,36881112,-6844
32-2,36885018,6476
32-3,36888924,19230
32-4,36892830,5043
32-5,36896736,-14725
32-6,36900642,-14650
32-7,36904548,-11065
32-8,36908454,-8874
32-9,36912360,-899
32-10,36916266,16068
32-11,36920172,20739
32-12,36924078,-1867
32-13,36927984,-16469
32-14,36931890,-12282
32-15,36935796,-7220
32-16,36939702,463
32-17,36943608,14487
32-18,36947514,29839
32-19,36951420,20415
32-20,36955326,-8388
32-21,36959232,-16511
32-22,36963138,-10266
32-23,36967044,-4349
32-24,36970950,6025
32-25,36974856,22221
32-26,36978762,31570
32-27,36982668,11828
32-28,36986574,-14055
32-29,36990480,-15433
32-30,36994386,-11997
32-31,36998292,-11424
32-32,37002198,-4511
32-1,37006109,12900
32-2,37010015,19770
32-3,37013921,-1730
32-4,37017827,-17098
32-5,37021733,-13890
32-6,37025639,-11972
32-7,37029545,-10274
32-8,37033451,-671
32-9,37037357,17157
32-10,37041263,15536
32-11,37045169,-8417
32-12,37049075,-16461
32-13,37052981,-10539
32-14,37056887,-5000
32-15,37060793,4332
32-16,37064699,19752
32-17,37068605,30368
32-18,37072511,11778
32-19,37076417,-13875
32-20,37080323,-15274
32-21,37084229,-9210
32-22,37088135,-2950
32-23,37092041,8885
32-24,37095947,25704
32-25,37099853,28397
32-26,37103759,1711
32-27,37107665,-17638
32-28,37111571,-14430
32-29,37115477,-12686
32-30,37119383,-14393
32-31,37123289,-9588
32-32,37127195,5714
32-1,37131107,8522
32-2,37135013,-9190
32-3,37138919,-16582
32-4,37142825,-13041
32-5,37146731,-11754
32-6,37150637,-8963
32-7,37154543,3527
32-8,37158449,19352
32-9,37162355,9086
32-10,37166261,-13001
32-11,37170167,-14704
32-12,37174073,-8697
32-13,37177979,-2660
32-14,37181885,8177
32-15,37185791,24552
32-16,37189697,28737
32-17,37193603,3625
32-18,37197509,-15985
32-19,37201415,-12842
32-20,37205321,-7338
32-21,37209227,168
32-22,37213133,13740
32-23,37217039,29795
32-24,37220945,23897
32-25,37224851,-5495
32-26,37228757,-16817
32-27,37232663,-11245
32-28,37236569,-10162
32-29,37240475,-11608
32-30,37244381,-8235
32-31,37248287,3304
32-32,37252193,1644
32-1,37256166,-12680
32-2,37260072,-15085
32-3,37263978,-12324
32-4,37267884,-12273
32-5,37271790,-10365
32-6,37275696,-273
32-7,37279602,8956
32-8,37283508,-1930
32-9,37287414,-14130
32-10,37291320,-11988
32-11,37295226,-6754
32-12,37299132,490
32-13,37303038,12769
32-14,37306944,28923
32-15,37310850,24815
32-16,37314756,-3385
32-17,37318662,-15533
32-18,37322568,-10040
32-19,37326474,-4577
32-20,37330380,4517
32-21,37334286,19905
32-22,37338192,32397
32-23,37342098,17211
32-24,37346004,-10761
32-25,37349910,-15378
32-26,37353816,-7930
32-27,37357722,-3083
32-28,37361628,-721
32-29,37365534,759
32-30,37369440,1867
32-31,37373346,-5607
32-32,37377252,-13465
32-1,37381102,-13417
32-2,37385008,-11895
32-3,37388914,-11071
32-4,37392820,-7362
32-5,37396726,5460
32-6,37400632,9757
32-7,37404538,-5847
32-8,37408444,-14305
32-9,37412350,-10017
32-10,37416256,-4397
32-11,37420162,4108
32-12,37424068,18389
32-13,37427974,31907
32-14,37431880,18392
32-15,37435786,-9396
32-16,37439692,-14457
32-17,37443598,-8218
32-18,37447504,-2262
32-19,37451410,8748
32-20,37455316,25062
32-21,37459222,31965
32-22,37463128,8686
32-23,37467034,-14441
32-24,37470940,-13110
32-25,37474846,-9294
32-26,37478752,-2405
32-27,37482658,9034
32-28,37486564,12491
32-29,37490470,5321
32-30,37494376,-8247
32-31,37498282,-14413
32-32,37502188,-12771
32-1,37506100,-11549
32-2,37510006,-10332
32-3,37513912,-3280
32-4,37517818,10636
32-5,37521724,7851
32-6,37525630,-10035
32-7,37529536,-13961
32-8,37533442,-8649
32-9,37537348,-2388
32-10,37541254,7859
32-11,37545160,23702
32-12,37549066,32028
32-13,37552972,10284
32-14,37556878,-13573
32-15,37560784,-13238
32-16,37564690,-8361
32-17,37568596,-3604
32-18,37572502,7840
32-19,37576408,25403
32-20,37580314,26224
32-21,37584220,-537
32-22,37588126,-16111
32-23,37592032,-10236
32-24,37595938,-2499
32-25,37599844,8113
32-26,37603750,24581
32-27,37607656,31702
32-28,37611562,12905
32-29,37615468,-12802
32-30,37619374,-15311
32-31,37623280,-12473
32-32,37627186,-12164
32-1,37631097,-8707
32-2,37635003,3164
32-3,37638909,15682
32-4,37642815,3246
32-5,37646721,-14896
32-6,37650627,-14561
32-7,37654533,-10584
32-8,37658439,-6245
32-9,37662345,4621
32-10,37666251,23067
32-11,37670157,26304
32-12,37674063,-71
32-13,37677969,-17045
32-14,37681875,-12742
32-15,37685781,-8077
32-16,37689687,-1510
32-17,37693593,12150
32-18,37697499,27760
32-19,37701405,19123
32-20,37705311,-8851
32-21,37709217,-16807
32-22,37713123,-10866
32-23,37717029,-5584
32-24,37720935,4146
32-25,37724841,20284
32-26,37728747,30550
32-27,37732653,10720
32-28,37736559,-14882
32-29,37740465,-16227
32-30,37744371,-12565
32-31,37748277,-11917
32-32,37752183,-5274
32-1,37756095,11906
32-2,37760001,18990
32-3,37763907,-1847
32-4,37767813,-16927
32-5,37771719,-13969
32-6,37775625,-12598
32-7,37779531,-12135
32-8,37783437,-5732
32-9,37787343,8508
32-10,37791249,8870
32-11,37795155,-9446
32-12,37799061,-15848
32-13,37802967,-10741
32-14,37806873,-4937
32-15,37810779,4480
32-16,37814685,19825
32-17,37818591,30879
32-18,37822497,12637
32-19,37826403,-13233
32-20,37830309,-14870
32-21,37834215,-8674
32-22,37838121,-2259
32-23,37842027,9620
32-24,37845933,26416
32-25,37849839,29424
32-26,37853745,2839
32-27,37857651,-16981
32-28,37861557,-13541
32-29,37865463,-11176
32-30,37869369,-12571
32-31,37873275,-4972
32-32,37877181,14930
32-1,37881215,16613
32-2,37885121,-7205
32-3,37889027,-16944
32-4,37892933,-12844
32-5,37896839,-12467
32-6,37900745,-11332
32-7,37904651,-2499
32-8,37908557,10640
32-9,37912463,4345
32-10,37916369,-12836
32-11,37920275,-14311
32-12,37924181,-8782
32-13,37928087,-2288
32-14,37931993,8422
32-15,37935899,24673
32-16,37939805,29164
32-17,37943711,4134
32-18,37947617,-15829
32-19,37951523,-12770
32-20,37955429,-7029
32-21,37959335,630
32-22,37963241,14192
32-23,37967147,30256
32-24,37971053,24495
32-25,37974959,-5221
32-26,37978865,-16875
32-27,37982771,-11160
32-28,37986677,-10029
32-29,37990583,-11535
32-30,37994489,-8269
32-31,37998395,3484
32-32,38002301,2207
32-1,38006090,-12357
32-2,38009996,-15079
32-3,38013902,-11828
32-4,38017808,-10628
32-5,38021714,-6072
32-6,38025620,9602
32-7,38029526,20946
32-8,38033432,3281
32-9,38037338,-14859
32-10,38041244,-12312
32-11,38045150,-6495
32-12,38049056,657
32-13,38052962,13213
32-14,38056868,29047
32-15,38060774,24698
32-16,38064680,-3789
32-17,38068586,-16203
32-18,38072492,-10693
32-19,38076398,-5176
32-20,38080304,4055
32-21,38084210,19522
32-22,38088116,32097
32-23,38092022,17125
32-24,38095928,-10919
32-25,38099834,-15755
32-26,38103740,-8395
32-27,38107646,-3369
32-28,38111552,-724
32-29,38115458,824
32-30,38119364,1747
32-31,38123270,-6004
32-32,38127176,-13952
32-1,38131088,-13846
32-2,38134994,-12324
32-3,38138900,-11472
32-4,38142806,-7693
32-5,38146712,5276
32-6,38150618,9609
32-7,38154524,-6245
32-8,38158430,-14841
32-9,38162336,-10539
32-10,38166242,-4958
32-11,38170148,3573
32-12,38174054,17885
32-13,38177960,31497
32-14,38181866,18140
32-15,38185772,-9695
32-16,38189678,-14823
32-17,38193584,-8597
32-18,38197490,-2751
32-19,38201396,8169
32-20,38205302,24624
32-21,38209208,31740
32-22,38213114,8366
32-23,38217020,-14801
32-24,38220926,-13206
32-25,38224832,-8069
32-26,38228738,1205
32-27,38232644,13503
32-28,38236550,16220
32-29,38240456,7828
32-30,38244362,-7911
32-31,38248268,-15186
32-32,38252174,-13212
32-1,38256086,-12335
32-2,38259992,-11733
32-3,38263898,-5724
32-4,38267804,6998
32-5,38271710,5142
32-6,38275616,-10932
32-7,38279522,-14552
32-8,38283428,-9552
32-9,38287334,-3617
32-10,38291240,6144
32-11,38295146,22045
32-12,38299052,30717
32-13,38302958,9144
32-14,38306864,-14473
32-15,38310770,-13721
32-16,38314676,-7664
32-17,38318582,-770
32-18,38322488,11822
32-19,38326394,28474
32-20,38330300,27751
32-21,38334206,-350
32-22,38338112,-16838
32-23,38342018,-11669
32-24,38345924,-5816
32-25,38349830,2772
32-26,38353736,19781
32-27,38357642,30373
32-28,38361548,11682
32-29,38365454,-13291
32-30,38369360,-15446
32-31,38373266,-12477
32-32,38377172,-11300
32-1,38381083,-5496
32-2,38384989,10139
32-3,38388895,23994
32-4,38392801,7425
32-5,38396707,-15049
32-6,38400613,-15198
32-7,38404519,-11542
32-8,38408425,-9906
32-9,38412331,-2608
32-10,38416237,13777
32-11,38420143,19113
32-12,38424049,-2286
32-13,38427955,-16591
32-14,38431861,-12237
32-15,38435767,-6086
32-16,38439673,2868
32-17,38443579,16833
32-18,38447485,31149
32-19,38451391,21039
32-20,38455297,-8416
32-21,38459203,-17259
32-22,38463109,-11729
32-23,38467015,-7747
32-24,38470921,629
32-25,38474827,16991
32-26,38478733,28732
32-27,38482639,10385
32-28,38486545,-14638
32-29,38490451,-16122
32-30,38494357,-12479
32-31,38498263,-11154
32-32,38502169,-3374
32-1,38506203,14610
32-2,38510109,21356
32-3,38514015,-1020
32-4,38517921,-17204
32-5,38521827,-14184
32-6,38525733,-13011
32-7,38529639,-13151
32-8,38533545,-7864
32-9,38537451,4990
32-10,38541357,6190
32-11,38545263,-9873
32-12,38549169,-15482
32-13,38553075,-9908
32-14,38556981,-2377
32-15,38560887,8346
32-16,38564793,23021
32-17,38568699,32070
32-18,38572605,13609
32-19,38576511,-13083
32-20,38580417,-15308
32-21,38584323,-9984
32-22,38588229,-5556
32-23,38592135,4989
32-24,38596041,22404
32-25,38599947,27022
32-26,38603853,1999
32-27,38607759,-17137
32-28,38611665,-14156
32-29,38615571,-12390
32-30,38619477,-14121
32-31,38623383,-9644
32-32,38627289,5124
32-1,38631079,8241
32-2,38634985,-8770
32-3,38638891,-16166
32-4,38642797,-12789
32-5,38646703,-11679
32-6,38650609,-9690
32-7,38654515,434
32-8,38658421,14528
32-9,38662327,6708
32-10,38666233,-12365
32-11,38670139,-14175
32-12,38674045,-9211
32-13,38677951,-4237
32-14,38681857,5724
32-15,38685763,22582
32-16,38689669,28422
32-17,38693575,4627
32-18,38697481,-14987
32-19,38701387,-12128
32-20,38705293,-6662
32-21,38709199,706
32-22,38713105,14031
32-23,38717011,30032
32-24,38720917,24655
32-25,38724823,-4646
32-26,38728729,-16339
32-27,38732635,-10509
32-28,38736541,-8992
32-29,38740447,-10454
32-30,38744353,-7061
32-31,38748259,5305
32-32,38752165,3907
32-1,38756076,-11611
32-2,38759982,-14628
32-3,38763888,-11541
32-4,38767794,-11213
32-5,38771700,-8710
32-6,38775606,2924
32-7,38779512,13183
32-8,38783418,564
32-9,38787324,-13771
32-10,38791230,-11682
32-11,38795136,-6176
32-12,38799042,1186
32-13,38802948,13604
32-14,38806854,29637
32-15,38810760,25677
32-16,38814666,-2691
32-17,38818572,-15266
32-18,38822478,-9795
32-19,38826384,-4323
32-20,38830290,4732
32-21,38834196,20075
32-22,38838102,32481
32-23,38842008,18039
32-24,38845914,-10270
32-25,38849820,-15228
32-26,38853726,-8014
32-27,38857632,-3535
32-28,38861538,-1162
32-29,38865444,276
32-30,38869350,1489
32-31,38873256,-5470
32-32,38877162,-13141
32-1,38881043,-13127
32-2,38884949,-11217
32-3,38888855,-9605
32-4,38892761,-3707
32-5,38896667,13203
32-6,38900573,17710
32-7,38904479,-3518
32-8,38908385,-15154
32-9,38912291,-10194
32-10,38916197,-4788
32-11,38920103,3336
32-12,38924009,17564
32-13,38927915,31243
32-14,38931821,18484
32-15,38935727,-9293
32-16,38939633,-14675
32-17,38943539,-8457
32-18,38947445,-2720
32-19,38951351,7999
32-20,38955257,24374
32-21,38959163,31949
32-22,38963069,9046
32-23,38966975,-14405
32-24,38970881,-13098
32-25,38974787,-7968
32-26,38978693,1057
32-27,38982599,13078
32-28,38986505,15820
32-29,38990411,7643
32-30,38994317,-7959
32-31,38998223,-15192
32-32,39002129,-13177
32-1,39006071,-12278
32-2,39009977,-11665
32-3,39013883,-5810
32-4,39017789,6820
32-5,39021695,5199
32-6,39025601,-10757
32-7,39029507,-14466
32-8,39033413,-9499
32-9,39037319,-3616
32-10,39041225,6013
32-11,39045131,21820
32-12,39049037,30731
32-13,39052943,9541
32-14,39056849,-14038
32-15,39060755,-13444
32-16,39064661,-7513
32-17,39068567,-723
32-18,39072473,11848
32-19,39076379,28587
32-20,39080285,28026
32-21,39084191,-7
32-22,39088097,-16574
32-23,39092003,-11482
32-24,39095909,-5857
32-25,39099815,2394
32-26,39103721,19369
32-27,39107627,30006
32-28,39111533,11338
32-29,39115439,-13415
32-30,39119345,-15515
32-31,39123251,-12789
32-32,39127157,-12379
32-1,39131069,-8828
32-2,39134975,3190
32-3,39138881,16125
32-4,39142787,3770
32-5,39146693,-14844
32-6,39150599,-14747
32-7,39154505,-10860
32-8,39158411,-7680
32-9,39162317,1249
32-10,39166223,18354
32-11,39170129,22380
32-12,39174035,-1236
32-13,39177941,-16568
32-14,39181847,-12453
32-15,39185753,-7375
32-16,39189659,276
32-17,39193565,14350
32-18,39197471,29867
32-19,39201377,20699
32-20,39205283,-8340
32-21,39209189,-16853
32-22,39213095,-10596
32-23,39217001,-4653
32-24,39220907,5776
32-25,39224813,21961
32-26,39228719,31535
32-27,39232625,11788
32-28,39236531,-14485
32-29,39240437,-16254
32-30,39244343,-12509
32-31,39248249,-11678
32-32,39252155,-4871
32-1,39256067,12474
32-2,39259973,19755
32-3,39263879,-1446
32-4,39267785,-17197
32-5,39271691,-14284
32-6,39275597,-12831
32-7,39279503,-12503
32-8,39283409,-6318
32-9,39287315,7663
32-10,39291221,8246
32-11,39295127,-9636
32-12,39299033,-15985
32-13,39302939,-10904
32-14,39306845,-4858
32-15,39310751,4861
32-16,39314657,20258
32-17,39318563,31368
32-18,39322469,13116
32-19,39326375,-13122
32-20,39330281,-14984
32-21,39334187,-8818
32-22,39338093,-2399
32-23,39341999,9558
32-24,39345905,26319
32-25,39349811,29554
32-26,39353717,3271
32-27,39357623,-16867
32-28,39361529,-14083
32-29,39365435,-12162
32-30,39369341,-13982
32-31,39373247,-9107
32-32,39377153,6915
32-1,39381064,10241
32-2,39384970,-8225
32-3,39388876,-16355
32-4,39392782,-12868
32-5,39396688,-12195
32-6,39400594,-10907
32-7,39404500,-1922
32-8,39408406,11515
32-9,39412312,5066
32-10,39416218,-12403
32-11,39420124,-13952
32-12,39424030,-8352
32-13,39427936,-1489
32-14,39431842,9681
32-15,39435748,25934
32-16,39439654,30402
32-17,39443560,5169
32-18,39447466,-15490
32-19,39451372,-12972
32-20,39455278,-8470
32-21,39459184,-2843
32-22,39463090,9871
32-23,39466996,26901
32-24,39470902,22962
32-25,39474808,-5370
32-26,39478714,-16439
32-27,39482620,-9807
32-28,39486526,-7477
32-29,39490432,-8934
32-30,39494338,-4644
32-31,39498244,9607
32-32,39502150,6837
32-1,39506062,-11753
32-2,39509968,-15074
32-3,39513874,-11719
32-4,39517780,-12042
32-5,39521686,-10114
32-6,39525592,109
32-7,39529498,9809
32-8,39533404,-946
32-9,39537310,-13719
32-10,39541216,-11248
32-11,39545122,-4386
32-12,39549028,4991
32-13,39552934,17620
32-14,39556840,32162
32-15,39560746,27032
32-16,39564652,-2290
32-17,39568558,-15885
32-18,39572464,-10935
32-19,39576370,-6736
32-20,39580276,558
32-21,39584182,15737
32-22,39588088,29890
32-23,39591994,16666
32-24,39595900,-10654
32-25,39599806,-15551
32-26,39603712,-8450
32-27,39607618,-3921
32-28,39611524,-1483
32-29,39615430,107
32-30,39619336,1461
32-31,39623242,-5554
32-32,39627148,-13396
32-1,39631060,-13451
32-2,39634966,-11872
32-3,39638872,-11017
32-4,39642778,-7415
32-5,39646684,5498
32-6,39650590,10263
32-7,39654496,-5481
32-8,39658402,-14262
32-9,39662308,-9304
32-10,39666214,-1857
32-11,39670120,8602
32-12,39674026,22435
32-13,39677932,32767
32-14,39681838,19937
32-15,39685744,-9010
32-16,39689650,-15183
32-17,39693556,-9438
32-18,39697462,-5080
32-19,39701368,4410
32-20,39705274,21254
32-21,39709180,30243
32-22,39713086,8539
32-23,39716992,-14378
32-24,39720898,-13043
32-25,39724804,-8108
32-26,39728710,611
32-27,39732616,12330
32-28,39736522,15042
32-29,39740428,7317
32-30,39744334,-7747
32-31,39748240,-14891
32-32,39752146,-12906
32-1,39756057,-11493
32-2,39759963,-9911
32-3,39763869,-1250
32-4,39767775,15071
32-5,39771681,11662
32-6,39775587,-9855
32-7,39779493,-15086
32-8,39783399,-9457
32-9,39787305,-4161
32-10,39791211,5161
32-11,39795117,20897
32-12,39799023,29960
32-13,39802929,9281
32-14,39806835,-14211
32-15,39810741,-13721
32-16,39814647,-7897
32-17,39818553,-1396
32-18,39822459,10839
32-19,39826365,27686
32-20,39830271,27839
32-21,39834177,159
32-22,39838083,-16672
32-23,39841989,-11706
32-24,39845895,-6233
32-25,39849801,1803
32-26,39853707,18654
32-27,39857613,29302
32-28,39861519,11080
32-29,39865425,-13411
32-30,39869331,-15621
32-31,39873237,-12777
32-32,39877143,-11784
32-1,39881055,-7175
32-2,39884961,5929
32-3,39888867,19242
32-4,39892773,5657
32-5,39896679,-14832
32-6,39900585,-15241
32-7,39904491,-11486
32-8,39908397,-9327
32-9,39912303,-1590
32-10,39916209,15243
32-11,39920115,20695
32-12,39924021,-1454
32-13,39927927,-16682
32-14,39931833,-12714
32-15,39935739,-7634
32-16,39939645,-71
32-17,39943551,13906
32-18,39947457,29571
32-19,39951363,20923
32-20,39955269,-7924
32-21,39959175,-16652
32-22,39963081,-10522
32-23,39966987,-4718
32-24,39970893,5512
32-25,39974799,21627
32-26,39978705,31542
32-27,39982611,11716
32-28,39986517,-14673
32-29,39990423,-16372
32-30,39994329,-12635
32-31,39998235,-11989
32-32,40002141,-5457
32-1,40006052,11714
32-2,40009958,19410
32-3,40013864,-1374
32-4,40017770,-17169
32-5,40021676,-14288
32-6,40025582,-12819
32-7,40029488,-12479
32-8,40033394,-6200
32-9,40037300,7973
32-10,40041206,8708
32-11,40045112,-9293
32-12,40049018,-15750
32-13,40052924,-10656
32-14,40056830,-4754
32-15,40060736,4732
32-16,40064642,19981
32-17,40068548,31146
32-18,40072454,13028
32-19,40076360,-13242
32-20,40080266,-15164
32-21,40084172,-9007
32-22,40088078,-2705
32-23,40091984,9111
32-24,40095890,25984
32-25,40099796,29447
32-26,40103702,3158
32-27,40107608,-17037
32-28,40111514,-14186
32-29,40115420,-12213
32-30,40119326,-13916
32-31,40123232,-9219
32-32,40127138,6225
32-1,40131050,9631
32-2,40134956,-8190
32-3,40138862,-16151
32-4,40142768,-12828
32-5,40146674,-12337
32-6,40150580,-11501
32-7,40154486,-3788
32-8,40158392,8666
32-9,40162298,3464
32-10,40166204,-12363
32-11,40170110,-13879
32-12,40174016,-8643
32-13,40177922,-2230
32-14,40181828,8424
32-15,40185734,24807
32-16,40189640,29707
32-17,40193546,4963
32-18,40197452,-15216
32-19,40201358,-12352
32-20,40205264,-6742
32-21,40209170,790
32-22,40213076,14303
32-23,40216982,30340
32-24,40220888,25075
32-25,40224794,-4229
32-26,40228700,-16213
32-27,40232606,-10688
32-28,40236512,-9394
32-29,40240418,-10869
32-30,40244324,-7576
32-31,40248230,4455
32-32,40252136,3297
32-1,40256048,-11653
32-2,40259954,-14611
32-3,40263860,-11647
32-4,40267766,-11291
32-5,40271672,-8866
32-6,40275578,2425
32-7,40279484,12579
32-8,40283390,348
32-9,40287296,-13735
32-10,40291202,-11674
32-11,40295108,-6075
32-12,40299014,1557
32-13,40302920,14047
32-14,40306826,30046
32-15,40310732,26273
32-16,40314638,-2375
32-17,40318544,-15504
32-18,40322450,-9999
32-19,40326356,-4233
32-20,40330262,5222
32-21,40334168,20527
32-22,40338074,32441
32-23,40341980,18432
32-24,40345886,-9828
32-25,40349792,-15344
32-26,40353698,-9105
32-27,40357604,-5981
32-28,40361510,-4014
32-29,40365416,-2301
32-30,40369322,-572
32-31,40373228,-6159
32-32,40377134,-13032
32-1,40381076,-13237
32-2,40384982,-11487
32-3,40388888,-10076
32-4,40392794,-5534
32-5,40396700,8851
32-6,40400606,13517
32-7,40404512,-4296
32-8,40408418,-14301
32-9,40412324,-9670
32-10,40416230,-3592
32-11,40420136,5512
32-12,40424042,19812
32-13,40427948,32767
32-14,40431854,19846
32-15,40435760,-8743
32-16,40439666,-14882
32-17,40443572,-9330
32-18,40447478,-5257
32-19,40451384,3905
32-20,40455290,20602
32-21,40459196,29919
32-22,40463102,8748
32-23,40467008,-13923
32-24,40470914,-11851
32-25,40474820,-2164
32-26,40478726,12850
32-27,40482632,25241
32-28,40486538,25626
32-29,40490444,14775
32-30,40494350,-6143
32-31,40498256,-16165
32-32,40502162,-13428
32-1,40506043,-13046
32-2,40509949,-13034
32-3,40513855,-8287
32-4,40517761,2429
32-5,40521667,1973
32-6,40525573,-11322
32-7,40529479,-14523
32-8,40533385,-9401
32-9,40537291,-2206
32-10,40541197,8127
32-11,40545103,23301
32-12,40549009,31576
32-13,40552915,10067
32-14,40556821,-14292
32-15,40560727,-14291
32-16,40564633,-9312
32-17,40568539,-4749
32-18,40572445,6360
32-19,40576351,23906
32-20,40580257,25605
32-21,40584163,-652
32-22,40588069,-16950
32-23,40591975,-12143
32-24,40595881,-6953
32-25,40599787,501
32-26,40603693,17031
32-27,40607599,28416
32-28,40611505,11009
32-29,40615411,-13429
32-30,40619317,-15710
32-31,40623223,-12794
32-32,40627129,-11989
32-1,40631041,-7728
32-2,40634947,5041
32-3,40638853,18151
32-4,40642759,4876
32-5,40646665,-14840
32-6,40650571,-14920
32-7,40654477,-10752
32-8,40658383,-6163
32-9,40662289,5027
32-10,40666195,23700
32-11,40670101,27619
32-12,40674007,1029
32-13,40677913,-17133
32-14,40681819,-13066
32-15,40685725,-8226
32-16,40689631,-1656
32-17,40693537,11916
32-18,40697443,27819
32-19,40701349,20044
32-20,40705255,-8236
32-21,40709161,-17076
32-22,40713067,-11165
32-23,40716973,-5837
32-24,40720879,3808
32-25,40724785,19870
32-26,40728691,30593
32-27,40732597,11396
32-28,40736503,-14636
32-29,40740409,-16511
32-30,40744315,-12875
32-31,40748221,-12211
32-32,40752127,-5668
32-1,40756038,11397
32-2,40759944,19049
32-3,40763850,-1530
32-4,40767756,-17251
32-5,40771662,-14482
32-6,40775568,-13035
32-7,40779474,-12658
32-8,40783380,-6451
32-9,40787286,7872
32-10,40791192,8989
32-11,40795098,-9201
32-12,40799004,-16065
32-13,40802910,-10975
32-14,40806816,-5087
32-15,40810722,4229
32-16,40814628,19257
32-17,40818534,30612
32-18,40822440,12888
32-19,40826346,-13553
32-20,40830252,-15584
32-21,40834158,-9202
32-22,40838064,-2702
32-23,40841970,9143
32-24,40845876,25832
32-25,40849782,29579
32-26,40853688,3530
32-27,40857594,-17078
32-28,40861500,-14361
32-29,40865406,-12306
32-30,40869312,-14060
32-31,40873218,-9409
32-32,40877124,6003
32-1,40881036,9523
32-2,40884942,-8382
32-3,40888848,-16509
32-4,40892754,-13136
32-5,40896660,-12687
32-6,40900566,-11993
32-7,40904472,-4657
32-8,40908378,7598
32-9,40912284,2909
32-10,40916190,-12529
32-11,40920096,-14107
32-12,40924002,-8937
32-13,40927908,-2618
32-14,40931814,7828
32-15,40935720,24076
32-16,40939626,29251
32-17,40943532,4848
32-18,40947438,-15356
32-19,40951344,-12536
32-20,40955250,-6908
32-21,40959156,528
32-22,40963062,13980
32-23,40966968,30158
32-24,40970874,25073
32-25,40974780,-4304
32-26,40978686,-16400
32-27,40982592,-10899
32-28,40986498,-9759
32-29,40990404,-11324
32-30,40994310,-8156
32-31,40998216,3645
32-32,41002122,2745
32-1,41006034,-11721
32-2,41009940,-14596
32-3,41013846,-11693
32-4,41017752,-11376
32-5,41021658,-9118
32-6,41025564,1865
32-7,41029470,11943
32-8,41033376,140
32-9,41037282,-13605
32-10,41041188,-11605
32-11,41045094,-6157
32-12,41049000,1290
32-13,41052906,13665
32-14,41056812,29830
32-15,41060718,26368
32-16,41064624,-2090
32-17,41068530,-15236
32-18,41072436,-9885
32-19,41076342,-4438
32-20,41080248,4585
32-21,41084154,19857
32-22,41088060,32549
32-23,41091966,18412
32-24,41095872,-9795
32-25,41099778,-15197
32-26,41103684,-7902
32-27,41107590,-3223
32-28,41111496,-1012
32-29,41115402,433
32-30,41119308,2010
32-31,41123214,-4921
32-32,41127120,-13003
32-1,41131062,-13118
32-2,41134968,-11532
32-3,41138874,-10739
32-4,41142780,-7084
32-5,41146686,5908
32-6,41150592,10730
32-7,41154498,-5120
32-8,41158404,-14276
32-9,41162310,-10059
32-10,41166216,-4372
32-11,41170122,4224
32-12,41174028,18371
32-13,41177934,32124
32-14,41181840,19481
32-15,41185746,-8650
32-16,41189652,-14468
32-17,41193558,-8193
32-18,41197464,-2210
32-19,41201370,8775
32-20,41205276,25044
32-21,41209182,32373
32-22,41213088,9718
32-23,41216994,-14058
32-24,41220900,-13020
32-25,41224806,-7686
32-26,41228712,1604
32-27,41232618,13877
32-28,41236524,16789
32-29,41240430,8694
32-30,41244336,-7189
32-31,41248242,-14882
32-32,41252148,-12954
32-1,41256029,-12002
32-2,41259935,-11322
32-3,41263841,-5223
32-4,41267747,7896
32-5,41271653,6398
32-6,41275559,-10254
32-7,41279465,-14390
32-8,41283371,-9383
32-9,41287277,-3574
32-10,41291183,6060
32-11,41295089,21775
32-12,41298995,30941
32-13,41302901,10207
32-14,41306807,-13844
32-15,41310713,-13886
32-16,41314619,-8951
32-17,41318525,-4425
32-18,41322431,6577
32-19,41326337,24165
32-20,41330243,26129
32-21,41334149,82
32-22,41338055,-16120
32-23,41341961,-10621
32-24,41345867,-3081
32-25,41349773,6973
32-26,41353679,23382
32-27,41357585,31773
32-28,41361491,13249
32-29,41365397,-12654
32-30,41369303,-15455
32-31,41373209,-12529
32-32,41377115,-12136
32-1,41381026,-8698
32-2,41384932,3040
32-3,41388838,16123
32-4,41392744,4377
32-5,41396650,-14431
32-6,41400556,-14796
32-7,41404462,-11263
32-8,41408368,-9094
32-9,41412274,-1717
32-10,41416180,14897
32-11,41420086,20797
32-12,41423992,-950
32-13,41427898,-16240
32-14,41431804,-11925
32-15,41435710,-5340
32-16,41439616,4040
32-17,41443522,17981
32-18,41447428,32026
32-19,41451334,22701
32-20,41455240,-7034
32-21,41459146,-16818
32-22,41463052,-11239
32-23,41466958,-6953
32-24,41470864,1595
32-25,41474770,17902
32-26,41478676,29829
32-27,41482582,11756
32-28,41486488,-14009
32-29,41490394,-16051
32-30,41494300,-12353
32-31,41498206,-11652
32-32,41502112,-5200
32-1,41506024,11885
32-2,41509930,19560
32-3,41513836,-1158
32-4,41517742,-17006
32-5,41521648,-14193
32-6,41525554,-12644
32-7,41529460,-12206
32-8,41533366,-6013
32-9,41537272,8252
32-10,41541178,9307
32-11,41545084,-8935
32-12,41548990,-15574
32-13,41552896,-9334
32-14,41556802,-877
32-15,41560708,10636
32-16,41564614,24882
32-17,41568520,32001
32-18,41572426,14507
32-19,41576332,-13161
32-20,41580238,-15945
32-21,41584144,-10320
32-22,41588050,-5677
32-23,41591956,4932
32-24,41595862,22419
32-25,41599768,27762
32-26,41603674,3001
32-27,41607580,-17047
32-28,41611486,-14367
32-29,41615392,-12362
32-30,41619298,-14042
32-31,41623204,-9619
32-32,41627110,5241
32-1,41631022,8883
32-2,41634928,-8244
32-3,41638834,-16171
32-4,41642740,-12911
32-5,41646646,-12142
32-6,41650552,-10969
32-7,41654458,-2624
32-8,41658364,10743
32-9,41662270,5214
32-10,41666176,-12074
32-11,41670082,-14036
32-12,41673988,-8645
32-13,41677894,-2385
32-14,41681800,8193
32-15,41685706,24508
32-16,41689612,29735
32-17,41693518,5239
32-18,41697424,-15331
32-19,41701330,-12583
32-20,41705236,-6766
32-21,41709142,864
32-22,41713048,14276
32-23,41716954,30340
32-24,41720860,25450
32-25,41724766,-4006
32-26,41728672,-16408
32-27,41732578,-10836
32-28,41736484,-9562
32-29,41740390,-11154
32-30,41744296,-8169
32-31,41748202,3691
32-32,41752108,3060
32-1,41756019,-11615
32-2,41759925,-14667
32-3,41763831,-11741
32-4,41767737,-11609
32-5,41771643,-9888
32-6,41775549,-158
32-7,41779455,9746
32-8,41783361,-446
32-9,41787267,-13440
32-10,41791173,-11742
32-11,41795079,-6354
32-12,41798985,944
32-13,41802891,12965
32-14,41806797,29198
32-15,41810703,26485
32-16,41814609,-1637
32-17,41818515,-15112
32-18,41822421,-9815
32-19,41826327,-4295
32-20,41830233,4633
32-21,41834139,19750
32-22,41838045,32555
32-23,41841951,18930
32-24,41845857,-9494
32-25,41849763,-15210
32-26,41853669,-7837
32-27,41857575,-2924
32-28,41861481,-392
32-29,41865387,1199
32-30,41869293,2696
32-31,41873199,-4576
32-32,41877105,-13030
32-1,41881017,-13180
32-2,41884923,-11205
32-3,41888829,-9633
32-4,41892735,-3672
32-5,41896641,13469
32-6,41900547,18385
32-7,41904453,-3039
32-8,41908359,-15208
32-9,41912265,-10302
32-10,41916171,-4914
32-11,41920077,3113
32-12,41923983,17284
32-13,41927889,31176
32-14,41931795,18864
32-15,41935701,-9109
32-16,41939607,-14933
32-17,41943513,-8757
32-18,41947419,-3048
32-19,41951325,7566
32-20,41955231,23853
32-21,41959137,31842
32-22,41963043,9444
32-23,41966949,-14293
32-24,41970855,-13255
32-25,41974761,-8177
32-26,41978667,629
32-27,41982573,12663
32-28,41986479,15514
32-29,41990385,7546
32-30,41994291,-7828
32-31,41998197,-15125
32-32,42002103,-13188
32-1,42006015,-12281
32-2,42009921,-11714
32-3,42013827,-6208
32-4,42017733,6261
32-5,42021639,5239
32-6,42025545,-10451
32-7,42029451,-14437
32-8,42033357,-9592
32-9,42037263,-3833
32-10,42041169,5607
32-11,42045075,21197
32-12,42048981,30572
32-13,42052887,10123
32-14,42056793,-13783
32-15,42060699,-13609
32-16,42064605,-7731
32-17,42068511,-1180
32-18,42072417,11100
32-19,42076323,27841
32-20,42080229,28222
32-21,42084135,692
32-22,42088041,-16576
32-23,42091947,-11705
32-24,42095853,-5971
32-25,42099759,2133
32-26,42103665,18959
32-27,42107571,29822
32-28,42111477,11746
32-29,42115383,-13109
32-30,42119289,-15483
32-31,42123195,-12436
32-32,42127101,-11176
32-1,42131012,-5529
32-2,42134918,9648
32-3,42138824,23853
32-4,42142730,8156
32-5,42146636,-14661
32-6,42150542,-15314
32-7,42154448,-11526
32-8,42158354,-9899
32-9,42162260,-2914
32-10,42166166,13130
32-11,42170072,19058
32-12,42173978,-1754
32-13,42177884,-16365
32-14,42181790,-11456
32-15,42185696,-2855
32-16,42189602,9657
32-17,42193508,23902
32-18,42197414,31674
32-19,42201320,22883
32-20,42205226,-6965
32-21,42209132,-17098
32-22,42213038,-11321
32-23,42216944,-5632
32-24,42220850,4069
32-25,42224756,20049
32-26,42228662,30708
32-27,42232568,11636
32-28,42236474,-14802
32-29,42240380,-17037
32-30,42244286,-13236
32-31,42248192,-12576
32-32,42252098,-6439
32-1,42256010,10143
32-2,42259916,18192
32-3,42263822,-1703
32-4,42267728,-17569
32-5,42271634,-14953
32-6,42275540,-13392
32-7,42279446,-13084
32-8,42283352,-7162
32-9,42287258,6746
32-10,42291164,8053
32-11,42295070,-9528
32-12,42298976,-16320
32-13,42302882,-11425
32-14,42306788,-5607
32-15,42310694,3662
32-16,42314600,18723
32-17,42318506,30429
32-18,42322412,13214
32-19,42326318,-13324
32-20,42330224,-15926
32-21,42334130,-10655
32-22,42338036,-6620
32-23,42341942,3191
32-24,42345848,20372
32-25,42349754,26332
32-26,42353660,2590
32-27,42357566,-16924
32-28,42361472,-14229
32-29,42365378,-12156
32-30,42369284,-13740
32-31,42373190,-8482
32-32,42377096,8239
32-1,42381007,12004
32-2,42384913,-7325
32-3,42388819,-16312
32-4,42392725,-12770
32-5,42396631,-12354
32-6,42400537,-11707
32-7,42404443,-4290
32-8,42408349,8122
32-9,42412255,3551
32-10,42416161,-12141
32-11,42420067,-13650
32-12,42423973,-7404
32-13,42427879,845
32-14,42431785,12298
32-15,42435691,27549
32-16,42439597,31680
32-17,42443503,6410
32-18,42447409,-15186
32-19,42451315,-13041
32-20,42455221,-8355
32-21,42459127,-2815
32-22,42463033,9862
32-23,42466939,27107
32-24,42470845,24015
32-25,42474751,-4100
32-26,42478657,-16277
32-27,42482563,-10977
32-28,42486469,-9722
32-29,42490375,-11149
32-30,42494281,-8327
32-31,42498187,2991
32-32,42502093,2507
32-1,42506005,-11556
32-2,42509911,-14636
32-3,42513817,-11750
32-4,42517723,-11296
32-5,42521629,-9049
32-6,42525535,1941
32-7,42529441,12422
32-8,42533347,703
32-9,42537253,-13544
32-10,42541159,-11083
32-11,42545065,-3711
32-12,42548971,6259
32-13,42552877,19233
32-14,42556783,32767
32-15,42560689,27860
32-16,42564595,-1336
32-17,42568501,-15682
32-18,42572407,-11025
32-19,42576313,-6674
32-20,42580219,608
32-21,42584125,15581
32-22,42588031,29980
32-23,42591937,17409
32-24,42595843,-10309
32-25,42599749,-15883
32-26,42603655,-8724
32-27,42607561,-4109
32-28,42611467,-1687
32-29,42615373,-82
32-30,42619279,1694
32-31,42623185,-5051
32-32,42627091,-13339
32-1,42631033,-13584
32-2,42634939,-11945
32-3,42638845,-11094
32-4,42642751,-7536
32-5,42646657,5401
32-6,42650563,10707
32-7,42654469,-4996
32-8,42658375,-14551
32-9,42662281,-10503
32-10,42666187,-5150
32-11,42670093,2950
32-12,42673999,16872
32-13,42677905,31047
32-14,42681811,19336
32-15,42685717,-8553
32-16,42689623,-14656
32-17,42693529,-8473
32-18,42697435,-2686
32-19,42701341,7974
32-20,42705247,24315
32-21,42709153,32292
32-22,42713059,10168
32-23,42716965,-14007
32-24,42720871,-13159
32-25,42724777,-7912
32-26,42728683,951
32-27,42732589,12796
32-28,42736495,15654
32-29,42740401,8070
32-30,42744307,-7337
32-31,42748213,-14965
32-32,42752119,-13000
32-1,42756000,-11562
32-2,42759906,-9942
32-3,42763812,-1224
32-4,42767718,15725
32-5,42771624,13050
32-6,42775530,-9200
32-7,42779436,-15236
32-8,42783342,-9485
32-9,42787248,-4128
32-10,42791154,5103
32-11,42795060,20608
32-12,42798966,30176
32-13,42802872,10253
32-14,42806778,-13834
32-15,42810684,-13906
32-16,42814590,-7986
32-17,42818496,-1554
32-18,42822402,10517
32-19,42826308,27299
32-20,42830214,27923
32-21,42834120,442
32-22,42838026,-16954
32-23,42841932,-12100
32-24,42845838,-6461
32-25,42849744,1445
32-26,42853650,18409
32-27,42857556,29401
32-28,42861462,11268
32-29,42865368,-13472
32-30,42869274,-15615
32-31,42873180,-13189
32-32,42877086,-14061
32-1,42880998,-12731
32-2,42884904,-6715
32-3,42888810,2720
32-4,42892716,-2330
32-5,42896622,-13919
32-6,42900528,-14111
32-7,42904434,-9800
32-8,42908340,-4065
32-9,42912246,6056
32-10,42916152,22772
32-11,42920058,25957
32-12,42923964,936
32-13,42927870,-16059
32-14,42931776,-12242
32-15,42935682,-7051
32-16,42939588,412
32-17,42943494,14195
32-18,42947400,29697
32-19,42951306,21462
32-20,42955212,-7487
32-21,42959118,-16725
32-22,42963024,-10666
32-23,42966930,-5090
32-24,42970836,4823
32-25,42974742,20814
32-26,42978648,31616
32-27,42982554,12743
32-28,42986460,-13747
32-29,42990366,-16042
32-30,42994272,-12258
32-31,42998178,-11632
32-32,43002084,-5459
32-1,43005996,11309
32-2,43009902,19409
32-3,43013808,-760
32-4,43017714,-16826
32-5,43021620,-14200
32-6,43025526,-12722
32-7,43029432,-12532
32-8,43033338,-6893
32-9,43037244,6593
32-10,43041150,8048
32-11,43045056,-9022
32-12,43048962,-15685
32-13,43052868,-10841
32-14,43056774,-4968
32-15,43060680,4356
32-16,43064586,19385
32-17,43068492,31035
32-18,43072398,13832
32-19,43076304,-12647
32-20,43080210,-15056
32-21,43084116,-8846
32-22,43088022,-2585
32-23,43091928,9048
32-24,43095834,25746
32-25,43099740,29863
32-26,43103646,4207
32-27,43107552,-16573
32-28,43111458,-14073
32-29,43115364,-11957
32-30,43119270,-13697
32-31,43123176,-9224
32-32,43127082,6061
32-1,43130993,9983
32-2,43134899,-7575
32-3,43138805,-15903
32-4,43142711,-12573
32-5,43146617,-11833
32-6,43150523,-10801
32-7,43154429,-2632
32-8,43158335,10618
32-9,43162241,5270
32-10,43166147,-11862
32-11,43170053,-13853
32-12,43173959,-8426
32-13,43177865,-1907
32-14,43181771,8859
32-15,43185677,24988
32-16,43189583,30270
32-17,43193489,5927
32-18,43197395,-15027
32-19,43201301,-12563
32-20,43205207,-6741
32-21,43209113,947
32-22,43213019,14438
32-23,43216925,30354
32-24,43220831,25664
32-25,43224737,-3645
32-26,43228643,-16690
32-27,43232549,-11804
32-28,43236455,-10993
32-29,43240361,-12345
32-30,43244267,-9843
32-31,43248173,10
32-32,43252079,196
32-1,43256021,-11592
32-2,43259927,-14364
32-3,43263833,-11709
32-4,43267739,-10681
32-5,43271645,-7767
32-6,43275551,4483
32-7,43279457,15425
32-8,43283363,2081
32-9,43287269,-13610
32-10,43291175,-11658
32-11,43295081,-5801
32-12,43298987,2004
32-13,43302893,14529
32-14,43306799,30362
32-15,43310705,27330
32-16,43314611,-1148
32-17,43318517,-15325
32-18,43322423,-10644
32-19,43326329,-6596
32-20,43330235,291
32-21,43334141,15023
32-22,43338047,29709
32-23,43341953,17861
32-24,43345859,-9561
32-25,43349765,-15025
32-26,43353671,-6028
32-27,43357577,1110
32-28,43361483,3687
32-29,43365389,4941
32-30,43369295,6814
32-31,43373201,-2366
32-32,43377107,-13316
32-1,43381172,-13541
32-2,43385078,-11819
32-3,43388984,-11563
32-4,43392890,-8737
32-5,43396796,2789
32-6,43400702,8202
32-7,43404608,-5524
32-8,43408514,-14120
32-9,43412420,-9719
32-10,43416326,-2658
32-11,43420232,7265
32-12,43424138,21014
32-13,43428044,32752
32-14,43431950,20694
32-15,43435856,-8223
32-16,43439762,-15062
32-17,43443668,-9470
32-18,43447574,-5371
32-19,43451480,3639
32-20,43455386,20335
32-21,43459292,30172
32-22,43463198,9306
32-23,43467104,-14106
32-24,43471010,-13225
32-25,43474916,-8317
32-26,43478822,153
32-27,43482728,11691
32-28,43486634,14351
32-29,43490540,7126
32-30,43494446,-7428
32-31,43498352,-14692
32-32,43502258,-12882
32-1,43505986,-11950
32-2,43509892,-11309
32-3,43513798,-5741
32-4,43517704,7095
32-5,43521610,6483
32-6,43525516,-9613
32-7,43529422,-13857
32-8,43533328,-7991
32-9,43537234,-30
32-10,43541140,11117
32-11,43545046,25771
32-12,43548952,32347
32-13,43552858,12154
32-14,43556764,-13140
32-15,43560670,-13905
32-16,43564576,-8749
32-17,43568482,-4111
32-18,43572388,6895
32-19,43576294,24436
32-20,43580200,26722
32-21,43584106,551
32-22,43588012,-16551
32-23,43591918,-11936
32-24,43595824,-6588
32-25,43599730,909
32-26,43603636,17552
32-27,43607542,29162
32-28,43611448,11986
32-29,43615354,-12832
32-30,43619260,-15495
32-31,43623166,-12544
32-32,43627072,-11639
32-1,43630984,-7249
32-2,43634890,5395
32-3,43638796,18952
32-4,43642702,6330
32-5,43646608,-14207
32-6,43650514,-15043
32-7,43654420,-11263
32-8,43658326,-9124
32-9,43662232,-1690
32-10,43666138,14962
32-11,43670044,21300
32-12,43673950,-264
32-13,43677856,-16196
32-14,43681762,-12551
32-15,43685668,-7468
32-16,43689574,-157
32-17,43693480,13467
32-18,43697386,29386
32-19,43701292,21925
32-20,43705198,-6958
32-21,43709104,-16619
32-22,43713010,-10572
32-23,43716916,-4785
32-24,43720822,5280
32-25,43724728,21207
32-26,43728634,31589
32-27,43732540,13429
32-28,43736446,-13442
32-29,43740352,-16034
32-30,43744258,-12211
32-31,43748164,-11548
32-32,43752070,-5246
32-1,43755981,11711
32-2,43759887,20151
32-3,43763793,-83
32-4,43767699,-16673
32-5,43771605,-14153
32-6,43775511,-12713
32-7,43779417,-12853
32-8,43783323,-7897
32-9,43787229,4902
32-10,43791135,6962
32-11,43795041,-9007
32-12,43798947,-15553
32-13,43802853,-10925
32-14,43806759,-5258
32-15,43810665,3698
32-16,43814571,18650
32-17,43818477,30631
32-18,43822383,13772
32-19,43826289,-12605
32-20,43830195,-15037
32-21,43834101,-8883
32-22,43838007,-2770
32-23,43841913,8775
32-24,43845819,25590
32-25,43849725,29911
32-26,43853631,4311
32-27,43857537,-16502
32-28,43861443,-13986
32-29,43865349,-11884
32-30,43869255,-13650
32-31,43873161,-9310
32-32,43877067,5744
32-1,43880979,9700
32-2,43884885,-7645
32-3,43888791,-15913
32-4,43892697,-12639
32-5,43896603,-11952
32-6,43900509,-10955
32-7,43904415,-2878
32-8,43908321,10310
32-9,43912227,5071
32-10,43916133,-11958
32-11,43920039,-13948
32-12,43923945,-8557
32-13,43927851,-2167
32-14,43931757,8404
32-15,43935663,24638
32-16,43939569,30401
32-17,43943475,6299
32-18,43947381,-14812
32-19,43951287,-12416
32-20,43955193,-6641
32-21,43959099,775
32-22,43963005,14036
32-23,43966911,30139
32-24,43970817,25784
32-25,43974723,-3401
32-26,43978629,-16268
32-27,43982535,-10905
32-28,43986441,-9558
32-29,43990347,-11133
32-30,43994253,-8070
32-31,43998159,3899
32-32,44002065,3416
32-1,44006129,-11342
32-2,44010035,-14641
32-3,44013941,-11660
32-4,44017847,-11271
32-5,44021753,-9090
32-6,44025659,1776
32-7,44029565,12283
32-8,44033471,786
32-9,44037377,-13498
32-10,44041283,-11767
32-11,44045189,-6270
32-12,44049095,1237
32-13,44053001,13559
32-14,44056907,29662
32-15,44060813,26913
32-16,44064719,-1408
32-17,44068625,-15336
32-18,44072531,-10094
32-19,44076437,-4477
32-20,44080343,4509
32-21,44084249,19543
32-22,44088155,32403
32-23,44092061,19066
32-24,44095967,-9442
32-25,44099873,-15535
32-26,44103779,-8033
32-27,44107685,-3111
32-28,44111591,-930
32-29,44115497,510
32-30,44119403,2418
32-31,44123309,-4459
32-32,44127215,-13104
32-1,44130974,-13365
32-2,44134880,-11666
32-3,44138786,-10880
32-4,44142692,-7323
32-5,44146598,5744
32-6,44150504,11316
32-7,44154410,-4361
32-8,44158316,-14158
32-9,44162222,-10180
32-10,44166128,-4603
32-11,44170034,3814
32-12,44173940,17767
32-13,44177846,31888
32-14,44181752,20217
32-15,44185658,-8135
32-16,44189564,-14831
32-17,44193470,-9316
32-18,44197376,-5474
32-19,44201282,3259
32-20,44205188,19835
32-21,44209094,29828
32-22,44213000,9354
32-23,44216906,-13771
32-24,44220812,-12494
32-25,44224718,-5547
32-26,44228624,5905
32-27,44232530,18349
32-28,44236436,20230
32-29,44240342,11376
32-30,44244248,-6193
32-31,44248154,-15137
32-32,44252060,-12969
32-1,44255972,-12247
32-2,44259878,-12158
32-3,44263784,-7501
32-4,44267690,4001
32-5,44271596,4015
32-6,44275502,-10231
32-7,44279408,-14086
32-8,44283314,-8743
32-9,44287220,-1412
32-10,44291126,9046
32-11,44295032,24034
32-12,44298938,32345
32-13,44302844,11713
32-14,44306750,-13535
32-15,44310656,-14162
32-16,44314562,-8936
32-17,44318468,-4195
32-18,44322374,6867
32-19,44326280,24367
32-20,44330186,26913
32-21,44334092,905
32-22,44337998,-16466
32-23,44341904,-11936
32-24,44345810,-6363
32-25,44349716,1382
32-26,44353622,18094
32-27,44357528,29591
32-28,44361434,12378
32-29,44365340,-12516
32-30,44369246,-15341
32-31,44373152,-12397
32-32,44377058,-11504
32-1,44380970,-7154
32-2,44384876,5678
32-3,44388782,19332
32-4,44392688,6361
32-5,44396594,-14231
32-6,44400500,-14756
32-7,44404406,-10472
32-8,44408312,-6087
32-9,44412218,4775
32-10,44416124,23239
32-11,44420030,27918
32-12,44423936,1910
32-13,44427842,-16888
32-14,44431748,-13120
32-15,44435654,-8261
32-16,44439560,-1856
32-17,44443466,11455
32-18,44447372,27495
32-19,44451278,20721
32-20,44455184,-7471
32-21,44459090,-17056
32-22,44462996,-11153
32-23,44466902,-5596
32-24,44470808,4082
32-25,44474714,19938
32-26,44478620,31283
32-27,44482526,12996
32-28,44486432,-13859
32-29,44490338,-16492
32-30,44494244,-12590
32-31,44498150,-11885
32-32,44502056,-5497
32-1,44505967,11578
32-2,44509873,19923
32-3,44513779,-518
32-4,44517685,-17129
32-5,44521591,-14527
32-6,44525497,-12698
32-7,44529403,-12032
32-8,44533309,-4707
32-9,44537215,11995
32-10,44541121,13485
32-11,44545027,-7950
32-12,44548933,-16768
32-13,44552839,-11427
32-14,44556745,-6366
32-15,44560651,1971
32-16,44564557,16798
32-17,44568463,28933
32-18,44572369,12806
32-19,44576275,-13269
32-20,44580181,-15820
32-21,44584087,-9814
32-22,44587993,-4074
32-23,44591899,7035
32-24,44595805,23838
32-25,44599711,28957
32-26,44603617,3965
32-27,44607523,-17041
32-28,44611429,-14268
32-29,44615335,-11591
32-30,44619241,-13024
32-31,44623147,-6142
32-32,44627053,13552
32-1,44631087,17132
32-2,44634993,-6145
32-3,44638899,-17177
32-4,44642805,-12949
32-5,44646711,-11804
32-6,44650617,-9751
32-7,44654523,1475
32-8,44658429,17543
32-9,44662335,9940
32-10,44666241,-12121
32-11,44670147,-15202
32-12,44674053,-9342
32-13,44677959,-3700
32-14,44681865,6381
32-15,44685771,22452
32-16,44689677,28627
32-17,44693583,5162
32-18,44697489,-15918
32-19,44701395,-13661
32-20,44705301,-8093
32-21,44709207,-1094
32-22,44713113,11824
32-23,44717019,28208
32-24,44720925,24615
32-25,44724831,-4319
32-26,44728737,-17314
32-27,44732643,-11904
32-28,44736549,-10547
32-29,44740455,-12101
32-30,44744361,-9277
32-31,44748267,2422
32-32,44752173,2338
32-1,44756024,-11979
32-2,44759930,-15328
32-3,44763836,-12182
32-4,44767742,-11069
32-5,44771648,-7124
32-6,44775554,7683
32-7,44779460,20101
32-8,44783366,4113
32-9,44787272,-14612
32-10,44791178,-12765
32-11,44795084,-7147
32-12,44798990,-616
32-13,44802896,11459
32-14,44806802,27777
32-15,44810708,25458
32-16,44814614,-2400
32-17,44818520,-16104
32-18,44822426,-10951
32-19,44826332,-5630
32-20,44830238,2969
32-21,44834144,18089
32-22,44838050,31753
32-23,44841956,18424
32-24,44845862,-10168
32-25,44849768,-16235
32-26,44853674,-9006
32-27,44857580,-4303
32-28,44861486,-1946
32-29,44865392,-505
32-30,44869298,1237
32-31,44873204,-5421
32-32,44877110,-13718
32-1,44880991,-13940
32-2,44884897,-12333
32-3,44888803,-11595
32-4,44892709,-8375
32-5,44896615,3953
32-6,44900521,9480
32-7,44904427,-5255
32-8,44908333,-14567
32-9,44912239,-10747
32-10,44916145,-5360
32-11,44920051,2779
32-12,44923957,16635
32-13,44927863,30991
32-14,44931769,19635
32-15,44935675,-8430
32-16,44939581,-14922
32-17,44943487,-8795
32-18,44947393,-3093
32-19,44951299,7391
32-20,44955205,23549
32-21,44959111,32067
32-22,44963017,10374
32-23,44966923,-13880
32-24,44970829,-13326
32-25,44974735,-8020
32-26,44978641,814
32-27,44982547,12641
32-28,44986453,15623
32-29,44990359,8221
32-30,44994265,-7274
32-31,44998171,-15174
32-32,45002077,-13264
32-1,45005958,-12268
32-2,45009864,-11672
32-3,45013770,-6157
32-4,45017676,6565
32-5,45021582,5975
32-6,45025488,-10031
32-7,45029394,-14256
32-8,45033300,-8421
32-9,45037206,142
32-10,45041112,12690
32-11,45045018,27661
32-12,45048924,32308
32-13,45052830,12588
32-14,45056736,-13110
32-15,45060642,-14143
32-16,45064548,-8248
32-17,45068454,-2327
32-18,45072360,9280
32-19,45076266,26217
32-20,45080172,27657
32-21,45084078,830
32-22,45087984,-16880
32-23,45091890,-12314
32-24,45095796,-6689
32-25,45099702,1084
32-26,45103608,17728
32-27,45107514,29038
32-28,45111420,11827
32-29,45115326,-12972
32-30,45119232,-15789
32-31,45123138,-12844
32-32,45127044,-11604
32-1,45130955,-6078
32-2,45134861,8887
32-3,45138767,23606
32-4,45142673,8566
32-5,45146579,-14735
32-6,45150485,-15760
32-7,45154391,-11883
32-8,45158297,-10349
32-9,45162203,-3568
32-10,45166109,12396
32-11,45170015,19119
32-12,45173921,-1207
32-13,45177827,-16575
32-14,45181733,-12720
32-15,45185639,-6585
32-16,45189545,2089
32-17,45193451,15722
32-18,45197357,30604
32-19,45201263,22408
32-20,45205169,-7188
32-21,45209075,-17509
32-22,45212981,-12030
32-23,45216887,-8116
32-24,45220793,-180
32-25,45224699,15739
32-26,45228605,28478
32-27,45232511,11755
32-28,45236417,-14130
32-29,45240323,-16572
32-30,45244229,-12244
32-31,45248135,-9088
32-32,45252041,1367
32-1,45255953,21111
32-2,45259859,27903
32-3,45263765,2318
32-4,45267671,-17780
32-5,45271577,-15041
32-6,45275483,-13475
32-7,45279389,-14005
32-8,45283295,-9331
32-9,45287201,2683
32-10,45291107,5114
32-11,45295013,-9705
32-12,45298919,-15962
32-13,45302825,-10902
32-14,45306731,-3752
32-15,45310637,6357
32-16,45314543,20805
32-17,45318449,31872
32-18,45322355,14448
32-19,45326261,-12987
32-20,45330167,-16168
32-21,45334073,-10690
32-22,45337979,-6504
32-23,45341885,3452
32-24,45345791,20690
32-25,45349697,27042
32-26,45353603,3392
32-27,45357509,-16913
32-28,45361415,-14562
32-29,45365321,-12456
32-30,45369227,-14186
32-31,45373133,-10284
32-32,45377039,4074
32-1,45380951,8447
32-2,45384857,-8025
32-3,45388763,-16249
32-4,45392669,-13034
32-5,45396575,-12212
32-6,45400481,-11239
32-7,45404387,-3504
32-8,45408293,9740
32-9,45412199,5285
32-10,45416105,-11535
32-11,45420011,-13553
32-12,45423917,-6938
32-13,45427823,1728
32-14,45431729,13417
32-15,45435635,28278
32-16,45439541,32465
32-17,45443447,7376
32-18,45447353,-15064
32-19,45451259,-13329
32-20,45455165,-8509
32-21,45459071,-3150
32-22,45462977,9199
32-23,45466883,26449
32-24,45470789,24228
32-25,45474695,-3628
32-26,45478601,-16492
32-27,45482507,-11286
32-28,45486413,-9923
32-29,45490319,-11404
32-30,45494225,-8759
32-31,45498131,2533
32-32,45502037,2624
32-1,45506009,-11311
32-2,45509915,-14701
32-3,45513821,-11822
32-4,45517727,-11363
32-5,45521633,-9263
32-6,45525539,1461
32-7,45529445,12326
32-8,45533351,1106
32-9,45537257,-13531
32-10,45541163,-11961
32-11,45545069,-6747
32-12,45548975,775
32-13,45552881,12409
32-14,45556787,26225
32-15,45560693,23969
32-16,45564599,-1631
32-17,45568505,-15168
32-18,45572411,-10419
32-19,45576317,-4839
32-20,45580223,3772
32-21,45584129,18668
32-22,45588035,32381
32-23,45591941,19616
32-24,45595847,-8988
32-25,45599753,-15349
32-26,45603659,-7972
32-27,45607565,-3179
32-28,45611471,-899
32-29,45615377,644
32-30,45619283,2949
32-31,45623189,-3672
32-32,45627095,-12685
32-1,45631007,-13118
32-2,45634913,-11049
32-3,45638819,-9504
32-4,45642725,-3863
32-5,45646631,12973
32-6,45650537,18897
32-7,45654443,-1975
32-8,45658349,-14971
32-9,45662255,-10355
32-10,45666161,-5052
32-11,45670067,2609
32-12,45673973,16415
32-13,45677879,30753
32-14,45681785,19808
32-15,45685691,-8206
32-16,45689597,-14882
32-17,45693503,-8737
32-18,45697409,-3092
32-19,45701315,7246
32-20,45705221,23401
32-21,45709127,32189
32-22,45713033,10646
32-23,45716939,-13735
32-24,45720845,-13305
32-25,45724751,-8108
32-26,45728657,616
32-27,45732563,12366
32-28,45736469,15480
32-29,45740375,8444
32-30,45744281,-6899
32-31,45748187,-14867
32-32,45752093,-13017
32-1,45755944,-12129
32-2,45759850,-11618
32-3,45763756,-6247
32-4,45767662,6417
32-5,45771568,6130
32-6,45775474,-9723
32-7,45779380,-14315
32-8,45783286,-9579
32-9,45787192,-3997
32-10,45791098,5193
32-11,45795004,20623
32-12,45798910,30722
32-13,45802816,11193
32-14,45806722,-13255
32-15,45810628,-13688
32-16,45814534,-7733
32-17,45818440,-1320
32-18,45822346,10667
32-19,45826252,27534
32-20,45830158,28859
32-21,45834064,1571
32-22,45837970,-16534
32-23,45841876,-11924
32-24,45845782,-6361
32-25,45849688,1319
32-26,45853594,18093
32-27,45857500,29363
32-28,45861406,12153
32-29,45865312,-12434
32-30,45869218,-15274
32-31,45873124,-12553
32-32,45877030,-12077
32-1,45880941,-8792
32-2,45884847,2657
32-3,45888753,16254
32-4,45892659,5162
32-5,45896565,-14121
32-6,45900471,-14889
32-7,45904377,-11306
32-8,45908283,-9361
32-9,45912189,-2417
32-10,45916095,13809
32-11,45920001,20539
32-12,45923907,-173
32-13,45927813,-15593
32-14,45931719,-10852
32-15,45935625,-2285
32-16,45939531,10013
32-17,45943437,24118
32-18,45947343,31893
32-19,45951249,23843
32-20,45955155,-5916
32-21,45959061,-16802
32-22,45962967,-11148
32-23,45966873,-5516
32-24,45970779,3849
