32-1,21516382,-6998
32-2,21520288,2358
32-3,21524194,7668
32-4,21528100,5229
32-5,21532006,-2238
32-6,21535912,-7883
32-7,21539818,-6706
32-8,21543724,675
32-9,21547630,9503
32-10,21551536,13891
32-11,21555442,11244
32-12,21559348,3137
32-13,21563254,-6092
32-14,21567160,-11035
32-15,21571066,-8980
32-16,21574972,-673
32-17,21578878,8897
32-18,21582784,12968
32-19,21586690,9119
32-20,21590596,23
32-21,21594502,-8357
32-22,21598408,-10670
32-23,21602314,-5711
32-24,21606220,3817
32-25,21610126,11589
32-26,21614032,12373
32-27,21617938,6302
32-28,21621844,-3349
32-29,21625750,-11473
32-30,21629656,-14021
32-31,21633562,-9679
32-32,21637468,-142
32-1,21641380,8210
32-2,21645286,9975
32-3,21649192,4178
32-4,21653098,-5606
32-5,21657004,-12151
32-6,21660910,-11117
32-7,21664816,-3039
32-8,21668722,7213
32-9,21672628,12574
32-10,21676534,9853
32-11,21680440,1113
32-12,21684346,-7688
32-13,21688252,-10468
32-14,21692158,-5921
32-15,21696064,3317
32-16,21699970,11500
32-17,21703876,12925
32-18,21707782,6986
32-19,21711688,-2562
32-20,21715594,-9547
32-21,21719500,-9749
32-22,21723406,-3367
32-23,21727312,6139
32-24,21731218,12237
32-25,21735124,11223
32-26,21739030,4451
32-27,21742936,-4969
32-28,21746842,-12342
32-29,21750748,-14176
32-30,21754654,-9103
32-31,21758560,540
32-32,21762466,7972
32-1,21766377,8515
32-2,21770283,1927
32-3,21774189,-7886
32-4,21778095,-14165
32-5,21782001,-12839
32-6,21785907,-4339
32-7,21789813,6152
32-8,21793719,11292
32-9,21797625,8013
32-10,21801531,-853
32-11,21805437,-8349
32-12,21809343,-8752
32-13,21813249,-2093
32-14,21817155,7435
32-15,21821061,13570
32-16,21824967,12286
32-17,21828873,4617
32-18,21832779,-4857
32-19,21836685,-10232
32-20,21840591,-8566
32-21,21844497,-786
32-22,21848403,8605
32-23,21852309,12962
32-24,21856215,9929
32-25,21860121,2058
32-26,21864027,-6614
32-27,21867933,-11873
32-28,21871839,-11460
32-29,21875745,-5126
32-30,21879651,3712
32-31,21883557,9022
32-32,21887463,7690
32-1,21891375,60
32-2,21895281,-9357
32-3,21899187,-14317
32-4,21903093,-11376
32-5,21906999,-1811
32-6,21910905,7720
32-7,21914811,10649
32-8,21918717,5520
32-9,21922623,-3641
32-10,21926529,-9677
32-11,21930435,-8271
32-12,21934341,-555
32-13,21938247,8637
32-14,21942153,13136
32-15,21946059,10164
32-16,21949965,1717
32-17,21953871,-7058
32-18,21957777,-10572
32-19,21961683,-6967
32-20,21965589,1983
32-21,21969495,10792
32-22,21973401,13032
32-23,21977307,7808
32-24,21981213,-1275
32-25,21985119,-8558
32-26,21989025,-10468
32-27,21992931,-7373
32-28,21996837,-976
32-29,22000743,4579
32-30,22004649,6065
32-31,22008555,2998
32-32,22012461,-3935
32-1,22016373,-11081
32-2,22020279,-13636
32-3,22024185,-8844
32-4,22028091,1519
32-5,22031997,9953
32-6,22035903,10404
32-7,22039809,3364
32-8,22043715,-5725
32-9,22047621,-9771
32-10,22051527,-6107
32-11,22055433,2738
32-12,22059339,11143
32-13,22063245,13413
32-14,22067151,8393
32-15,22071057,-862
32-16,22074963,-8595
32-17,22078869,-10096
32-18,22082775,-4702
32-19,22086681,4780
32-20,22090587,12093
32-21,22094493,12208
32-22,22098399,5194
32-23,22102305,-4368
32-24,22106211,-10032
32-25,22110117,-8596
32-26,22114023,-1819
32-27,22117929,5452
32-28,22121835,7836
32-29,22125741,4459
32-30,22129647,-1980
32-31,22133553,-8803
32-32,22137459,-12917
32-1,22141553,-12463
32-2,22145459,-6090
32-3,22149365,3712
32-4,22153271,10030
32-5,22157177,8532
32-6,22161083,418
32-7,22164989,-7775
32-8,22168895,-9670
32-9,22172801,-4134
32-10,22176707,5343
32-11,22180613,12502
32-12,22184519,12634
32-13,22188425,5950
32-14,22192331,-3494
32-15,22196237,-9749
32-16,22200143,-9125
32-17,22204049,-2016
32-18,22207955,7695
32-19,22211861,13364
32-20,22215767,11272
32-21,22219673,3075
32-22,22223579,-6350
32-23,22227485,-10520
32-24,22231391,-6942
32-25,22235297,1639
32-26,22239203,9452
32-27,22243109,10697
32-28,22247015,5427
32-29,22250921,-2880
32-30,22254827,-10427
32-31,22258733,-13895
32-32,22262639,-11680
32-1,22266368,-3847
32-2,22270274,5587
32-3,22274180,10176
32-4,22278086,6669
32-5,22281992,-2029
32-6,22285898,-8894
32-7,22289804,-8705
32-8,22293710,-1641
32-9,22297616,7829
32-10,22301522,13372
32-11,22305428,11597
32-12,22309334,3741
32-13,22313240,-5722
32-14,22317146,-10939
32-15,22321052,-9044
32-16,22324958,-794
32-17,22328864,8998
32-18,22332770,13355
32-19,22336676,9590
32-20,22340582,499
32-21,22344488,-7716
32-22,22348394,-9633
32-23,22352300,-4371
32-24,22356206,4923
32-25,22360112,11973
32-26,22364018,12047
32-27,22367924,5732
32-28,22371830,-3694
32-29,22375736,-11616
32-30,22379642,-14417
32-31,22383548,-10697
32-32,22387454,-1743
32-1,22391365,6509
32-2,22395271,8888
32-3,22399177,4087
32-4,22403083,-5153
32-5,22406989,-12057
32-6,22410895,-11862
32-7,22414801,-4323
32-8,22418707,6120
32-9,22422613,12109
32-10,22426519,9850
32-11,22430425,1309
32-12,22434331,-7295
32-13,22438237,-9671
32-14,22442143,-4647
32-15,22446049,4577
32-16,22449955,12170
32-17,22453861,13088
32-18,22457767,7078
32-19,22461673,-2495
32-20,22465579,-9915
32-21,22469485,-10854
32-22,22473391,-4870
32-23,22477297,4966
32-24,22481203,11844
32-25,22485109,11472
32-26,22489015,4868
32-27,22492921,-4695
32-28,22496827,-12223
32-29,22500733,-14106
32-30,22504639,-9163
32-31,22508545,325
32-32,22512451,7844
32-1,22516363,8711
32-2,22520269,2499
32-3,22524175,-7085
32-4,22528081,-13393
32-5,22531987,-12278
32-6,22535893,-4000
32-7,22539799,6316
32-8,22543705,11434
32-9,22547611,8385
32-10,22551517,-188
32-11,22555423,-7593
32-12,22559329,-8236
32-13,22563235,-2043
32-14,22567141,7004
32-15,22571047,12908
32-16,22574953,11846
32-17,22578859,4605
32-18,22582765,-4735
32-19,22586671,-10443
32-20,22590577,-9249
32-21,22594483,-1648
32-22,22598389,8051
32-23,22602295,13015
32-24,22606201,10466
32-25,22610107,2730
32-26,22614013,-6064
32-27,22617919,-11423
32-28,22621825,-11069
32-29,22625731,-4900
32-30,22629637,3767
32-31,22633543,9026
32-32,22637449,7809
32-1,22641361,408
32-2,22645267,-8988
32-3,22649173,-14303
32-4,22653079,-11887
32-5,22656985,-2662
32-6,22660891,7019
32-7,22664797,10424
32-8,22668703,5702
32-9,22672609,-3256
32-10,22676515,-9189
32-11,22680421,-7605
32-12,22684327,326
32-13,22688233,9550
32-14,22692139,13907
32-15,22696045,10806
32-16,22699951,2319
32-17,22703857,-6463
32-18,22707763,-10019
32-19,22711669,-6547
32-20,22715575,2222
32-21,22719481,10961
32-22,22723387,13316
32-23,22727293,8358
32-24,22731199,-422
32-25,22735105,-7564
32-26,22739011,-9539
32-27,22742917,-6661
32-28,22746823,-505
32-29,22750729,4979
32-30,22754635,6494
32-31,22758541,3498
32-32,22762447,-3340
32-1,22766358,-10561
32-2,22770264,-13420
32-3,22774170,-9084
32-4,22778076,914
32-5,22781982,9332
32-6,22785888,10030
32-7,22789794,3276
32-8,22793700,-5660
32-9,22797606,-9693
32-10,22801512,-6028
32-11,22805418,2889
32-12,22809324,11428
32-13,22813230,13842
32-14,22817136,8903
32-15,22821042,-380
32-16,22824948,-8232
32-17,22828854,-9867
32-18,22832760,-4549
32-19,22836666,4966
32-20,22840572,12426
32-21,22844478,12680
32-22,22848384,5725
32-23,22852290,-3867
32-24,22856196,-9699
32-25,22860102,-8517
32-26,22864008,-1991
32-27,22867914,5172
32-28,22871820,7617
32-29,22875726,4368
32-30,22879632,-1951
32-31,22883538,-8741
32-32,22887444,-12913
32-1,22891356,-12557
32-2,22895262,-6251
32-3,22899168,3590
32-4,22903074,10028
32-5,22906980,8640
32-6,22910886,600
32-7,22914792,-7568
32-8,22918698,-9473
32-9,22922604,-3958
32-10,22926510,5495
32-11,22930416,12626
32-12,22934322,12667
32-13,22938228,5989
32-14,22942134,-3224
32-15,22946040,-9141
32-16,22949946,-8332
32-17,22953852,-1478
32-18,22957758,7633
32-19,22961664,12812
32-20,22965570,11074
32-21,22969476,3719
32-22,22973382,-6167
32-23,22977288,-12761
32-24,22981194,-12194
32-25,22985100,-4994
32-26,22989006,4229
32-27,22992912,8477
32-28,22996818,5544
32-29,23000724,-2127
32-30,23004630,-10064
32-31,23008536,-13548
32-32,23012442,-10689
32-1,23016354,-2502
32-2,23020260,6754
32-3,23024166,10868
32-4,23028072,6832
32-5,23031978,-2104
32-6,23035884,-8882
32-7,23039790,-8514
32-8,23043696,-1444
32-9,23047602,7905
32-10,23051508,13296
32-11,23055414,11293
32-12,23059320,3330
32-13,23063226,-5855
32-14,23067132,-10458
32-15,23071038,-7964
32-16,23074944,396
32-17,23078850,9696
32-18,23082756,13397
32-19,23086662,9324
32-20,23090568,187
32-21,23094474,-8213
32-22,23098380,-10612
32-23,23102286,-5765
32-24,23106192,3729
32-25,23110098,11514
32-26,23114004,12336
32-27,23117910,6398
32-28,23121816,-3082
32-29,23125722,-11285
32-30,23129628,-14391
32-31,23133534,-10956
32-32,23137440,-2103
32-1,23141351,6396
32-2,23145257,9136
32-3,23149163,4572
32-4,23153069,-4435
32-5,23156975,-10974
32-6,23160881,-10346
32-7,23164787,-2594
32-8,23168693,7569
32-9,23172599,12914
32-10,23176505,10116
32-11,23180411,1396
32-12,23184317,-7143
32-13,23188223,-9505
32-14,23192129,-4648
32-15,23196035,4471
32-16,23199941,12115
32-17,23203847,13020
32-18,23207753,6875
32-19,23211659,-2600
32-20,23215565,-9492
32-21,23219471,-9727
32-22,23223377,-3325
32-23,23227283,6271
32-24,23231189,12484
32-25,23235095,11587
32-26,23239001,4881
32-27,23242907,-4538
32-28,23246813,-12132
32-29,23250719,-14431
32-30,23254625,-9831
32-31,23258531,-368
32-32,23262437,7374
32-1,23266349,8501
32-2,23270255,2319
32-3,23274161,-7272
32-4,23278067,-13298
32-5,23281973,-11635
32-6,23285879,-2957
32-7,23289785,7174
32-8,23293691,11604
32-9,23297597,7792
32-10,23301503,-1175
32-11,23305409,-8469
32-12,23309315,-8741
32-13,23313221,-2206
32-14,23317127,7062
32-15,23321033,13017
32-16,23324939,11907
32-17,23328845,4561
32-18,23332751,-4929
32-19,23336657,-10783
32-20,23340563,-9753
32-21,23344469,-2018
32-22,23348375,7706
32-23,23352281,12145
32-24,23356187,9250
32-25,23360093,2547
32-26,23363999,-3388
32-27,23367905,-5333
32-28,23371811,-2893
32-29,23375717,1966
32-30,23379623,6188
32-31,23383529,7575
32-32,23387435,7102
32-1,23391346,6355
32-2,23395252,6291
32-3,23399158,6995
32-4,23403064,8088
32-5,23406970,9730
32-6,23410876,10398
32-7,23414782,8691
32-8,23418688,3649
32-9,23422594,-4466
32-10,23426500,-11995
32-11,23430406,-16105
32-12,23434312,-16422
32-13,23438218,-13939
32-14,23442124,-11338
32-15,23446030,-10127
32-16,23449936,-9850
32-17,23453842,-9504
32-18,23457748,-7414
32-19,23461654,-2825
32-20,23465560,3803
32-21,23469466,9770
32-22,23473372,11118
32-23,23477278,6696
32-24,23481184,-1480
32-25,23485090,-8840
32-26,23488996,-11902
32-27,23492902,-9926
32-28,23496808,-3791
32-29,23500714,2499
32-30,23504620,5221
32-31,23508526,3190
32-32,23512432,-3213
32-1,23516344,-10319
32-2,23520250,-13144
32-3,23524156,-8875
32-4,23528062,1047
32-5,23531968,9389
32-6,23535874,10015
32-7,23539780,3443
32-8,23543686,-4935
32-9,23547592,-8287
32-10,23551498,-4297
32-11,23555404,4268
32-12,23559310,11933
32-13,23563216,13643
32-14,23567122,8641
32-15,23571028,-466
32-16,23574934,-8528
32-17,23578840,-10849
32-18,23582746,-6115
32-19,23586652,3403
32-20,23590558,11365
32-21,23594464,12242
32-22,23598370,5651
32-23,23602276,-3897
32-24,23606182,-9763
32-25,23610088,-8520
32-26,23613994,-1946
32-27,23617900,5224
32-28,23621806,7791
32-29,23625712,4759
32-30,23629618,-1312
32-31,23633524,-7944
32-32,23637430,-12103
32-1,23641342,-11842
32-2,23645248,-5694
32-3,23649154,4024
32-4,23653060,10473
32-5,23656966,9298
32-6,23660872,1324
32-7,23664778,-7333
32-8,23668684,-10184
32-9,23672590,-5530
32-10,23676496,3729
32-11,23680402,11485
32-12,23684308,12509
32-13,23688214,6382
32-14,23692120,-2986
32-15,23696026,-9401
32-16,23699932,-8868
32-17,23703838,-1842
32-18,23707744,7770
32-19,23711650,13495
32-20,23715556,11586
32-21,23719462,3541
32-22,23723368,-5945
32-23,23727274,-10376
32-24,23731180,-7008
32-25,23735086,1547
32-26,23738992,9502
32-27,23742898,10827
32-28,23746804,5450
32-29,23750710,-2972
32-30,23754616,-10569
32-31,23758522,-14058
32-32,23762428,-11899
32-1,23766339,-4128
32-2,23770245,5409
32-3,23774151,10263
32-4,23778057,6988
32-5,23781963,-1639
32-6,23785869,-8542
32-7,23789775,-8426
32-8,23793681,-1433
32-9,23797587,8030
32-10,23801493,13616
32-11,23805399,11813
32-12,23809305,3939
32-13,23813211,-5361
32-14,23817117,-10254
32-15,23821023,-8080
32-16,23824929,116
32-17,23828835,9498
32-18,23832741,13483
32-19,23836647,9629
32-20,23840553,549
32-21,23844459,-8077
32-22,23848365,-10687
32-23,23852271,-5633
32-24,23856177,3629
32-25,23860083,10816
32-26,23863989,11386
32-27,23867895,6844
32-28,23871801,1910
32-29,23875707,193
32-30,23879613,2033
32-31,23883519,5769
32-32,23887425,9976
32-1,23891337,11719
32-2,23895243,9537
32-3,23899149,3483
32-4,23903055,-4827
32-5,23906961,-12021
32-6,23910867,-16119
32-7,23914773,-15684
32-8,23918679,-11262
32-9,23922585,-6340
32-10,23926491,-3928
32-11,23930397,-5024
32-12,23934303,-7859
32-13,23938209,-8386
32-14,23942115,-4199
32-15,23946021,3846
32-16,23949927,11137
32-17,23953833,12464
32-18,23957739,6899
32-19,23961645,-2323
32-20,23965551,-9369
32-21,23969457,-9884
32-22,23973363,-3623
32-23,23977269,6014
32-24,23981175,12414
32-25,23985081,11684
32-26,23988987,4998
32-27,23992893,-4489
32-28,23996799,-12018
32-29,24000705,-14064
32-30,24004611,-9287
32-31,24008517,127
32-32,24012423,7601
32-1,24016335,8459
32-2,24020241,2274
32-3,24024147,-7331
32-4,24028053,-13742
32-5,24031959,-12755
32-6,24035865,-4558
32-7,24039771,5751
32-8,24043677,10926
32-9,24047583,7778
32-10,24051489,-972
32-11,24055395,-8517
32-12,24059301,-8911
32-13,24063207,-1882
32-14,24067113,7103
32-15,24071019,11704
32-16,24074925,10520
32-17,24078831,7163
32-18,24082737,5350
32-19,24086643,6118
32-20,24090549,7632
32-21,24094455,9067
32-22,24098361,10642
32-23,24102267,10574
32-24,24106173,7775
32-25,24110079,1532
32-26,24113985,-6766
32-27,24117891,-13587
32-28,24121797,-16847
32-29,24125703,-15019
32-30,24129609,-9220
32-31,24133515,-3331
32-32,24137421,-731
32-1,24141332,-3395
32-2,24145238,-9039
32-3,24149144,-12130
32-4,24153050,-8721
32-5,24156956,695
32-6,24160862,9235
32-7,24164768,10364
32-8,24168674,4811
32-9,24172580,-2178
32-10,24176486,-4638
32-11,24180392,-943
32-12,24184298,5808
32-13,24188204,11635
32-14,24192110,12917
32-15,24196016,9216
32-16,24199922,2155
32-17,24203828,-6528
32-18,24207734,-13231
32-19,24211640,-14172
32-20,24215546,-7811
32-21,24219452,2288
32-22,24223358,8604
32-23,24227264,7231
32-24,24231170,-59
32-25,24235076,-7383
32-26,24238982,-9764
32-27,24242888,-7028
32-28,24246794,-1479
32-29,24250700,3112
32-30,24254606,4379
32-31,24258512,2060
32-32,24262418,-3717
32-1,24266330,-10371
32-2,24270236,-13413
32-3,24274142,-9597
32-4,24278048,66
32-5,24281954,8604
32-6,24285860,9814
32-7,24289766,3555
32-8,24293672,-5309
32-9,24297578,-9731
32-10,24301484,-6578
32-11,24305390,2073
32-12,24309296,10673
32-13,24313202,13461
32-14,24317108,8989
32-15,24321014,-137
32-16,24324920,-8284
32-17,24328826,-10350
32-18,24332732,-5210
32-19,24336638,4492
32-20,24340544,12426
32-21,24344450,13177
32-22,24348356,6444
32-23,24352262,-3184
32-24,24356168,-9030
32-25,24360074,-7805
32-26,24363980,-1344
32-27,24367886,5622
32-28,24371792,7911
32-29,24375698,4616
32-30,24379604,-1734
32-31,24383510,-8445
32-32,24387416,-12256
32-1,24391328,-11314
32-2,24395234,-4528
32-3,24399140,5276
32-4,24403046,11185
32-5,24406952,9192
32-6,24410858,626
32-7,24414764,-8033
32-8,24418670,-10383
32-9,24422576,-5095
32-10,24426482,4625
32-11,24430388,12456
32-12,24434294,13205
32-13,24438200,6749
32-14,24442106,-2863
32-15,24446012,-9425
32-16,24449918,-9038
32-17,24453824,-2181
32-18,24457730,7318
32-19,24461636,12953
32-20,24465542,10979
32-21,24469448,2947
32-22,24473354,-6423
32-23,24477260,-10717
32-24,24481166,-7297
32-25,24485072,1248
32-26,24488978,9241
32-27,24492884,10794
32-28,24496790,5754
32-29,24500696,-2443
32-30,24504602,-10008
32-31,24508508,-13596
32-32,24512414,-11525
32-1,24516325,-3747
32-2,24520231,5835
32-3,24524137,10684
32-4,24528043,7337
32-5,24531949,-1426
32-6,24535855,-8486
32-7,24539761,-8473
32-8,24543667,-1519
32-9,24547573,7966
32-10,24551479,13634
32-11,24555385,11930
32-12,24559291,4124
32-13,24563197,-5172
32-14,24567103,-10092
32-15,24571009,-7958
32-16,24574915,167
32-17,24578821,9518
32-18,24582727,13527
32-19,24586633,9777
32-20,24590539,771
32-21,24594445,-7794
32-22,24598351,-10532
32-23,24602257,-5958
32-24,24606163,3434
32-25,24610069,11297
32-26,24613975,12202
32-27,24617881,6195
32-28,24621787,-3421
32-29,24625693,-11586
32-30,24629599,-14279
32-31,24633505,-10242
32-32,24637411,-978
32-1,24641323,7424
32-2,24645229,9571
32-3,24649135,4297
32-4,24653041,-5182
32-5,24656947,-11813
32-6,24660853,-11095
32-7,24664759,-3283
32-8,24668665,6980
32-9,24672571,12502
32-10,24676477,9952
32-11,24680383,1461
32-12,24684289,-7119
32-13,24688195,-9760
32-14,24692101,-5271
32-15,24696007,3619
32-16,24699913,11416
32-17,24703819,12967
32-18,24707725,7837
32-19,24711631,-1486
32-20,24715537,-10049
32-21,24719443,-13017
32-22,24723349,-8691
32-23,24727255,1101
32-24,24731161,9603
32-25,24735067,11189
32-26,24738973,5632
32-27,24742879,-3999
32-28,24746785,-11925
32-29,24750691,-13750
32-30,24754597,-8524
32-31,24758503,1089
32-32,24762409,8538
32-1,24766320,9155
32-2,24770226,2696
32-3,24774132,-7085
32-4,24778038,-13509
32-5,24781944,-12453
32-6,24785850,-4240
32-7,24789756,6100
32-8,24793662,11240
32-9,24797568,8060
32-10,24801474,-719
32-11,24805380,-8256
32-12,24809286,-8808
32-13,24813192,-2304
32-14,24817098,7164
32-15,24821004,13395
32-16,24824910,12350
32-17,24828816,4920
32-18,24832722,-4504
32-19,24836628,-10028
32-20,24840534,-8539
32-21,24844440,-734
32-22,24848346,8928
32-23,24852252,13630
32-24,24856158,10751
32-25,24860064,2776
32-26,24863970,-6171
32-27,24867876,-11720
32-28,24871782,-11151
32-29,24875688,-5024
32-30,24879594,2486
32-31,24883500,6871
32-32,24887406,7559
32-1,24891318,6568
32-2,24895224,6172
32-3,24899130,7008
32-4,24903036,8562
32-5,24906942,10621
32-6,24910848,11406
32-7,24914754,9579
32-8,24918660,4503
32-9,24922566,-3594
32-10,24926472,-11365
32-11,24930378,-16023
32-12,24934284,-16151
32-13,24938190,-11753
32-14,24942096,-6191
32-15,24946002,-3064
32-16,24949908,-3893
32-17,24953814,-7249
32-18,24957720,-8765
32-19,24961626,-5435
32-20,24965532,2330
32-21,24969438,10171
32-22,24973344,12207
32-23,24977250,7343
32-24,24981156,-1161
32-25,24985062,-8097
32-26,24988968,-9996
32-27,24992874,-7037
32-28,24996780,-864
32-29,25000686,4585
32-30,25004592,6167
32-31,25008498,3340
32-32,25012404,-3319
32-1,25016316,-10424
32-2,25020222,-13264
32-3,25024128,-8953
32-4,25028034,1034
32-5,25031940,9470
32-6,25035846,10239
32-7,25039752,3494
32-8,25043658,-5588
32-9,25047564,-9867
32-10,25051470,-6414
32-11,25055376,2475
32-12,25059282,11141
32-13,25063188,13721
32-14,25067094,8909
32-15,25071000,-302
32-16,25074906,-8151
32-17,25078812,-9807
32-18,25082718,-4528
32-19,25086624,5022
32-20,25090530,12337
32-21,25094436,11956
32-22,25098342,4978
32-23,25102248,-2943
32-24,25106154,-5861
32-25,25110060,-2360
32-26,25113966,3970
32-27,25117872,8557
32-28,25121778,8119
32-29,25125684,3532
32-30,25129590,-2124
32-31,25133496,-7725
32-32,25137402,-12617
32-1,25141283,-15072
32-2,25145189,-12039
32-3,25149095,-3944
32-4,25153001,3611
32-5,25156907,5345
32-6,25160813,366
32-7,25164719,-6300
32-8,25168625,-8195
32-9,25172531,-3120
32-10,25176437,6061
32-11,25180343,12917
32-12,25184249,12870
32-13,25188155,6299
32-14,25192061,-3258
32-15,25195967,-10181
32-16,25199873,-10524
32-17,25203779,-4004
32-18,25207685,5942
32-19,25211591,12372
32-20,25215497,10897
32-21,25219403,2963
32-22,25223309,-6338
32-23,25227215,-10253
32-24,25231121,-6305
32-25,25235027,2321
32-26,25238933,9865
32-27,25242839,10827
32-28,25246745,5467
32-29,25250651,-2625
32-30,25254557,-10080
32-31,25258463,-14002
32-32,25262369,-12583
32-1,25266372,-5353
32-2,25270278,4090
32-3,25274184,9300
32-4,25278090,6598
32-5,25281996,-1663
32-6,25285902,-8642
32-7,25289808,-8870
32-8,25293714,-2184
32-9,25297620,7129
32-10,25301526,12764
32-11,25305432,11234
32-12,25309338,3607
32-13,25313244,-5775
32-14,25317150,-10991
32-15,25321056,-9032
32-16,25324962,-762
32-17,25328868,8986
32-18,25332774,13397
32-19,25336680,9825
32-20,25340586,762
32-21,25344492,-7889
32-22,25348398,-10566
32-23,25352304,-5864
32-24,25356210,3551
32-25,25360116,11351
32-26,25364022,12183
32-27,25367928,6107
32-28,25371834,-3535
32-29,25375740,-11660
32-30,25379646,-14279
32-31,25383552,-10115
32-32,25387458,-679
32-1,25391309,7521
32-2,25395215,8877
32-3,25399121,3619
32-4,25403027,-3578
32-5,25406933,-6314
32-6,25410839,-2535
32-7,25414745,5077
32-8,25418651,11942
32-9,25422557,13398
32-10,25426463,8571
32-11,25430369,282
32-12,25434275,-6906
32-13,25438181,-8692
32-14,25442087,-4142
32-15,25445993,4247
32-16,25449899,11027
32-17,25453805,11636
32-18,25457711,6522
32-19,25461617,-1584
32-20,25465523,-9454
32-21,25469429,-14823
32-22,25473335,-16209
32-23,25477241,-12494
32-24,25481147,-6327
32-25,25485053,-1491
32-26,25488959,-713
32-27,25492865,-4632
32-28,25496771,-9150
32-29,25500677,-9413
32-30,25504583,-3366
32-31,25508489,6159
32-32,25512395,12182
32-1,25516306,10998
32-2,25520212,3618
32-3,25524118,-6317
32-4,25528024,-13008
32-5,25531930,-12941
32-6,25535836,-5917
32-7,25539742,4157
32-8,25543648,10103
32-9,25547554,8181
32-10,25551460,253
32-11,25555366,-7261
32-12,25559272,-8330
32-13,25563178,-2252
32-14,25567084,7180
32-15,25570990,13624
32-16,25574896,12890
32-17,25578802,5665
32-18,25582708,-3793
32-19,25586614,-9513
32-20,25590520,-8278
32-21,25594426,-784
32-22,25598332,8678
32-23,25602238,13407
32-24,25606144,10727
32-25,25610050,3015
32-26,25613956,-5768
32-27,25617862,-11321
32-28,25621768,-11295
32-29,25625674,-5333
32-30,25629580,3456
32-31,25633486,9081
32-32,25637392,8230
32-1,25641304,988
32-2,25645210,-8418
32-3,25649116,-13701
32-4,25653022,-11195
32-5,25656928,-1888
32-6,25660834,7794
32-7,25664740,11133
32-8,25668646,6361
32-9,25672552,-2693
32-10,25676458,-8825
32-11,25680364,-7499
32-12,25684270,244
32-13,25688176,9498
32-14,25692082,14036
32-15,25695988,11067
32-16,25699894,2585
32-17,25703800,-6359
32-18,25707706,-10155
32-19,25711612,-6847
32-20,25715518,1921
32-21,25719424,10848
32-22,25723330,13388
32-23,25727236,8436
32-24,25731142,-487
32-25,25735048,-7814
32-26,25738954,-9913
32-27,25742860,-7070
32-28,25746766,-842
32-29,25750672,4846
32-30,25754578,6639
32-31,25758484,3890
32-32,25762390,-2855
32-1,25766301,-10201
32-2,25770207,-13304
32-3,25774113,-9171
32-4,25778019,810
32-5,25781925,9376
32-6,25785831,10250
32-7,25789737,3579
32-8,25793643,-5455
32-9,25797549,-9738
32-10,25801455,-6307
32-11,25805361,2527
32-12,25809267,11147
32-13,25813173,13745
32-14,25817079,8991
32-15,25820985,-247
32-16,25824891,-8275
32-17,25828797,-10194
32-18,25832703,-5088
32-19,25836609,4420
32-20,25840515,12061
32-21,25844421,12533
32-22,25848327,5693
32-23,25852233,-3992
32-24,25856139,-10044
32-25,25860045,-9019
32-26,25863951,-2497
32-27,25867857,4855
32-28,25871763,7647
32-29,25875669,4711
32-30,25879575,-1476
32-31,25883481,-8360
32-32,25887387,-12706
32-1,25891635,-12444
32-2,25895541,-6173
32-3,25899447,3686
32-4,25903353,10151
32-5,25907259,8730
32-6,25911165,612
32-7,25915071,-7675
32-8,25918977,-9664
32-9,25922883,-4145
32-10,25926789,5367
32-11,25930695,12639
32-12,25934601,12899
32-13,25938507,6255
32-14,25942413,-3311
32-15,25946319,-9814
32-16,25950225,-9455
32-17,25954131,-2514
32-18,25958037,7268
32-19,25961943,13243
32-20,25965849,11541
32-21,25969755,3611
32-22,25973661,-5863
32-23,25977567,-10325
32-24,25981473,-7029
32-25,25985379,1411
32-26,25989285,9311
32-27,25993191,10708
32-28,25997097,5485
32-29,26001003,-2806
32-30,26004909,-10398
32-31,26008815,-14000
32-32,26012721,-11973
32-1,26016297,-4256
32-2,26020203,5336
32-3,26024109,10278
32-4,26028015,7012
32-5,26031921,-1755
32-6,26035827,-8930
32-7,26039733,-9060
32-8,26043639,-2157
32-9,26047545,7349
32-10,26051451,13013
32-11,26055357,11224
32-12,26059263,3329
32-13,26063169,-5896
32-14,26067075,-10557
32-15,26070981,-8152
32-16,26074887,34
32-17,26078793,9206
32-18,26082699,12969
32-19,26086605,9151
32-20,26090511,290
32-21,26094417,-8032
32-22,26098323,-10557
32-23,26102229,-5881
32-24,26106135,3521
32-25,26110041,11295
32-26,26113947,12072
32-27,26117853,6016
32-28,26121759,-3547
32-29,26125665,-11716
32-30,26129571,-14680
32-31,26133477,-11104
32-32,26137383,-2180
32-1,26141294,6298
32-2,26145200,8929
32-3,26149106,4219
32-4,26153012,-4985
32-5,26156918,-11752
32-6,26160824,-11346
32-7,26164730,-3761
32-8,26168636,6445
32-9,26172542,12056
32-10,26176448,9589
32-11,26180354,1123
32-12,26184260,-7339
32-13,26188166,-9735
32-14,26192072,-4928
32-15,26195978,4157
32-16,26199884,11882
32-17,26203790,13102
32-18,26207696,7405
32-19,26211602,-2021
32-20,26215508,-9580
32-21,26219414,-10852
32-22,26223320,-5189
32-23,26227226,4568
32-24,26231132,11660
32-25,26235038,11599
32-26,26238944,5148
32-27,26242850,-4479
32-28,26246756,-11970
32-29,26250662,-13501
32-30,26254568,-8095
32-31,26258474,1629
32-32,26262380,8938
32-1,26266292,9383
32-2,26270198,3034
32-3,26274104,-6686
32-4,26278010,-13694
32-5,26281916,-13850
32-6,26285822,-6792
32-7,26289728,3332
32-8,26293634,9387
32-9,26297540,7547
32-10,26301446,-358
32-11,26305352,-7828
32-12,26309258,-8818
32-13,26313164,-2650
32-14,26317070,6716
32-15,26320976,12983
32-16,26324882,12188
32-17,26328788,4973
32-18,26332694,-4567
32-19,26336600,-10558
32-20,26340506,-9599
32-21,26344412,-2078
32-22,26348318,7794
32-23,26352224,13119
32-24,26356130,10913
32-25,26360036,3348
32-26,26363942,-5540
32-27,26367848,-11170
32-28,26371754,-11116
32-29,26375660,-5123
32-30,26379566,3617
32-31,26383472,9112
32-32,26387378,8073
32-1,26391290,667
32-2,26395196,-8743
32-3,26399102,-13874
32-4,26403008,-11143
32-5,26406914,-1673
32-6,26410820,7958
32-7,26414726,10953
32-8,26418632,5930
32-9,26422538,-2798
32-10,26426444,-8123
32-11,26430350,-6097
32-12,26434256,1595
32-13,26438162,10073
32-14,26442068,13798
32-15,26445974,10617
32-16,26449880,2358
32-17,26453786,-6607
32-18,26457692,-11005
32-19,26461598,-8397
32-20,26465504,269
32-21,26469410,9730
32-22,26473316,13035
32-23,26477222,8610
32-24,26481128,-216
32-25,26485034,-7712
32-26,26488940,-9947
32-27,26492846,-7187
32-28,26496752,-1098
32-29,26500658,4484
32-30,26504564,6228
32-31,26508470,3493
32-32,26512376,-3172
32-1,26516440,-10416
32-2,26520346,-13463
32-3,26524252,-9395
32-4,26528158,451
32-5,26532064,8963
32-6,26535970,10044
32-7,26539876,3642
32-8,26543782,-5510
32-9,26547688,-10403
32-10,26551594,-7749
32-11,26555500,680
32-12,26559406,9600
32-13,26563312,12916
32-14,26567218,8742
32-15,26571124,-172
32-16,26575030,-7966
32-17,26578936,-9575
32-18,26582842,-4241
32-19,26586748,5205
32-20,26590654,12716
32-21,26594560,13180
32-22,26598466,6432
32-23,26602372,-3108
32-24,26606278,-9114
32-25,26610184,-8267
32-26,26614090,-2078
32-27,26617996,4923
32-28,26621902,7454
32-29,26625808,4410
32-30,26629714,-1707
32-31,26633620,-8447
32-32,26637526,-12767
32-1,26641315,-12612
32-2,26645221,-6415
32-3,26649127,3545
32-4,26653033,10254
32-5,26656939,9077
32-6,26660845,1072
32-7,26664751,-7257
32-8,26668657,-9385
32-9,26672563,-4051
32-10,26676469,5287
32-11,26680375,12470
32-12,26684281,12719
32-13,26688187,6118
32-14,26692093,-3360
32-15,26695999,-9819
32-16,26699905,-9485
32-17,26703811,-2634
32-18,26707717,7043
32-19,26711623,12948
32-20,26715529,11173
32-21,26719435,3219
32-22,26723341,-6243
32-23,26727247,-10776
32-24,26731153,-7631
32-25,26735059,660
32-26,26738965,8527
32-27,26742871,10049
32-28,26746777,5028
32-29,26750683,-3081
32-30,26754589,-10564
32-31,26758495,-14135
32-32,26762401,-12143
32-1,26766283,-4494
32-2,26770189,5079
32-3,26774095,10102
32-4,26778001,7008
32-5,26781907,-1587
32-6,26785813,-8671
32-7,26789719,-8782
32-8,26793625,-1905
32-9,26797531,7603
32-10,26801437,13288
32-11,26805343,11464
32-12,26809249,3461
32-13,26813155,-5990
32-14,26817061,-10927
32-15,26820967,-8686
32-16,26824873,-458
32-17,26828779,8954
32-18,26832685,13004
32-19,26836591,9337
32-20,26840497,440
32-21,26844403,-8081
32-22,26848309,-10860
32-23,26852215,-6335
32-24,26856121,3107
32-25,26860027,11152
32-26,26863933,12252
32-27,26867839,6383
32-28,26871745,-3202
32-29,26875651,-11563
32-30,26879557,-14725
32-31,26883463,-11270
32-32,26887369,-2328
32-1,26891280,6303
32-2,26895186,9102
32-3,26899092,4492
32-4,26902998,-4681
32-5,26906904,-11425
32-6,26910810,-10970
32-7,26914716,-3331
32-8,26918622,6896
32-9,26922528,12510
32-10,26926434,10016
32-11,26930340,1469
32-12,26934246,-7132
32-13,26938152,-9695
32-14,26942058,-4992
32-15,26945964,4139
32-16,26949870,11991
32-17,26953776,13142
32-18,26957682,7119
32-19,26961588,-2463
32-20,26965494,-9675
32-21,26969400,-10199
32-22,26973306,-3882
32-23,26977212,5948
32-24,26981118,12590
32-25,26985024,12000
32-26,26988930,5345
32-27,26992836,-4199
32-28,26996742,-11860
32-29,27000648,-14041
32-30,27004554,-9345
32-31,27008460,78
32-32,27012366,7654
32-1,27016278,8693
32-2,27020184,2773
32-3,27024090,-6840
32-4,27027996,-13908
32-5,27031902,-14011
32-6,27035808,-6671
32-7,27039714,3687
32-8,27043620,9761
32-9,27047526,7770
32-10,27051432,-391
32-11,27055338,-8108
32-12,27059244,-9257
32-13,27063150,-3177
32-14,27067056,6161
32-15,27070962,12436
32-16,27074868,11679
32-17,27078774,4546
32-18,27082680,-4911
32-19,27086586,-10800
32-20,27090492,-9689
32-21,27094398,-2045
32-22,27098304,7770
32-23,27102210,12772
32-24,27106116,10094
32-25,27110022,2247
32-26,27113928,-6413
32-27,27117834,-11313
32-28,27121740,-10449
32-29,27125646,-4099
32-30,27129552,4367
32-31,27133458,9233
32-32,27137364,7792
32-1,27141428,479
32-2,27145334,-8871
32-3,27149240,-14557
32-4,27153146,-12875
32-5,27157052,-4270
32-6,27160958,5384
32-7,27164864,9431
32-8,27168770,5591
32-9,27172676,-2936
32-10,27176582,-9156
32-11,27180488,-8234
32-12,27184394,-768
32-13,27188300,8455
32-14,27192206,13213
32-15,27196112,10662
32-16,27200018,2429
32-17,27203924,-6634
32-18,27207830,-10747
32-19,27211736,-7625
32-20,27215642,1232
32-21,27219548,10452
32-22,27223454,13318
32-23,27227360,8520
32-24,27231266,-457
32-25,27235172,-7897
32-26,27239078,-10009
32-27,27242984,-7114
32-28,27246890,-823
32-29,27250796,4941
32-30,27254702,6743
32-31,27258608,3791
32-32,27262514,-3165
32-1,27266273,-10262
32-2,27270179,-12627
32-3,27274085,-7739
32-4,27277991,2415
32-5,27281897,10508
32-6,27285803,10805
32-7,27289709,3726
32-8,27293615,-5617
32-9,27297521,-10237
32-10,27301427,-7179
32-11,27305333,1533
32-12,27309239,10481
32-13,27313145,13509
32-14,27317051,8918
32-15,27320957,-370
32-16,27324863,-8430
32-17,27328769,-10202
32-18,27332675,-4937
32-19,27336581,4641
32-20,27340487,12391
32-21,27344393,13046
32-22,27348299,6375
32-23,27352205,-3170
32-24,27356111,-9137
32-25,27360017,-8159
32-26,27363923,-1783
32-27,27367829,5311
32-28,27371735,7815
32-29,27375641,4676
32-30,27379547,-1526
32-31,27383453,-8289
32-32,27387359,-12577
32-1,27391301,-12407
32-2,27395207,-6251
32-3,27399113,3631
32-4,27403019,10305
32-5,27406925,9286
32-6,27410831,1324
32-7,27414737,-7459
32-8,27418643,-10442
32-9,27422549,-5832
32-10,27426455,3468
32-11,27430361,11347
32-12,27434267,12491
32-13,27438173,6398
32-14,27442079,-3021
32-15,27445985,-9546
32-16,27449891,-9092
32-17,27453797,-2094
32-18,27457703,7570
32-19,27461609,13438
32-20,27465515,11679
32-21,27469421,3732
32-22,27473327,-5758
32-23,27477233,-10314
32-24,27481139,-7141
32-25,27485045,1283
32-26,27488951,9252
32-27,27492857,10749
32-28,27496763,5540
32-29,27500669,-2778
32-30,27504575,-10435
32-31,27508481,-14025
32-32,27512387,-11557
32-1,27516268,-4037
32-2,27520174,4080
32-3,27524080,8357
32-4,27527986,8091
32-5,27531892,6155
32-6,27535798,5647
32-7,27539704,6954
32-8,27543610,8855
32-9,27547516,10864
32-10,27551422,11557
32-11,27555328,9748
32-12,27559234,4554
32-13,27563140,-3903
32-14,27567046,-12017
32-15,27570952,-15990
32-16,27574858,-13273
32-17,27578764,-4859
32-18,27582670,3222
32-19,27586576,5383
32-20,27590482,763
32-21,27594388,-6139
32-22,27598294,-8826
32-23,27602200,-4334
32-24,27606106,4727
32-25,27610012,11759
32-26,27613918,11908
32-27,27617824,5672
32-28,27621730,-3745
32-29,27625636,-11793
32-30,27629542,-14687
32-31,27633448,-10940
32-32,27637354,-1862
32-1,27641266,6577
32-2,27645172,9122
32-3,27649078,4515
32-4,27652984,-4752
32-5,27656890,-12223
32-6,27660796,-13019
32-7,27664702,-6415
32-8,27668608,3807
32-9,27672514,10465
32-10,27676420,9328
32-11,27680326,1539
32-12,27684232,-7335
32-13,27688138,-10786
32-14,27692044,-6814
32-15,27695950,2114
32-16,27699856,10326
32-17,27703762,12149
32-18,27707668,6630
32-19,27711574,-2730
32-20,27715480,-9823
32-21,27719386,-10146
32-22,27723292,-3693
32-23,27727198,6030
32-24,27731104,12475
32-25,27735010,11742
32-26,27738916,5058
32-27,27742822,-4453
32-28,27746728,-12030
32-29,27750634,-14103
32-30,27754540,-9256
32-31,27758446,384
32-32,27762352,8134
32-1,27766264,9201
32-2,27770170,3065
32-3,27774076,-6691
32-4,27777982,-13317
32-5,27781888,-12484
32-6,27785794,-4327
32-7,27789700,6139
32-8,27793606,11464
32-9,27797512,8363
32-10,27801418,-509
32-11,27805324,-8262
32-12,27809230,-9041
32-13,27813136,-2682
32-14,27817042,6744
32-15,27820948,13041
32-16,27824854,12139
32-17,27828760,4779
32-18,27832666,-4586
32-19,27836572,-10165
32-20,27840478,-8451
32-21,27844384,-444
32-22,27848290,7947
32-23,27852196,11232
32-24,27856102,9626
32-25,27860008,6865
32-26,27863914,5144
32-27,27867820,4106
32-28,27871726,2889
32-29,27875632,3238
32-30,27879538,5916
32-31,27883444,8048
32-32,27887350,6791
32-1,27891261,319
32-2,27895167,-8318
32-3,27899073,-14662
32-4,27902979,-16688
32-5,27906885,-13692
32-6,27910791,-8369
32-7,27914697,-4441
32-8,27918603,-3711
32-9,27922509,-5505
32-10,27926415,-6464
32-11,27930321,-3653
32-12,27934227,2903
32-13,27938133,10211
32-14,27942039,13333
32-15,27945945,9972
32-16,27949851,1908
32-17,27953757,-6606
32-18,27957663,-10559
32-19,27961569,-7638
32-20,27965475,918
32-21,27969381,9822
32-22,27973287,12561
32-23,27977193,7890
32-24,27981099,-849
32-25,27985005,-8185
32-26,27988911,-10389
32-27,27992817,-7668
32-28,27996723,-1578
32-29,28000629,4014
32-30,28004535,5784
32-31,28008441,3098
32-32,28012347,-3489
32-1,28016259,-10659
32-2,28020165,-13669
32-3,28024071,-9555
32-4,28027977,369
32-5,28031883,9043
32-6,28035789,10228
32-7,28039695,3827
32-8,28043601,-5183
32-9,28047507,-9693
32-10,28051413,-6574
32-11,28055319,2051
32-12,28059225,10603
32-13,28063131,13303
32-14,28067037,8806
32-15,28070943,-319
32-16,28074849,-8613
32-17,28078755,-11056
32-18,28082661,-6369
32-19,28086567,3224
32-20,28090473,11440
32-21,28094379,12449
32-22,28098285,5808
32-23,28102191,-3714
32-24,28106097,-9308
32-25,28110003,-7689
32-26,28113909,-1034
32-27,28117815,5745
32-28,28121721,7707
32-29,28125627,4266
32-30,28129533,-1811
32-31,28133439,-8325
32-32,28137345,-12772
32-1,28141287,-13210
32-2,28145193,-7674
32-3,28149099,1980
32-4,28153005,8946
32-5,28156911,8486
32-6,28160817,1138
32-7,28164723,-7067
32-8,28168629,-9587
32-9,28172535,-4729
32-10,28176441,4421
32-11,28180347,11741
32-12,28184253,12419
32-13,28188159,6237
32-14,28192065,-3259
32-15,28195971,-10178
32-16,28199877,-10362
32-17,28203783,-3699
32-18,28207689,6236
32-19,28211595,12705
32-20,28215501,11445
32-21,28219407,3648
32-22,28223313,-5916
32-23,28227219,-10491
32-24,28231125,-7247
32-25,28235031,1180
32-26,28238937,9156
32-27,28242843,10740
32-28,28246749,5707
32-29,28250655,-2484
32-30,28254561,-10084
32-31,28258467,-13752
32-32,28262373,-11837
32-1,28266254,-4239
32-2,28270160,5247
32-3,28274066,9984
32-4,28277972,6655
32-5,28281878,-1695
32-6,28285784,-8039
32-7,28289690,-7336
32-8,28293596,-238
32-9,28297502,8695
32-10,28301408,13605
32-11,28305314,11541
32-12,28309220,3834
32-13,28313126,-5443
32-14,28317032,-10862
32-15,28320938,-9447
32-16,28324844,-1598
32-17,28328750,8141
32-18,28332656,12892
32-19,28336562,9714
32-20,28340468,832
32-21,28344374,-7947
32-22,28348280,-10928
32-23,28352186,-6453
32-24,28356092,2974
32-25,28359998,11059
32-26,28363904,12269
32-27,28367810,6506
32-28,28371716,-2986
32-29,28375622,-11163
32-30,28379528,-13975
32-31,28383434,-10172
32-32,28387340,-1101
32-1,28391252,7346
32-2,28395158,9785
32-3,28399064,4897
32-4,28402970,-4416
32-5,28406876,-11247
32-6,28410782,-10923
32-7,28414688,-3468
32-8,28418594,6686
32-9,28422500,12430
32-10,28426406,10174
32-11,28430312,1652
32-12,28434218,-7390
32-13,28438124,-10699
32-14,28442030,-6640
32-15,28445936,2359
32-16,28449842,10716
32-17,28453748,12638
32-18,28457654,7214
32-19,28461560,-2154
32-20,28465466,-9449
32-21,28469372,-10121
32-22,28473278,-4036
32-23,28477184,5601
32-24,28481090,12270
32-25,28484996,11833
32-26,28488902,5358
32-27,28492808,-4109
32-28,28496714,-11691
32-29,28500620,-13630
32-30,28504526,-8584
32-31,28508432,1223
32-32,28512338,8990
32-1,28516249,9820
32-2,28520155,3403
32-3,28524061,-6575
32-4,28527967,-13405
32-5,28531873,-12789
32-6,28535779,-4870
32-7,28539685,5566
32-8,28543591,11160
32-9,28547497,8436
32-10,28551403,-188
32-11,28555309,-7973
32-12,28559215,-8961
32-13,28563121,-2775
32-14,28567027,6623
32-15,28570933,13002
32-16,28574839,12070
32-17,28578745,4697
32-18,28582651,-4565
32-19,28586557,-9861
32-20,28590463,-8256
32-21,28594369,-769
32-22,28598275,8354
32-23,28602181,12829
32-24,28606087,10231
32-25,28609993,2769
32-26,28613899,-6117
32-27,28617805,-12594
32-28,28621711,-13917
32-29,28625617,-8800
32-30,28629523,173
32-31,28633429,6908
32-32,28637335,7369
32-1,28641247,957
32-2,28645153,-8235
32-3,28649059,-13664
32-4,28652965,-11318
32-5,28656871,-2040
32-6,28660777,7623
32-7,28664683,10876
32-8,28668589,6019
32-9,28672495,-3130
32-10,28676401,-9364
32-11,28680307,-8118
32-12,28684213,-401
32-13,28688119,8964
32-14,28692025,13732
32-15,28695931,10998
32-16,28699837,2606
32-17,28703743,-6444
32-18,28707649,-10443
32-19,28711555,-7304
32-20,28715461,1424
32-21,28719367,10442
32-22,28723273,13165
32-23,28727179,8380
32-24,28731085,-503
32-25,28734991,-7966
32-26,28738897,-10262
32-27,28742803,-7546
32-28,28746709,-1305
32-29,28750615,4558
32-30,28754521,6548
32-31,28758427,3938
32-32,28762333,-2740
32-1,28766245,-10080
32-2,28770151,-13230
32-3,28774057,-9201
32-4,28777963,730
32-5,28781869,9412
32-6,28785775,10485
32-7,28789681,3914
32-8,28793587,-5173
32-9,28797493,-9579
32-10,28801399,-6225
32-11,28805305,2584
32-12,28809211,11196
32-13,28813117,13763
32-14,28817023,8931
32-15,28820929,-355
32-16,28824835,-8376
32-17,28828741,-10275
32-18,28832647,-5148
32-19,28836553,4443
32-20,28840459,12305
32-21,28844365,13081
32-22,28848271,6457
32-23,28852177,-3178
32-24,28856083,-9322
32-25,28859989,-8484
32-26,28863895,-2176
32-27,28867801,4974
32-28,28871707,7600
32-29,28875613,4580
32-30,28879519,-1566
32-31,28883425,-8367
32-32,28887331,-12741
32-1,28891273,-12663
32-2,28895179,-6588
32-3,28899085,3295
32-4,28902991,10065
32-5,28906897,9067
32-6,28910803,1186
32-7,28914709,-7237
32-8,28918615,-9617
32-9,28922521,-4461
32-10,28926427,4940
32-11,28930333,12367
32-12,28934239,12831
32-13,28938145,6284
32-14,28942051,-3275
32-15,28945957,-9839
32-16,28949863,-9568
32-17,28953769,-2779
32-18,28957675,6795
32-19,28961581,12657
32-20,28965487,11074
32-21,28969393,3289
32-22,28973299,-6394
32-23,28977205,-11485
32-24,28981111,-8915
32-25,28985017,-693
32-26,28988923,7726
32-27,28992829,10006
32-28,28996735,5486
32-29,29000641,-2457
32-30,29004547,-10022
32-31,29008453,-13944
32-32,29012359,-12669
32-1,29016240,-5932
32-2,29020146,3192
32-3,29024052,8504
32-4,29027958,6171
32-5,29031864,-1592
32-6,29035770,-8126
32-7,29039676,-8043
32-8,29043582,-1201
32-9,29047488,8114
32-10,29051394,13596
32-11,29055300,11900
32-12,29059206,4221
32-13,29063112,-5194
32-14,29067018,-10606
32-15,29070924,-9080
32-16,29074830,-1166
32-17,29078736,8572
32-18,29082642,13132
32-19,29086548,9656
32-20,29090454,776
32-21,29094360,-7505
32-22,29098266,-9699
32-23,29102172,-4665
32-24,29106078,4629
32-25,29109984,11957
32-26,29113890,12330
32-27,29117796,6119
32-28,29121702,-3356
32-29,29125608,-11417
32-30,29129514,-14394
32-31,29133420,-10872
32-32,29137326,-1990
32-1,29141238,6468
32-2,29145144,9123
32-3,29149050,4441
32-4,29152956,-4777
32-5,29156862,-11594
32-6,29160768,-11248
32-7,29164674,-3701
32-8,29168580,6549
32-9,29172486,12389
32-10,29176392,10239
32-11,29180298,1782
32-12,29184204,-7222
32-13,29188110,-10484
32-14,29192016,-6297
32-15,29195922,2902
32-16,29199828,11373
32-17,29203734,13251
32-18,29207640,7650
32-19,29211546,-1898
32-20,29215452,-9263
32-21,29219358,-9942
32-22,29223264,-3870
32-23,29227170,5694
32-24,29231076,12238
32-25,29234982,11689
32-26,29238888,5153
32-27,29242794,-4317
32-28,29246700,-11974
32-29,29250606,-14145
32-30,29254512,-9346
32-31,29258418,336
32-32,29262324,8207
32-1,29266235,9327
32-2,29270141,3182
32-3,29274047,-6614
32-4,29277953,-13357
32-5,29281859,-12691
32-6,29285765,-4707
32-7,29289671,5693
32-8,29293577,11006
32-9,29297483,7983
32-10,29301389,-495
32-11,29305295,-7572
32-12,29309201,-7664
32-13,29313107,-1085
32-14,29317013,7893
32-15,29320919,13526
32-16,29324825,12371
32-17,29328731,5271
32-18,29332637,-4070
32-19,29336543,-10251
32-20,29340449,-9756
32-21,29344355,-2506
32-22,29348261,7428
32-23,29352167,12912
32-24,29356073,10677
32-25,29359979,2941
32-26,29363885,-6135
32-27,29367791,-11886
32-28,29371697,-11860
32-29,29375603,-5867
32-30,29379509,3042
32-31,29383415,8871
32-32,29387321,8188
32-1,29391233,1037
32-2,29395139,-8388
32-3,29399045,-13772
32-4,29402951,-11385
32-5,29406857,-2180
32-6,29410763,7506
32-7,29414669,10902
32-8,29418575,6147
32-9,29422481,-2940
32-10,29426387,-9196
32-11,29430293,-8057
32-12,29434199,-536
32-13,29438105,8619
32-14,29442011,13261
32-15,29445917,10494
32-16,29449823,2190
32-17,29453729,-6679
32-18,29457635,-10512
32-19,29461541,-7327
32-20,29465447,1304
32-21,29469353,10219
32-22,29473259,12921
32-23,29477165,8212
32-24,29481071,-559
32-25,29484977,-8004
32-26,29488883,-10409
32-27,29492789,-7831
32-28,29496695,-1615
32-29,29500601,4359
32-30,29504507,6495
32-31,29508413,3962
32-32,29512319,-2757
32-1,29516230,-10223
32-2,29520136,-13465
32-3,29524042,-9460
32-4,29527948,509
32-5,29531854,9245
32-6,29535760,10343
32-7,29539666,3815
32-8,29543572,-5242
32-9,29547478,-9720
32-10,29551384,-6560
32-11,29555290,2025
32-12,29559196,10610
32-13,29563102,13380
32-14,29567008,8831
32-15,29570914,-242
32-16,29574820,-8246
32-17,29578726,-10262
32-18,29582632,-5301
32-19,29586538,4125
32-20,29590444,11890
32-21,29594350,12610
32-22,29598256,6005
32-23,29602162,-3564
32-24,29606068,-9709
32-25,29609974,-8888
32-26,29613880,-2522
32-27,29617786,4852
32-28,29621692,7843
32-29,29625598,5117
32-30,29629504,-957
32-31,29633410,-7897
32-32,29637316,-12441
32-1,29641259,-12370
32-2,29645165,-6148
32-3,29649071,3893
32-4,29652977,10691
32-5,29656883,9527
32-6,29660789,1404
32-7,29664695,-7175
32-8,29668601,-9576
32-9,29672507,-4389
32-10,29676413,5016
32-11,29680319,12464
32-12,29684225,13032
32-13,29688131,6614
32-14,29692037,-2965
32-15,29695943,-9758
32-16,29699849,-9794
32-17,29703755,-3174
32-18,29707661,6533
32-19,29711567,12660
32-20,29715473,11085
32-21,29719379,3142
32-22,29723285,-6501
32-23,29727191,-11173
32-24,29731097,-8041
32-25,29735003,283
32-26,29738909,8158
32-27,29742815,9615
32-28,29746721,4526
32-29,29750627,-3483
32-30,29754533,-10808
32-31,29758439,-14471
32-32,29762345,-12935
32-1,29766226,-5864
32-2,29770132,3477
32-3,29774038,8862
32-4,29777944,6469
32-5,29781850,-1800
32-6,29785756,-9334
32-7,29789662,-10334
32-8,29793568,-4029
32-9,29797474,5737
32-10,29801380,12317
32-11,29805286,11403
32-12,29809192,3927
32-13,29813098,-5313
32-14,29817004,-10124
32-15,29820910,-7715
32-16,29824816,500
32-17,29828722,9682
32-18,29832628,13475
32-19,29836534,9573
32-20,29840440,526
32-21,29844346,-8013
32-22,29848252,-10731
32-23,29852158,-6119
32-24,29856064,3424
32-25,29859970,11495
32-26,29863876,12587
32-27,29867782,6769
32-28,29871688,-2730
32-29,29875594,-11126
32-30,29879500,-14566
32-31,29883406,-11524
32-32,29887312,-2901
32-1,29891223,5687
32-2,29895129,8694
32-3,29899035,4371
32-4,29902941,-4698
32-5,29906847,-11585
32-6,29910753,-11311
32-7,29914659,-3745
32-8,29918565,6570
32-9,29922471,12509
32-10,29926377,10545
32-11,29930283,2130
32-12,29934189,-7255
32-13,29938095,-11226
32-14,29942001,-7635
32-15,29945907,1506
32-16,29949813,10476
32-17,29953719,12896
32-18,29957625,7489
32-19,29961531,-1973
32-20,29965437,-9027
32-21,29969343,-9139
32-22,29973249,-2715
32-23,29977155,6589
32-24,29981061,12518
32-25,29984967,11476
32-26,29988873,4802
32-27,29992779,-4553
32-28,29996685,-12098
32-29,30000591,-14230
32-30,30004497,-9328
32-31,30008403,489
32-32,30012309,8411
32-1,30016221,9435
32-2,30020127,3054
32-3,30024033,-6820
32-4,30027939,-13234
32-5,30031845,-11980
32-6,30035751,-3587
32-7,30039657,6747
32-8,30043563,11781
32-9,30047469,8500
32-10,30051375,-361
32-11,30055281,-8048
32-12,30059187,-8804
32-13,30063093,-2485
32-14,30066999,6900
32-15,30070905,13172
32-16,30074811,12321
32-17,30078717,5050
32-18,30082623,-4549
32-19,30086529,-10697
32-20,30090435,-9895
32-21,30094341,-2183
32-22,30098247,7360
32-23,30102153,11654
32-24,30106059,9333
32-25,30109965,4170
32-26,30113871,165
32-27,30117777,-850
32-28,30121683,209
32-29,30125589,2982
32-30,30129495,6818
32-31,30133401,8718
32-32,30137307,6963
32-1,30141219,675
32-2,30145125,-7993
32-3,30149031,-14608
32-4,30152937,-16336
32-5,30156843,-12325
32-6,30160749,-5607
32-7,30164655,-780
32-8,30168561,-614
32-9,30172467,-4528
32-10,30176373,-7994
32-11,30180279,-6660
32-12,30184185,121
32-13,30188091,8829
32-14,30191997,13420
32-15,30195903,10883
32-16,30199809,2760
32-17,30203715,-6371
32-18,30207621,-10829
32-19,30211527,-8123
32-20,30215433,526
32-21,30219339,9884
32-22,30223245,13106
32-23,30227151,8615
32-24,30231057,-280
32-25,30234963,-7835
32-26,30238869,-10063
32-27,30242775,-7205
32-28,30246681,-930
32-29,30250587,4868
32-30,30254493,6748
32-31,30258399,4050
32-32,30262305,-2651
32-1,30266216,-10003
32-2,30270122,-13189
32-3,30274028,-9261
32-4,30277934,552
32-5,30281840,9200
32-6,30285746,10487
32-7,30289652,4232
32-8,30293558,-4955
32-9,30297464,-10061
32-10,30301370,-7627
32-11,30305276,713
32-12,30309182,9730
32-13,30313088,13231
32-14,30316994,9136
32-15,30320900,109
32-16,30324806,-7969
32-17,30328712,-9834
32-18,30332618,-4582
32-19,30336524,4915
32-20,30340430,12547
32-21,30344336,13080
32-22,30348242,6283
32-23,30352148,-3353
32-24,30356054,-9403
32-25,30359960,-8476
32-26,30363866,-2122
32-27,30367772,5064
32-28,30371678,7800
32-29,30375584,4933
32-30,30379490,-1067
32-31,30383396,-7781
32-32,30387302,-12209
32-1,30391183,-12288
32-2,30395089,-6348
32-3,30398995,3551
32-4,30402901,10442
32-5,30406807,9530
32-6,30410713,1673
32-7,30414619,-6754
32-8,30418525,-9156
32-9,30422431,-4124
32-10,30426337,5046
32-11,30430243,12323
32-12,30434149,12867
32-13,30438055,6568
32-14,30441961,-2804
32-15,30445867,-9412
32-16,30449773,-9355
32-17,30453679,-2747
32-18,30457585,6886
32-19,30461491,13003
32-20,30465397,11506
32-21,30469303,3724
32-22,30473209,-5758
32-23,30477115,-10478
32-24,30481021,-7512
32-25,30484927,727
32-26,30488833,8726
32-27,30492739,10462
32-28,30496645,5573
32-29,30500551,-2499
32-30,30504457,-10060
32-31,30508363,-13774
32-32,30512269,-11933
32-1,30516212,-4361
32-2,30520118,5283
32-3,30524024,10425
32-4,30527930,7354
32-5,30531836,-1361
32-6,30535742,-8632
32-7,30539648,-8874
32-8,30543554,-2053
32-9,30547460,7491
32-10,30551366,13381
32-11,30555272,11851
32-12,30559178,4115
32-13,30563084,-5226
32-14,30566990,-10312
32-15,30570896,-8366
32-16,30574802,-362
32-17,30578708,9118
32-18,30582614,13473
32-19,30586520,10064
32-20,30590426,1207
32-21,30594332,-7534
32-22,30598238,-10673
32-23,30602144,-6477
32-24,30606050,2760
32-25,30609956,10750
32-26,30613862,11900
32-27,30617768,6124
32-28,30621674,-3347
32-29,30625580,-11622
32-30,30629486,-14730
32-31,30633392,-11292
32-32,30637298,-2440
32-1,30641209,6103
32-2,30645115,8914
32-3,30649021,4440
32-4,30652927,-4804
32-5,30656833,-12057
32-6,30660739,-12341
32-7,30664645,-5196
32-8,30668551,5246
32-9,30672457,11666
32-10,30676363,9963
32-11,30680269,1753
32-12,30684175,-6988
32-13,30688081,-9853
32-14,30691987,-5332
32-15,30695893,3728
32-16,30699799,11700
32-17,30703705,13169
32-18,30707611,7495
32-19,30711517,-1870
32-20,30715423,-9113
32-21,30719329,-9912
32-22,30723235,-4022
32-23,30727141,5470
32-24,30731047,12036
32-25,30734953,11635
32-26,30738859,5141
32-27,30742765,-4439
32-28,30746671,-11802
32-29,30750577,-13077
32-30,30754483,-7175
32-31,30758389,3067
32-32,30762295,10447
32-1,30766207,10408
32-2,30770113,3313
32-3,30774019,-6855
32-4,30777925,-13611
32-5,30781831,-12683
32-6,30785737,-5023
32-7,30789643,3959
32-8,30793549,8721
32-9,30797455,8536
32-10,30801361,6457
32-11,30805267,5621
32-12,30809173,7038
32-13,30813079,9470
32-14,30816985,11015
32-15,30820891,10291
32-16,30824797,8135
32-17,30828703,6197
32-18,30832609,5111
32-19,30836515,5539
32-20,30840421,6600
32-21,30844327,7808
32-22,30848233,9361
32-23,30852139,9515
32-24,30856045,6965
32-25,30859951,823
32-26,30863857,-7553
32-27,30867763,-14060
32-28,30871669,-16715
32-29,30875575,-15980
32-30,30879481,-13819
32-31,30883387,-12716
32-32,30887293,-12620
32-1,30891204,-12187
32-2,30895110,-10231
32-3,30899016,-6064
32-4,30902922,-129
32-5,30906828,6500
32-6,30910734,10898
32-7,30914640,10353
32-8,30918546,4437
32-9,30922452,-4557
32-10,30926358,-11607
32-11,30930264,-12689
32-12,30934170,-6723
32-13,30938076,3242
32-14,30941982,10263
32-15,30945888,9661
32-16,30949794,2295
32-17,30953700,-6620
32-18,30957606,-10538
32-19,30961512,-7070
32-20,30965418,1585
32-21,30969324,10064
32-22,30973230,12390
32-23,30977136,7597
32-24,30981042,-1170
32-25,30984948,-8856
32-26,30988854,-11838
32-27,30992760,-9824
32-28,30996666,-3783
32-29,31000572,2518
32-30,31004478,5264
32-31,31008384,3209
32-32,31012290,-3245
32-1,31016202,-10389
32-2,31020108,-13194
32-3,31024014,-8899
32-4,31027920,958
32-5,31031826,9285
32-6,31035732,10033
32-7,31039638,3370
32-8,31043544,-5681
32-9,31047450,-10129
32-10,31051356,-6944
32-11,31055262,1726
32-12,31059168,10404
32-13,31063074,13241
32-14,31066980,8814
32-15,31070886,-308
32-16,31074792,-8744
32-17,31078698,-11446
32-18,31082604,-7049
32-19,31086510,2390
32-20,31090416,10800
32-21,31094322,12403
32-22,31098228,6368
32-23,31102134,-3157
32-24,31106040,-9510
32-25,31109946,-8877
32-26,31113852,-2716
32-27,31117758,4375
32-28,31121664,7146
32-29,31125570,4327
32-30,31129476,-1632
32-31,31133382,-8285
32-32,31137288,-12613
32-1,31141200,-12589
32-2,31145106,-6696
32-3,31149012,3019
32-4,31152918,9736
32-5,31156824,8877
32-6,31160730,1282
32-7,31164636,-6918
32-8,31168542,-9301
32-9,31172448,-4413
32-10,31176354,4629
32-11,31180260,11892
32-12,31184166,12604
32-13,31188072,6518
32-14,31191978,-2962
32-15,31195884,-10081
32-16,31199790,-10575
32-17,31203696,-4143
32-18,31207602,5862
32-19,31211508,12697
32-20,31215414,11802
32-21,31219320,4177
32-22,31223226,-5497
32-23,31227132,-10378
32-24,31231038,-7391
32-25,31234944,923
32-26,31238850,8953
32-27,31242756,10688
32-28,31246662,5740
32-29,31250568,-2401
32-30,31254474,-9987
32-31,31258380,-13713
32-32,31262286,-11947
32-1,31266197,-4549
32-2,31270103,4891
32-3,31274009,10018
32-4,31277915,7232
32-5,31281821,-1352
32-6,31285727,-9048
32-7,31289633,-10117
32-8,31293539,-3943
32-9,31297445,5644
32-10,31301351,12199
32-11,31305257,11437
32-12,31309163,4126
32-13,31313069,-5139
32-14,31316975,-10180
32-15,31320881,-8048
32-16,31324787,19
32-17,31328693,9354
32-18,31332599,13557
32-19,31336505,10106
32-20,31340411,1333
32-21,31344317,-7245
32-22,31348223,-10224
32-23,31352129,-5907
32-24,31356035,3434
32-25,31359941,11547
32-26,31363847,12770
32-27,31367753,6934
32-28,31371659,-2672
32-29,31375565,-10951
32-30,31379471,-13811
32-31,31383377,-10012
32-32,31387283,-916
32-1,31391256,7553
32-2,31395162,9931
32-3,31399068,4932
32-4,31402974,-4477
32-5,31406880,-11316
32-6,31410786,-10931
32-7,31414692,-3436
32-8,31418598,6770
32-9,31422504,12645
32-10,31426410,10562
32-11,31430316,2147
32-12,31434222,-6988
32-13,31438128,-10530
32-14,31442034,-6644
32-15,31445940,2392
32-16,31449846,11017
32-17,31453752,13232
32-18,31457658,7939
32-19,31461564,-1480
32-20,31465470,-8974
32-21,31469376,-9870
32-22,31473282,-3914
32-23,31477188,5770
32-24,31481094,12631
32-25,31485000,12325
32-26,31488906,5772
32-27,31492812,-3938
32-28,31496718,-11732
32-29,31500624,-13711
32-30,31504530,-8575
32-31,31508436,1338
32-32,31512342,9094
32-1,31516193,9798
32-2,31520099,3274
32-3,31524005,-6752
32-4,31527911,-13635
32-5,31531817,-13128
32-6,31535723,-5330
32-7,31539629,5107
32-8,31543535,10849
32-9,31547441,8281
32-10,31551347,-324
32-11,31555253,-8250
32-12,31559159,-9392
32-13,31563065,-3189
32-14,31566971,6426
32-15,31570877,13113
32-16,31574783,12524
32-17,31578689,5320
32-18,31582595,-4239
32-19,31586501,-10203
32-20,31590407,-9226
32-21,31594313,-1914
32-22,31598219,7586
32-23,31602125,12599
32-24,31606031,10283
32-25,31609937,2822
32-26,31613843,-6065
32-27,31617749,-12117
32-28,31621655,-12691
32-29,31625561,-7039
32-30,31629467,1997
32-31,31633373,8268
32-32,31637279,7960
32-1,31641190,913
32-2,31645096,-8508
32-3,31649002,-13765
32-4,31652908,-11161
32-5,31656814,-1829
32-6,31660720,7813
32-7,31664626,11301
32-8,31668532,6771
32-9,31672438,-2611
32-10,31676344,-9912
32-11,31680250,-10016
32-12,31684156,-2901
32-13,31688062,7155
32-14,31691968,13331
32-15,31695874,11647
32-16,31699780,3455
32-17,31703686,-5976
32-18,31707592,-10335
32-19,31711498,-7308
32-20,31715404,1349
32-21,31719310,10343
32-22,31723216,13126
32-23,31727122,8360
32-24,31731028,-524
32-25,31734934,-8018
32-26,31738840,-10257
32-27,31742746,-7084
32-28,31746652,-1090
32-29,31750558,3413
32-30,31754464,4804
32-31,31758370,4918
32-32,31762276,5457
32-1,31766188,6727
32-2,31770094,7884
32-3,31774000,8903
32-4,31777906,10574
32-5,31781812,10993
32-6,31785718,8536
32-7,31789624,2737
32-8,31793530,-5568
32-9,31797436,-12822
32-10,31801342,-16660
32-11,31805248,-15492
32-12,31809154,-9913
32-13,31813060,-4005
32-14,31816966,-1309
32-15,31820872,-3203
32-16,31824778,-7245
32-17,31828684,-8568
32-18,31832590,-4488
32-19,31836496,3761
32-20,31840402,10830
32-21,31844308,11649
32-22,31848214,5638
32-23,31852120,-3559
32-24,31856026,-10002
32-25,31859932,-9823
32-26,31863838,-3825
32-27,31867744,3633
32-28,31871650,6990
32-29,31875556,4629
32-30,31879462,-1039
32-31,31883368,-7620
32-32,31887274,-12429
32-1,31891216,-13527
32-2,31895122,-8952
32-3,31899028,201
32-4,31902934,7679
32-5,31906840,8361
32-6,31910746,1947
32-7,31914652,-6145
32-8,31918558,-9227
32-9,31922464,-5016
32-10,31926370,3905
32-11,31930276,11448
32-12,31934182,12589
32-13,31938088,6873
32-14,31941994,-2415
32-15,31945900,-9460
32-16,31949806,-9872
32-17,31953712,-3358
32-18,31957618,6618
32-19,31961524,13278
32-20,31965430,12052
32-21,31969336,4228
32-22,31973242,-5145
32-23,31977148,-9332
32-24,31981054,-5727
32-25,31984960,2683
32-26,31988866,10259
32-27,31992772,11425
32-28,31996678,6225
32-29,32000584,-1852
32-30,32004490,-9431
32-31,32008396,-13562
32-32,32012302,-12409
32-1,32016305,-5378
32-2,32020211,4130
32-3,32024117,9610
32-4,32028023,7211
32-5,32031929,-945
32-6,32035835,-8131
32-7,32039741,-8690
32-8,32043647,-2245
32-9,32047553,7062
32-10,32051459,12936
32-11,32055365,11687
32-12,32059271,4232
32-13,32063177,-5195
32-14,32067083,-10683
32-15,32070989,-9106
32-16,32074895,-1144
32-17,32078801,8645
32-18,32082707,13454
32-19,32086613,10359
32-20,32090519,1580
32-21,32094425,-7164
32-22,32098331,-10204
32-23,32102237,-5854
32-24,32106143,3399
32-25,32110049,11285
32-26,32113955,12259
32-27,32117861,6227
32-28,32121767,-3429
32-29,32125673,-11578
32-30,32129579,-14230
32-31,32133485,-10251
32-32,32137391,-1055
32-1,32141181,7474
32-2,32145087,9988
32-3,32148993,5175
32-4,32152899,-4179
32-5,32156805,-11186
32-6,32160711,-11088
32-7,32164617,-3789
32-8,32168523,6438
32-9,32172429,12501
32-10,32176335,10619
32-11,32180241,2298
32-12,32184147,-6840
32-13,32188053,-10412
32-14,32191959,-6486
32-15,32195865,2652
32-16,32199771,11397
32-17,32203677,13731
32-18,32207583,8477
32-19,32211489,-1018
32-20,32215395,-8633
32-21,32219301,-9650
32-22,32223207,-3845
32-23,32227113,5664
32-24,32231019,12396
32-25,32234925,12105
32-26,32238831,5719
32-27,32242737,-3785
32-28,32246643,-11454
32-29,32250549,-13426
32-30,32254455,-8391
32-31,32258361,1379
32-32,32262267,9039
32-1,32266178,9721
32-2,32270084,3262
32-3,32273990,-6651
32-4,32277896,-13434
32-5,32281802,-12879
32-6,32285708,-5091
32-7,32289614,5354
32-8,32293520,11148
32-9,32297426,8617
32-10,32301332,10
32-11,32305238,-7938
32-12,32309144,-9105
32-13,32313050,-2993
32-14,32316956,6468
32-15,32320862,13025
32-16,32324768,12367
32-17,32328674,5169
32-18,32332580,-4294
32-19,32336486,-10121
32-20,32340392,-9045
32-21,32344298,-1648
32-22,32348204,7942
32-23,32352110,12944
32-24,32356016,10454
32-25,32359922,2901
32-26,32363828,-5656
32-27,32367734,-11022
32-28,32371640,-11056
32-29,32375546,-5538
32-30,32379452,2701
32-31,32383358,8030
32-32,32387264,7441
32-1,32391176,992
32-2,32395082,-8205
32-3,32398988,-14789
32-4,32402894,-14580
32-5,32406800,-7010
32-6,32410706,2864
32-7,32414612,8169
32-8,32418518,5722
32-9,32422424,-2115
32-10,32426330,-8516
32-11,32430236,-8121
32-12,32434142,-986
32-13,32438048,8252
32-14,32441954,13192
32-15,32445860,10783
32-16,32449766,2707
32-17,32453672,-6155
32-18,32457578,-10088
32-19,32461484,-6866
32-20,32465390,1899
32-21,32469296,10967
32-22,32473202,13810
32-23,32477108,9136
32-24,32481014,265
32-25,32484920,-7319
32-26,32488826,-9817
32-27,32492732,-7268
32-28,32496638,-1063
32-29,32500544,4825
32-30,32504450,6807
32-31,32508356,4076
32-32,32512262,-2753
32-1,32516174,-10284
32-2,32520080,-13262
32-3,32523986,-8815
32-4,32527892,391
32-5,32531798,7608
32-6,32535704,9279
32-7,32539610,7563
32-8,32543516,5878
32-9,32547422,6309
32-10,32551328,7973
32-11,32555234,9836
32-12,32559140,11344
32-13,32563046,10876
32-14,32566952,7640
32-15,32570858,771
32-16,32574764,-8117
32-17,32578670,-14832
32-18,32582576,-15982
32-19,32586482,-10086
32-20,32590388,-657
32-21,32594294,5523
32-22,32598200,4320
32-23,32602106,-2388
32-24,32606012,-8055
32-25,32609918,-7405
32-26,32613824,-1197
32-27,32617730,5379
32-28,32621636,7162
32-29,32625542,3731
32-30,32629448,-2155
32-31,32633354,-8435
32-32,32637260,-12672
32-1,32641415,-12854
32-2,32645321,-7112
32-3,32649227,2630
32-4,32653133,9591
32-5,32657039,8910
32-6,32660945,1238
32-7,32664851,-7173
32-8,32668757,-9700
32-9,32672663,-4697
32-10,32676569,4688
32-11,32680475,12284
32-12,32684381,13061
32-13,32688287,6813
32-14,32692193,-2712
32-15,32696099,-9577
32-16,32700005,-9729
32-17,32703911,-3188
32-18,32707817,6552
32-19,32711723,12875
32-20,32715629,11609
32-21,32719535,3953
32-22,32723441,-5590
32-23,32727347,-10446
32-24,32731253,-7628
32-25,32735159,482
32-26,32739065,8393
32-27,32742971,10102
32-28,32746877,5249
32-29,32750783,-2751
32-30,32754689,-10250
32-31,32758595,-13937
32-32,32762501,-12108
32-1,32766169,-4555
32-2,32770075,4949
32-3,32773981,9582
32-4,32777887,6488
32-5,32781793,-814
32-6,32785699,-5665
32-7,32789605,-3941
32-8,32793511,2763
32-9,32797417,10091
32-10,32801323,13423
32-11,32805229,11090
32-12,32809135,4587
32-13,32813041,-4156
32-14,32816947,-11718
32-15,32820853,-14217
32-16,32824759,-9433
32-17,32828665,354
32-18,32832571,8123
32-19,32836477,8559
32-20,32840383,1866
32-21,32844289,-6598
32-22,32848195,-10098
32-23,32852101,-5898
32-24,32856007,3265
32-25,32859913,10912
32-26,32863819,11892
32-27,32867725,6180
32-28,32871631,-3131
32-29,32875537,-11328
32-30,32879443,-14434
32-31,32883349,-10960
32-32,32887255,-2050
32-1,32891167,6605
32-2,32895073,9509
32-3,32898979,5030
32-4,32902885,-4179
32-5,32906791,-11205
32-6,32910697,-11107
32-7,32914603,-3717
32-8,32918509,6618
32-9,32922415,12687
32-10,32926321,10670
32-11,32930227,2368
32-12,32934133,-6320
32-13,32938039,-9178
32-14,32941945,-4769
32-15,32945851,4157
32-16,32949757,12025
32-17,32953663,13510
32-18,32957569,7959
32-19,32961475,-1535
32-20,32965381,-9353
32-21,32969287,-10889
32-22,32973193,-5388
32-23,32977099,4416
32-24,32981005,11807
32-25,32984911,12064
32-26,32988817,5894
32-27,32992723,-3614
32-28,32996629,-11491
32-29,33000535,-13884
32-30,33004441,-9410
32-31,33008347,-43
32-32,33012253,7754
32-1,33016164,8938
32-2,33020070,2841
32-3,33023976,-6813
32-4,33027882,-13154
32-5,33031788,-11956
32-6,33035694,-3681
32-7,33039600,6535
32-8,33043506,11636
32-9,33047412,8598
32-10,33051318,-280
32-11,33055224,-8487
32-12,33059130,-10014
32-13,33063036,-4129
32-14,33066942,5622
32-15,33070848,12865
32-16,33074754,12740
32-17,33078660,5646
32-18,33082566,-3989
32-19,33086472,-9928
32-20,33090378,-8780
32-21,33094284,-1360
32-22,33098190,8146
32-23,33102096,13100
32-24,33106002,10638
32-25,33109908,3032
32-26,33113814,-5847
32-27,33117720,-11607
32-28,33121626,-11728
32-29,33125532,-5796
32-30,33129438,3133
32-31,33133344,8950
32-32,33137250,8188
32-1,33141162,967
32-2,33145068,-8490
32-3,33148974,-13903
32-4,33152880,-11628
32-5,33156786,-2607
32-6,33160692,6993
32-7,33164598,10608
32-8,33168504,6287
32-9,33172410,-2726
32-10,33176316,-9592
32-11,33180222,-9365
32-12,33184128,-2314
32-13,33188034,7251
32-14,33191940,12937
32-15,33195846,11040
32-16,33199752,3005
32-17,33203658,-6024
32-18,33207564,-10016
32-19,33211470,-6764
32-20,33215376,1923
32-21,33219282,10817
32-22,33223188,13506
32-23,33227094,8780
32-24,33231000,-52
32-25,33234906,-7583
32-26,33238812,-10084
32-27,33242718,-7603
32-28,33246624,-1426
32-29,33250530,4580
32-30,33254436,6731
32-31,33258342,4164
32-32,33262248,-2625
32-1,33266312,-10196
32-2,33270218,-13561
32-3,33274124,-9674
32-4,33278030,302
32-5,33281936,9247
32-6,33285842,10635
32-7,33289748,4294
32-8,33293654,-4795
32-9,33297560,-9415
32-10,33301466,-6342
32-11,33305372,2221
32-12,33309278,10841
32-13,33313184,13636
32-14,33317090,9073
32-15,33320996,-28
32-16,33324902,-8109
32-17,33328808,-10233
32-18,33332714,-5389
32-19,33336620,3967
32-20,33340526,11796
32-21,33344432,12603
32-22,33348338,5978
32-23,33352244,-3679
32-24,33356150,-9959
32-25,33360056,-9293
32-26,33363962,-3108
32-27,33367868,4072
32-28,33371774,6937
32-29,33375680,4153
32-30,33379586,-1816
32-31,33383492,-8539
32-32,33387398,-12995
32-1,33391218,-13054
32-2,33395124,-7074
32-3,33399030,2925
32-4,33402936,10009
32-5,33406842,9283
32-6,33410748,1503
32-7,33414654,-6995
32-8,33418560,-9518
32-9,33422466,-4460
32-10,33426372,4953
32-11,33430278,12588
32-12,33434184,13437
32-13,33438090,7255
32-14,33441996,-2241
32-15,33445902,-9126
32-16,33449808,-9359
32-17,33453714,-2943
32-18,33457620,6692
32-19,33461526,12984
32-20,33465432,11737
32-21,33469338,4105
32-22,33473244,-5505
32-23,33477150,-10538
32-24,33481056,-7875
32-25,33484962,188
32-26,33488868,8224
32-27,33492774,10110
32-28,33496680,5380
32-29,33500586,-2502
32-30,33504492,-9975
32-31,33508398,-13870
32-32,33512304,-12526
32-1,33516155,-5565
32-2,33520061,3794
32-3,33523967,9273
32-4,33527873,6965
32-5,33531779,-1347
32-6,33535685,-9136
32-7,33539591,-10502
32-8,33543497,-4519
32-9,33547403,5145
32-10,33551309,11975
32-11,33555215,11485
32-12,33559121,4315
32-13,33563027,-4969
32-14,33566933,-10095
32-15,33570839,-7979
32-16,33574745,155
32-17,33578651,9569
32-18,33582557,13769
32-19,33586463,10210
32-20,33590369,1300
32-21,33594275,-7376
32-22,33598181,-10380
32-23,33602087,-6054
32-24,33605993,3272
32-25,33609899,11317
32-26,33613805,12470
32-27,33617711,6654
32-28,33621617,-2876
32-29,33625523,-11261
32-30,33629429,-14545
32-31,33633335,-11264
32-32,33637241,-2387
32-1,33641152,6391
32-2,33645058,9440
32-3,33648964,5024
32-4,33652870,-4229
32-5,33656776,-11339
32-6,33660682,-11299
32-7,33664588,-3925
32-8,33668494,6365
32-9,33672400,12304
32-10,33676306,10104
32-11,33680212,1608
32-12,33684118,-7269
32-13,33688024,-10221
32-14,33691930,-5758
32-15,33695836,3351
32-16,33699742,11507
32-17,33703648,13158
32-18,33707554,7565
32-19,33711460,-1819
32-20,33715366,-9105
32-21,33719272,-9869
32-22,33723178,-3889
32-23,33727084,5684
32-24,33730990,12310
32-25,33734896,11891
32-26,33738802,5338
32-27,33742708,-4286
32-28,33746614,-11726
32-29,33750520,-13120
32-30,33754426,-7405
32-31,33758332,2707
32-32,33762238,10085
32-1,33766150,10103
32-2,33770056,3084
32-3,33773962,-7052
32-4,33777868,-13827
32-5,33781774,-13309
32-6,33785680,-5718
32-7,33789586,4556
32-8,33793492,10330
32-9,33797398,7927
32-10,33801304,-511
32-11,33805210,-8382
32-12,33809116,-9579
32-13,33813022,-3453
32-14,33816928,6139
32-15,33820834,12879
32-16,33824740,12515
32-17,33828646,5561
32-18,33832552,-4081
32-19,33836458,-10529
32-20,33840364,-10143
32-21,33844270,-3028
32-22,33848176,6888
32-23,33852082,12524
32-24,33855988,10449
32-25,33859894,2839
32-26,33863800,-6036
32-27,33867706,-11400
32-28,33871612,-10926
32-29,33875518,-4751
32-30,33879424,3932
32-31,33883330,9306
32-32,33887236,8306
32-1,33891148,1173
32-2,33895054,-8268
32-3,33898960,-14093
32-4,33902866,-12474
32-5,33906772,-3857
32-6,33910678,5873
32-7,33914584,9916
32-8,33918490,5949
32-9,33922396,-2762
32-10,33926302,-9172
32-11,33930208,-8379
32-12,33934114,-990
32-13,33938020,8304
32-14,33941926,13310
32-15,33945832,11039
32-16,33949738,2994
32-17,33953644,-6198
32-18,33957550,-10784
32-19,33961456,-8235
32-20,33965362,269
32-21,33969268,9648
32-22,33973174,13048
32-23,33977080,8784
32-24,33980986,58
32-25,33984892,-7553
32-26,33988798,-10073
32-27,33992704,-7561
32-28,33996610,-1429
32-29,34000516,4550
32-30,34004422,6767
32-31,34008328,4294
32-32,34012234,-2425
32-1,34016145,-9988
32-2,34020051,-13364
32-3,34023957,-9489
32-4,34027863,416
32-5,34031769,9212
32-6,34035675,10492
32-7,34039581,4235
32-8,34043487,-4628
32-9,34047393,-9113
32-10,34051299,-6143
32-11,34055205,2153
32-12,34059111,10508
32-13,34063017,13316
32-14,34066923,9000
32-15,34070829,-29
32-16,34074735,-8390
32-17,34078641,-10960
32-18,34082547,-6336
32-19,34086453,3260
32-20,34090359,11655
32-21,34094265,13040
32-22,34098171,6697
32-23,34102077,-2995
32-24,34105983,-9334
32-25,34109889,-8640
32-26,34113795,-2480
32-27,34117701,4582
32-28,34121607,7338
32-29,34125513,4538
32-30,34129419,-1386
32-31,34133325,-8098
32-32,34137231,-12565
32-1,34141234,-12660
32-2,34145140,-6719
32-3,34149046,3228
32-4,34152952,10209
32-5,34156858,9501
32-6,34160764,1697
32-7,34164670,-7210
32-8,34168576,-10495
32-9,34172482,-6184
32-10,34176388,2969
32-11,34180294,10971
32-12,34184200,12373
32-13,34188106,6480
32-14,34192012,-2940
32-15,34195918,-9709
32-16,34199824,-9565
32-17,34203730,-2759
32-18,34207636,7035
32-19,34211542,13380
32-20,34215448,12110
32-21,34219354,4407
32-22,34223260,-5221
32-23,34227166,-10188
32-24,34231072,-7389
32-25,34234978,903
32-26,34238884,9116
32-27,34242790,11012
32-28,34246696,6088
32-29,34250602,-2154
32-30,34254508,-9994
32-31,34258414,-14145
32-32,34262320,-12515
32-1,34266140,-5220
32-2,34270046,3329
32-3,34273952,7784
32-4,34277858,6958
32-5,34281764,3918
32-6,34285670,2765
32-7,34289576,4692
32-8,34293482,7905
32-9,34297388,10933
32-10,34301294,11936
32-11,34305200,9844
32-12,34309106,4458
32-13,34313012,-4285
32-14,34316918,-12440
32-15,34320824,-15253
32-16,34324730,-10652
32-17,34328636,-802
32-18,34332542,7426
32-19,34336448,8774
32-20,34340354,2520
32-21,34344260,-7300
32-22,34348166,-13705
32-23,34352072,-12148
32-24,34355978,-3369
32-25,34359884,6557
32-26,34363790,10701
32-27,34367696,6941
32-28,34371602,-2160
32-29,34375508,-11026
32-30,34379414,-14576
32-31,34383320,-11293
32-32,34387226,-2703
32-1,34391138,5777
32-2,34395044,8751
32-3,34398950,4522
32-4,34402856,-4220
32-5,34406762,-10642
32-6,34410668,-10028
32-7,34414574,-2521
32-8,34418480,7421
32-9,34422386,12908
32-10,34426292,10605
32-11,34430198,2221
32-12,34434104,-6809
32-13,34438010,-10392
32-14,34441916,-6688
32-15,34445822,2246
32-16,34449728,10921
32-17,34453634,13277
32-18,34457540,8153
32-19,34461446,-1231
32-20,34465352,-8900
32-21,34469258,-10113
32-22,34473164,-4475
32-23,34477070,5079
32-24,34480976,12066
32-25,34484882,12055
32-26,34488788,5655
32-27,34492694,-4086
32-28,34496600,-11679
32-29,34500506,-13091
32-30,34504412,-7266
32-31,34508318,3101
32-32,34512224,10624
32-1,34516136,10148
32-2,34520042,2667
32-3,34523948,-6240
32-4,34527854,-9771
32-5,34531760,-5802
32-6,34535666,2750
32-7,34539572,10484
32-8,34543478,12324
32-9,34547384,7955
32-10,34551290,-228
32-11,34555196,-9034
32-12,34559102,-14769
32-13,34563008,-14602
32-14,34566914,-7525
32-15,34570820,2153
32-16,34574726,7577
32-17,34578632,5393
32-18,34582538,-2277
32-19,34586444,-8637
32-20,34590350,-8225
32-21,34594256,-974
32-22,34598162,8344
32-23,34602068,13032
32-24,34605974,10555
32-25,34609880,3178
32-26,34613786,-5461
32-27,34617692,-11155
32-28,34621598,-11282
32-29,34625504,-5371
32-30,34629410,3515
32-31,34633316,9309
32-32,34637222,8518
32-1,34641133,1212
32-2,34645039,-8373
32-3,34648945,-13873
32-4,34652851,-11521
32-5,34656757,-2268
32-6,34660663,7580
32-7,34664569,11219
32-8,34668475,6641
32-9,34672381,-2522
32-10,34676287,-9079
32-11,34680193,-8209
32-12,34684099,-671
32-13,34688005,8806
32-14,34691911,13888
32-15,34695817,11398
32-16,34699723,3081
32-17,34703629,-6022
32-18,34707535,-10151
32-19,34711441,-7152
32-20,34715347,1410
32-21,34719253,10389
32-22,34723159,13352
32-23,34727065,8928
32-24,34730971,151
32-25,34734877,-7729
32-26,34738783,-10840
32-27,34742689,-8827
32-28,34746595,-2700
32-29,34750501,3630
32-30,34754407,6213
32-31,34758313,3852
32-32,34762219,-2944
32-1,34766131,-10314
32-2,34770037,-13134
32-3,34773943,-8675
32-4,34777849,1453
32-5,34781755,9983
32-6,34785661,10689
32-7,34789567,3867
32-8,34793473,-5280
32-9,34797379,-9691
32-10,34801285,-6435
32-11,34805191,2187
32-12,34809097,10765
32-13,34813003,13569
32-14,34816909,9144
32-15,34820815,12
32-16,34824721,-8469
32-17,34828627,-11239
32-18,34832533,-6866
32-19,34836439,2633
32-20,34840345,11129
32-21,34844251,12600
32-22,34848157,6319
32-23,34852063,-3118
32-24,34855969,-8941
32-25,34859875,-7608
32-26,34863781,-1096
32-27,34867687,5809
32-28,34871593,8138
32-29,34875499,5019
32-30,34879405,-901
32-31,34883311,-7494
32-32,34887217,-12264
32-1,34891251,-13098
32-2,34895157,-7877
32-3,34899063,1766
32-4,34902969,8973
32-5,34906875,8686
32-6,34910781,1322
32-7,34914687,-7065
32-8,34918593,-9779
32-9,34922499,-5026
32-10,34926405,4116
32-11,34930311,11607
32-12,34934217,12606
32-13,34938123,6749
32-14,34942029,-2649
32-15,34945935,-9807
32-16,34949841,-10375
32-17,34953747,-3987
32-18,34957653,6022
32-19,34961559,12866
32-20,34965465,11939
32-21,34969371,4249
32-22,34973277,-5490
32-23,34977183,-10429
32-24,34981089,-7525
32-25,34984995,671
32-26,34988901,8639
32-27,34992807,10382
32-28,34996713,5482
32-29,35000619,-2595
32-30,35004525,-10191
32-31,35008431,-13969
32-32,35012337,-12242
32-1,35016126,-4773
32-2,35020032,4936
32-3,35023938,10161
32-4,35027844,7271
32-5,35031750,-966
32-6,35035656,-7593
32-7,35039562,-7308
32-8,35043468,-491
32-9,35047374,8428
32-10,35051280,13594
32-11,35055186,11848
32-12,35059092,4334
32-13,35062998,-5005
32-14,35066904,-10681
32-15,35070810,-9526
32-16,35074716,-1821
32-17,35078622,8064
32-18,35082528,13170
32-19,35086434,10301
32-20,35090340,1545
32-21,35094246,-7400
32-22,35098152,-10745
32-23,35102058,-6583
32-24,35105964,2746
32-25,35109870,11049
32-26,35113776,12558
32-27,35117682,6887
32-28,35121588,-2715
32-29,35125494,-11124
32-30,35129400,-14115
32-31,35133306,-10398
32-32,35137212,-1302
32-1,35141124,7312
32-2,35145030,9978
32-3,35148936,5312
32-4,35152842,-4116
32-5,35156748,-11523
32-6,35160654,-11949
32-7,35164560,-5005
32-8,35168466,5320
32-9,35172372,11845
32-10,35176278,10400
32-11,35180184,2236
32-12,35184090,-7032
32-13,35187996,-10810
32-14,35191902,-6994
32-15,35195808,2092
32-16,35199714,10864
32-17,35203620,13277
32-18,35207526,8048
32-19,35211432,-1479
32-20,35215338,-9268
32-21,35219244,-10268
32-22,35223150,-4165
32-23,35227056,5071
32-24,35230962,11166
32-25,35234868,11254
32-26,35238774,7405
32-27,35242680,2810
32-28,35246586,346
32-29,35250492,568
32-30,35254398,3477
32-31,35258304,8221
32-32,35262210,10945
32-1,35266122,9068
32-2,35270028,2539
32-3,35273934,-6273
32-4,35277840,-13262
32-5,35281746,-16519
32-6,35285652,-15216
32-7,35289558,-10255
32-8,35293464,-5597
32-9,35297370,-3871
32-10,35301276,-5268
32-11,35305182,-7301
32-12,35309088,-6285
32-13,35312994,-1039
32-14,35316900,6700
32-15,35320806,12136
32-16,35324712,11069
32-17,35328618,4155
32-18,35332524,-4310
32-19,35336430,-8874
32-20,35340336,-6739
32-21,35344242,801
32-22,35348148,9360
32-23,35352054,13213
32-24,35355960,10376
32-25,35359866,3015
32-26,35363772,-5815
32-27,35367678,-12980
32-28,35371584,-15683
32-29,35375490,-11785
32-30,35379396,-3057
32-31,35383302,4618
32-32,35387208,6503
32-1,35391119,1111
32-2,35395025,-7779
32-3,35398931,-13303
32-4,35402837,-11111
32-5,35406743,-1819
32-6,35410649,7925
32-7,35414555,11309
32-8,35418461,6723
32-9,35422367,-2551
32-10,35426273,-9657
32-11,35430179,-9694
32-12,35434085,-2899
32-13,35437991,6599
32-14,35441897,12379
32-15,35445803,10674
32-16,35449709,2792
32-17,35453615,-6280
32-18,35457521,-10431
32-19,35461427,-7295
32-20,35465333,1383
32-21,35469239,10430
32-22,35473145,13359
32-23,35477051,8846
32-24,35480957,180
32-25,35484863,-7285
32-26,35488769,-9789
32-27,35492675,-7331
32-28,35496581,-1209
32-29,35500487,4790
32-30,35504393,6984
32-31,35508299,4483
32-32,35512205,-2222
32-1,35516117,-9782
32-2,35520023,-13273
32-3,35523929,-9600
32-4,35527835,159
32-5,35531741,9004
32-6,35535647,10419
32-7,35539553,4139
32-8,35543459,-4930
32-9,35547365,-9585
32-10,35551271,-6489
32-11,35555177,2258
32-12,35559083,11131
32-13,35562989,14126
32-14,35566895,9615
32-15,35570801,381
32-16,35574707,-7913
32-17,35578613,-10212
32-18,35582519,-5441
32-19,35586425,3947
32-20,35590331,11876
32-21,35594237,12843
32-22,35598143,6418
32-23,35602049,-3131
32-24,35605955,-9413
32-25,35609861,-8833
32-26,35613767,-2813
32-27,35617673,4245
32-28,35621579,7113
32-29,35625485,4430
32-30,35629391,-1432
32-31,35633297,-8124
32-32,35637203,-12637
32-1,35641267,-12789
32-2,35645173,-6933
32-3,35649079,2965
32-4,35652985,10058
32-5,35656891,9451
32-6,35660797,1783
32-7,35664703,-6793
32-8,35668609,-9565
32-9,35672515,-4733
32-10,35676421,4622
32-11,35680327,12329
32-12,35684233,13317
32-13,35688139,7235
32-14,35692045,-2453
32-15,35695951,-9881
32-16,35699857,-10698
32-17,35703763,-4507
32-18,35707669,5500
32-19,35711575,12488
32-20,35715481,11623
32-21,35719387,3966
32-22,35723293,-5557
32-23,35727199,-10033
32-24,35731105,-6631
32-25,35735011,1723
32-26,35738917,9410
32-27,35742823,10749
32-28,35746729,5689
32-29,35750635,-2254
32-30,35754541,-9764
32-31,35758447,-13908
32-32,35762353,-12842
32-1,35766112,-5903
32-2,35770018,3716
32-3,35773924,9487
32-4,35777830,7382
32-5,35781736,-738
32-6,35785642,-8258
32-7,35789548,-9301
32-8,35793454,-3212
32-9,35797360,6102
32-10,35801266,12334
32-11,35805172,11512
32-12,35809078,4318
32-13,35812984,-5065
32-14,35816890,-10666
32-15,35820796,-9228
32-16,35824702,-1392
32-17,35828608,8366
32-18,35832514,13196
32-19,35836420,10009
32-20,35840326,1259
32-21,35844232,-7142
32-22,35848138,-9655
32-23,35852044,-4959
32-24,35855950,4204
32-25,35859856,11711
32-26,35863762,12388
32-27,35867668,6421
32-28,35871574,-2966
32-29,35875480,-11154
32-30,35879386,-14390
32-31,35883292,-11175
32-32,35887198,-2428
32-1,35891110,6206
32-2,35895016,9215
32-3,35898922,4896
32-4,35902828,-4248
32-5,35906734,-11329
32-6,35910640,-11324
32-7,35914546,-4014
32-8,35918452,6279
32-9,35922358,12392
32-10,35926264,10500
32-11,35930170,2141
32-12,35934076,-7041
32-13,35937982,-10651
32-14,35941888,-6766
32-15,35945794,2321
32-16,35949700,11051
32-17,35953606,13395
32-18,35957512,8151
32-19,35961418,-1341
32-20,35965324,-9008
32-21,35969230,-10113
32-22,35973136,-4366
32-23,35977042,5204
32-24,35980948,12160
32-25,35984854,12154
32-26,35988760,5871
32-27,35992666,-3767
32-28,35996572,-11464
32-29,36000478,-13149
32-30,36004384,-7624
32-31,36008290,2528
32-32,36012196,10162
32-1,36016107,10453
32-2,36020013,3585
32-3,36023919,-6593
32-4,36027825,-13552
32-5,36031731,-13263
32-6,36035637,-5872
32-7,36039543,4363
32-8,36043449,10315
32-9,36047355,8293
32-10,36051261,51
32-11,36055167,-8291
32-12,36059073,-10474
32-13,36062979,-5250
32-14,36066885,4183
32-15,36070791,11655
32-16,36074697,12145
32-17,36078603,5630
32-18,36082509,-3715
32-19,36086415,-9660
32-20,36090321,-8564
32-21,36094227,-1211
32-22,36098133,8151
32-23,36102039,12990
32-24,36105945,10489
32-25,36109851,2923
32-26,36113757,-5926
32-27,36117663,-11766
32-28,36121569,-12094
32-29,36125475,-6327
32-30,36129381,2683
32-31,36133287,8778
32-32,36137193,8319
32-1,36141105,1254
32-2,36145011,-8297
32-3,36148917,-13931
32-4,36152823,-11811
32-5,36156729,-2712
32-6,36160635,7268
32-7,36164541,11219
32-8,36168447,6967
32-9,36172353,-1985
32-10,36176259,-8503
32-11,36180165,-7670
32-12,36184071,-257
32-13,36187977,9045
32-14,36191883,13996
32-15,36195789,11432
32-16,36199695,3147
32-17,36203601,-5942
32-18,36207507,-10190
32-19,36211413,-7448
32-20,36215319,865
32-21,36219225,9832
32-22,36223131,12886
32-23,36227037,8520
32-24,36230943,-114
32-25,36234849,-7686
32-26,36238755,-10325
32-27,36242661,-7902
32-28,36246567,-1685
32-29,36250473,4486
32-30,36254379,6790
32-31,36258285,4284
32-32,36262191,-2516
32-1,36266103,-10222
32-2,36270009,-13779
32-3,36273915,-10056
32-4,36277821,-126
32-5,36281727,8940
32-6,36285633,10455
32-7,36289539,4120
32-8,36293445,-5078
32-9,36297351,-9833
32-10,36301257,-6814
32-11,36305163,1807
32-12,36309069,10569
32-13,36312975,13614
32-14,36316881,9372
32-15,36320787,494
32-16,36324693,-7572
32-17,36328599,-9874
32-18,36332505,-5296
32-19,36336411,3894
32-20,36340317,11787
32-21,36344223,12852
32-22,36348129,6540
32-23,36352035,-2982
32-24,36355941,-9423
32-25,36359847,-9094
32-26,36363753,-3248
32-27,36367659,3810
32-28,36371565,6817
32-29,36375471,4260
32-30,36379377,-1584
32-31,36383283,-8339
32-32,36387189,-12849
32-1,36391253,-12879
32-2,36395159,-6833
32-3,36399065,3207
32-4,36402971,10283
32-5,36406877,9499
32-6,36410783,1602
32-7,36414689,-7085
32-8,36418595,-9811
32-9,36422501,-4901
32-10,36426407,4474
32-11,36430313,12210
32-12,36434219,13137
32-13,36438125,6921
32-14,36442031,-2687
32-15,36445937,-9707
32-16,36449843,-9969
32-17,36453749,-3484
32-18,36457655,6320
32-19,36461561,12849
32-20,36465467,11754
32-21,36469373,4123
32-22,36473279,-5551
32-23,36477185,-10599
32-24,36481091,-7908
32-25,36484997,196
32-26,36488903,8228
32-27,36492809,10076
32-28,36496715,5279
32-29,36500621,-2655
32-30,36504527,-10135
32-31,36508433,-14074
32-32,36512339,-12823
32-1,36516098,-5942
32-2,36520004,3507
32-3,36523910,9027
32-4,36527816,6649
32-5,36531722,-1323
32-6,36535628,-8098
32-7,36539534,-8094
32-8,36543440,-1313
32-9,36547346,7893
32-10,36551252,13368
32-11,36555158,11934
32-12,36559064,4700
32-13,36562970,-4934
32-14,36566876,-11658
32-15,36570782,-11834
32-16,36574688,-4848
32-17,36578594,5574
32-18,36582500,11981
32-19,36586406,10139
32-20,36590312,1788
32-21,36594218,-7036
32-22,36598124,-10068
32-23,36602030,-5502
32-24,36605936,3694
32-25,36609842,11344
32-26,36613748,12255
32-27,36617654,6454
32-28,36621560,-2866
32-29,36625466,-11097
32-30,36629372,-14408
32-31,36633278,-11276
32-32,36637184,-2574
32-1,36641095,6131
32-2,36645001,9251
32-3,36648907,5019
32-4,36652813,-4089
32-5,36656719,-11207
32-6,36660625,-11260
32-7,36664531,-3958
32-8,36668437,6426
32-9,36672343,12615
32-10,36676249,10665
32-11,36680155,2355
32-12,36684061,-6444
32-13,36687967,-9486
32-14,36691873,-5277
32-15,36695779,3493
32-16,36699685,11376
32-17,36703591,13039
32-18,36707497,7710
32-19,36711403,-1667
32-20,36715309,-9530
32-21,36719215,-11193
32-22,36723121,-5766
32-23,36727027,4145
32-24,36730933,11745
32-25,36734839,12152
32-26,36738745,5801
32-27,36742651,-4052
32-28,36746557,-11567
32-29,36750463,-12627
32-30,36754369,-6574
32-31,36758275,3623
32-32,36762181,10891
32-1,36766093,10771
32-2,36769999,3803
32-3,36773905,-6328
32-4,36777811,-13502
32-5,36781717,-13787
32-6,36785623,-6920
32-7,36789529,3301
32-8,36793435,9667
32-9,36797341,8118
32-10,36801247,265
32-11,36805153,-7648
32-12,36809059,-9333
32-13,36812965,-3767
32-14,36816871,5460
32-15,36820777,12173
32-16,36824683,12020
32-17,36828589,5327
32-18,36832495,-4092
32-19,36836401,-10408
32-20,36840307,-9913
32-21,36844213,-2789
32-22,36848119,7031
32-23,36852025,12687
32-24,36855931,10820
32-25,36859837,3431
32-26,36863743,-5585
32-27,36867649,-11598
32-28,36871555,-11954
32-29,36875461,-6229
32-30,36879367,2672
32-31,36883273,8635
32-32,36887179,8056
32-1,36891091,970
32-2,36894997,-8512
32-3,36898903,-14081
32-4,36902809,-11962
32-5,36906715,-2941
32-6,36910621,6897
32-7,36914527,10792
32-8,36918433,6693
32-9,36922339,-2026
32-10,36926245,-8445
32-11,36930151,-7749
32-12,36934057,-583
32-13,36937963,8535
32-14,36941869,13511
32-15,36945775,11214
32-16,36949681,3104
32-17,36953587,-6189
32-18,36957493,-10863
32-19,36961399,-8363
32-20,36965305,140
32-21,36969211,9629
32-22,36973117,13215
32-23,36977023,9084
32-24,36980929,349
32-25,36984835,-7428
32-26,36988741,-10119
32-27,36992647,-7675
32-28,36996553,-1497
32-29,37000459,4670
32-30,37004365,7056
32-31,37008271,4683
32-32,37012177,-2008
32-1,37016088,-9640
32-2,37019994,-13131
32-3,37023900,-9397
32-4,37027806,440
32-5,37031712,9334
32-6,37035618,10826
32-7,37039524,4590
32-8,37043430,-4796
32-9,37047336,-10196
32-10,37051242,-7964
32-11,37055148,320
32-12,37059054,9504
32-13,37062960,13311
32-14,37066866,9558
32-15,37070772,748
32-16,37074678,-7509
32-17,37078584,-9880
32-18,37082490,-5259
32-19,37086396,3810
32-20,37090302,11522
32-21,37094208,12793
32-22,37098114,7127
32-23,37102020,-2378
32-24,37105926,-10186
32-25,37109832,-12048
32-26,37113738,-7713
32-27,37117644,-165
32-28,37121550,5036
32-29,37125456,4720
32-30,37129362,-125
32-31,37133268,-7138
32-32,37137174,-12217
32-1,37141269,-12410
32-2,37145175,-6448
32-3,37149081,3529
32-4,37152987,10688
32-5,37156893,9999
32-6,37160799,2234
32-7,37164705,-6379
32-8,37168611,-9115
32-9,37172517,-4298
32-10,37176423,4935
32-11,37180329,12635
32-12,37184235,13654
32-13,37188141,7594
32-14,37192047,-1870
32-15,37195953,-8860
32-16,37199859,-9213
32-17,37203765,-2853
32-18,37207671,6851
32-19,37211577,13347
32-20,37215483,12264
32-21,37219389,4644
32-22,37223295,-5053
32-23,37227201,-10209
32-24,37231107,-7610
32-25,37235013,561
32-26,37238919,8793
32-27,37242825,10826
32-28,37246731,5995
32-29,37250637,-2228
32-30,37254543,-10070
32-31,37258449,-14006
32-32,37262355,-11931
32-1,37266084,-4601
32-2,37269990,3732
32-3,37273896,8396
32-4,37277802,8432
32-5,37281708,6580
32-6,37285614,5936
32-7,37289520,7093
32-8,37293426,8849
32-9,37297332,10736
32-10,37301238,11402
32-11,37305144,9579
32-12,37309050,4484
32-13,37312956,-3920
32-14,37316862,-12180
32-15,37320768,-16360
32-16,37324674,-13825
32-17,37328580,-5343
32-18,37332486,3113
32-19,37336392,5645
32-20,37340298,1100
32-21,37344204,-6106
32-22,37348110,-9251
32-23,37352016,-5056
32-24,37355922,4014
32-25,37359828,11356
32-26,37363734,11946
32-27,37367640,6151
32-28,37371546,-2986
32-29,37375452,-11166
32-30,37379358,-14658
32-31,37383264,-11711
32-32,37387170,-3070
32-1,37391081,5655
32-2,37394987,8804
32-3,37398893,4546
32-4,37402799,-4612
32-5,37406705,-11748
32-6,37410611,-11776
32-7,37414517,-4423
32-8,37418423,6035
32-9,37422329,12306
32-10,37426235,10376
32-11,37430141,1992
32-12,37434047,-6945
32-13,37437953,-10044
32-14,37441859,-5684
32-15,37445765,3414
32-16,37449671,11699
32-17,37453577,13512
32-18,37457483,7982
32-19,37461389,-1488
32-20,37465295,-9060
32-21,37469201,-10179
32-22,37473107,-4385
32-23,37477013,5300
32-24,37480919,12307
32-25,37484825,12216
32-26,37488731,5909
32-27,37492637,-3648
32-28,37496543,-11832
32-29,37500449,-14795
32-30,37504355,-10731
32-31,37508261,-1261
32-32,37512167,7099
32-1,37516140,8960
32-2,37520046,3248
32-3,37523952,-6498
32-4,37527858,-13237
32-5,37531764,-12378
32-6,37535670,-4129
32-7,37539576,6383
32-8,37543482,11743
32-9,37547388,8683
32-10,37551294,-201
32-11,37555200,-8188
32-12,37559106,-9331
32-13,37563012,-3245
32-14,37566918,6266
32-15,37570824,13102
32-16,37574730,12712
32-17,37578636,5602
32-18,37582542,-3856
32-19,37586448,-9681
32-20,37590354,-8538
32-21,37594260,-1140
32-22,37598166,8255
32-23,37602072,13018
32-24,37605978,10418
32-25,37609884,2746
32-26,37613790,-6321
32-27,37617696,-12544
32-28,37621602,-13203
32-29,37625508,-7433
32-30,37629414,1896
32-31,37633320,8401
32-32,37637226,8091
32-1,37641077,836
32-2,37644983,-8723
32-3,37648889,-13797
32-4,37652795,-10728
32-5,37656701,-958
32-6,37660607,8855
32-7,37664513,11877
32-8,37668419,6575
32-9,37672325,-2858
32-10,37676231,-9185
32-11,37680137,-7921
32-12,37684043,-323
32-13,37687949,8847
32-14,37691855,13608
32-15,37695761,11006
32-16,37699667,2711
32-17,37703573,-6524
32-18,37707479,-11059
32-19,37711385,-8496
32-20,37715291,68
32-21,37719197,9568
32-22,37723103,12946
32-23,37727009,8495
32-24,37730915,-240
32-25,37734821,-7433
32-26,37738727,-9135
32-27,37742633,-5820
32-28,37746539,578
32-29,37750445,6170
32-30,37754351,7620
32-31,37758257,4520
32-32,37762163,-2508
32-1,37766074,-10356
32-2,37769980,-14135
32-3,37773886,-10544
32-4,37777792,-552
32-5,37781698,8643
32-6,37785604,10196
32-7,37789510,3813
32-8,37793416,-5389
32-9,37797322,-10039
32-10,37801228,-6832
32-11,37805134,1822
32-12,37809040,10419
32-13,37812946,13292
32-14,37816852,8810
32-15,37820758,-359
32-16,37824664,-8669
32-17,37828570,-11042
32-18,37832476,-6189
32-19,37836382,3456
32-20,37840288,11752
32-21,37844194,12941
32-22,37848100,6419
32-23,37852006,-3258
32-24,37855912,-9446
32-25,37859818,-8582
32-26,37863724,-2226
32-27,37867630,5143
32-28,37871536,8232
32-29,37875442,5663
32-30,37879348,-309
32-31,37883254,-7428
32-32,37887160,-12527
32-1,37891255,-13169
32-2,37895161,-7387
32-3,37899067,2826
32-4,37902973,10103
32-5,37906879,9326
32-6,37910785,1518
32-7,37914691,-6876
32-8,37918597,-9172
32-9,37922503,-3999
32-10,37926409,5135
32-11,37930315,12421
32-12,37934221,13122
32-13,37938127,6884
32-14,37942033,-2686
32-15,37945939,-9796
32-16,37949845,-10201
32-17,37953751,-3643
32-18,37957657,6385
32-19,37961563,13083
32-20,37965469,11843
32-21,37969375,3838
32-22,37973281,-5957
32-23,37977187,-10725
32-24,37981093,-7613
32-25,37984999,835
32-26,37988905,9116
32-27,37992811,11048
32-28,37996717,5761
32-29,38000623,-3079
32-30,38004529,-10478
32-31,38008435,-12432
32-32,38012341,-8180
32-1,38016100,585
32-2,38020006,9083
32-3,38023912,11894
32-4,38027818,7656
32-5,38031724,-1508
32-6,38035630,-10845
32-7,38039536,-15246
32-8,38043442,-12352
32-9,38047348,-2897
32-10,38051254,7075
32-11,38055160,10278
32-12,38059066,5123
32-13,38062972,-3924
32-14,38066878,-9344
32-15,38070784,-6955
32-16,38074690,1356
32-17,38078596,10248
32-18,38082502,13844
32-19,38086408,9916
32-20,38090314,1042
32-21,38094220,-7352
32-22,38098126,-10288
32-23,38102032,-6055
32-24,38105938,3154
32-25,38109844,11107
32-26,38113750,12252
32-27,38117656,6407
32-28,38121562,-3260
32-29,38125468,-11608
32-30,38129374,-14392
32-31,38133280,-10289
32-32,38137186,-685
32-1,38141189,8188
32-2,38145095,10522
32-3,38149001,5065
32-4,38152907,-4842
32-5,38156813,-11892
32-6,38160719,-11334
32-7,38164625,-3529
32-8,38168531,6952
32-9,38172437,13003
32-10,38176343,10703
32-11,38180249,1960
32-12,38184155,-7244
32-13,38188061,-10592
32-14,38191967,-5997
32-15,38195873,3124
32-16,38199779,10149
32-17,38203685,10997
32-18,38207591,7910
32-19,38211497,5244
32-20,38215403,5257
32-21,38219309,6785
32-22,38223215,7988
32-23,38227121,9491
32-24,38231027,10294
32-25,38234933,8744
32-26,38238839,3967
32-27,38242745,-4049
32-28,38246651,-11926
32-29,38250557,-16775
32-30,38254463,-17192
32-31,38258369,-13057
32-32,38262275,-7670
32-1,38266065,-4650
32-2,38269971,-5348
32-3,38273877,-8194
32-4,38277783,-9064
32-5,38281689,-5231
32-6,38285595,2639
32-7,38289501,10253
32-8,38293407,12178
32-9,38297313,7005
32-10,38301219,-2155
32-11,38305125,-9578
32-12,38309031,-10611
32-13,38312937,-4726
32-14,38316843,4947
32-15,38320749,12083
32-16,38324655,11801
32-17,38328561,4603
32-18,38332467,-4963
32-19,38336373,-10697
32-20,38340279,-9301
32-21,38344185,-1640
32-22,38348091,8005
32-23,38351997,12955
32-24,38355903,10369
32-25,38359809,2581
32-26,38363715,-6458
32-27,38367621,-12221
32-28,38371527,-12160
32-29,38375433,-5906
32-30,38379339,3294
32-31,38383245,9108
32-32,38387151,8094
32-1,38391062,503
32-2,38394968,-9228
32-3,38398874,-14621
32-4,38402780,-12019
32-5,38406686,-2500
32-6,38410592,7585
32-7,38414498,11098
32-8,38418404,6102
32-9,38422310,-3236
32-10,38426216,-9612
32-11,38430122,-8337
32-12,38434028,-634
32-13,38437934,8679
32-14,38441840,13539
32-15,38445746,10779
32-16,38449652,2346
32-17,38453558,-6591
32-18,38457464,-10456
32-19,38461370,-7257
32-20,38465276,1379
32-21,38469182,10286
32-22,38473088,12998
32-23,38476994,8256
32-24,38480900,-559
32-25,38484806,-8028
32-26,38488712,-10361
32-27,38492618,-7450
32-28,38496524,-764
32-29,38500430,5492
32-30,38504336,7461
32-31,38508242,4312
32-32,38512148,-3125
32-1,38516060,-11011
32-2,38519966,-14214
32-3,38523872,-9868
32-4,38527778,435
32-5,38531684,9274
32-6,38535590,10067
32-7,38539496,3054
32-8,38543402,-6280
32-9,38547308,-10604
32-10,38551214,-6984
32-11,38555120,1901
32-12,38559026,10521
32-13,38562932,13229
32-14,38566838,8560
32-15,38570744,-744
32-16,38574650,-9150
32-17,38578556,-11666
32-18,38582462,-6941
32-19,38586368,2791
32-20,38590274,11305
32-21,38594180,12490
32-22,38598086,5811
32-23,38601992,-3736
32-24,38605898,-9383
32-25,38609804,-7798
32-26,38613710,-1126
32-27,38617616,5897
32-28,38621522,8333
32-29,38625428,5281
32-30,38629334,-789
32-31,38633240,-7787
32-32,38637146,-12892
32-1,38641241,-13656
32-2,38645147,-7923
32-3,38649053,2254
32-4,38652959,9603
32-5,38656865,9006
32-6,38660771,1258
32-7,38664677,-7305
32-8,38668583,-9958
32-9,38672489,-5046
32-10,38676395,4113
32-11,38680301,11614
32-12,38684207,12476
32-13,38688113,6243
32-14,38692019,-3335
32-15,38695925,-10323
32-16,38699831,-10485
32-17,38703737,-3792
32-18,38707643,6184
32-19,38711549,12785
32-20,38715455,11544
32-21,38719361,3672
32-22,38723267,-5930
32-23,38727173,-10583
32-24,38731079,-7530
32-25,38734985,769
32-26,38738891,8820
32-27,38742797,10627
32-28,38746703,5815
32-29,38750609,-2390
32-30,38754515,-10396
32-31,38758421,-14639
32-32,38762327,-13107
32-1,38766208,-5380
32-2,38770114,4786
32-3,38774020,10251
32-4,38777926,7263
32-5,38781832,-1366
32-6,38785738,-8573
32-7,38789644,-8712
32-8,38793550,-1988
32-9,38797456,7188
32-10,38801362,12861
32-11,38805268,11515
32-12,38809174,4100
32-13,38813080,-5414
32-14,38816986,-11417
32-15,38820892,-10559
32-16,38824798,-3022
32-17,38828704,7000
32-18,38832610,12423
32-19,38836516,9626
32-20,38840422,865
32-21,38844328,-7792
32-22,38848234,-10484
32-23,38852140,-5662
32-24,38856046,3765
32-25,38859952,11530
32-26,38863858,12330
32-27,38867764,6175
32-28,38871670,-3627
32-29,38875576,-11885
32-30,38879482,-14431
32-31,38883388,-10018
32-32,38887294,-189
32-1,38891053,8701
32-2,38894959,10950
32-3,38898865,5378
32-4,38902771,-4630
32-5,38906677,-11762
32-6,38910583,-11214
32-7,38914489,-3148
32-8,38918395,6993
32-9,38922301,11567
32-10,38926207,9035
32-11,38930113,3656
32-12,38934019,519
32-13,38937925,2007
32-14,38941831,5679
32-15,38945737,9216
32-16,38949643,11378
32-17,38953549,10314
32-18,38957455,6279
32-19,38961361,-910
32-20,38965267,-9950
32-21,38969173,-16096
32-22,38973079,-15647
32-23,38976985,-7897
32-24,38980891,2165
32-25,38984797,7658
32-26,38988703,5275
32-27,38992609,-3155
32-28,38996515,-10843
32-29,39000421,-11455
32-30,39004327,-4332
32-31,39008233,4969
32-32,39012139,9977
32-1,39016050,9448
32-2,39019956,6774
32-3,39023862,5234
32-4,39027768,5958
32-5,39031674,7313
32-6,39035580,8680
32-7,39039486,10037
32-8,39043392,9518
32-9,39047298,6037
32-10,39051204,-1057
32-11,39055110,-9479
32-12,39059016,-15644
32-13,39062922,-17819
32-14,39066828,-14975
32-15,39070734,-9344
32-16,39074640,-5085
32-17,39078546,-4143
32-18,39082452,-5922
32-19,39086358,-7107
32-20,39090264,-4521
32-21,39094170,1847
32-22,39098076,9147
32-23,39101982,12398
32-24,39105888,9424
32-25,39109794,2219
32-26,39113700,-6388
32-27,39117606,-12598
32-28,39121512,-13240
32-29,39125418,-7276
32-30,39129324,2209
32-31,39133230,8736
32-32,39137136,8373
32-1,39141048,1042
32-2,39144954,-8828
32-3,39148860,-14480
32-4,39152766,-12028
32-5,39156672,-2517
32-6,39160578,7663
32-7,39164484,11281
32-8,39168390,6336
32-9,39172296,-3059
32-10,39176202,-9537
32-11,39180108,-8333
32-12,39184014,-641
32-13,39187920,8703
32-14,39191826,13629
32-15,39195732,10970
32-16,39199638,2563
32-17,39203544,-6524
32-18,39207450,-10633
32-19,39211356,-7607
32-20,39215262,1060
32-21,39219168,10220
32-22,39223074,13224
32-23,39226980,8633
32-24,39230886,-213
32-25,39234792,-7840
32-26,39238698,-10351
32-27,39242604,-7638
32-28,39246510,-1084
32-29,39250416,5253
32-30,39254322,7512
32-31,39258228,4732
32-32,39262134,-2480
32-1,39266046,-10338
32-2,39269952,-13646
32-3,39273858,-9433
32-4,39277764,872
32-5,39281670,9859
32-6,39285576,10824
32-7,39289482,3936
32-8,39293388,-5405
32-9,39297294,-9910
32-10,39301200,-6542
32-11,39305106,2177
32-12,39309012,10913
32-13,39312918,13842
32-14,39316824,9229
32-15,39320730,39
32-16,39324636,-7998
32-17,39328542,-10008
32-18,39332448,-5053
32-19,39336354,4267
32-20,39340260,11947
32-21,39344166,12616
32-22,39348072,5943
32-23,39351978,-3607
32-24,39355884,-9729
32-25,39359790,-8953
32-26,39363696,-2614
32-27,39367602,4901
32-28,39371508,8153
32-29,39375414,5588
32-30,39379320,-610
32-31,39383226,-7965
32-32,39387132,-13010
32-1,39391379,-13264
32-2,39395285,-7040
32-3,39399191,3327
32-4,39403097,10447
32-5,39407003,9265
32-6,39410909,1006
32-7,39414815,-7644
32-8,39418721,-9954
32-9,39422627,-4599
32-10,39426533,4822
32-11,39430439,12331
32-12,39434345,12914
32-13,39438251,6373
32-14,39442157,-3222
32-15,39446063,-9876
32-16,39449969,-9674
32-17,39453875,-2884
32-18,39457781,6821
32-19,39461687,12904
32-20,39465593,11261
32-21,39469499,3329
32-22,39473405,-6110
32-23,39477311,-10655
32-24,39481217,-7597
32-25,39485123,697
32-26,39489029,8791
32-27,39492935,10658
32-28,39496841,5863
32-29,39500747,-2375
32-30,39504653,-10347
32-31,39508559,-14403
32-32,39512465,-12577
32-1,39516041,-4652
32-2,39519947,5499
32-3,39523853,10761
32-4,39527759,7395
32-5,39531665,-1603
32-6,39535571,-9019
32-7,39539477,-9169
32-8,39543383,-2270
32-9,39547289,7146
32-10,39551195,12965
32-11,39555101,11478
32-12,39559007,3721
32-13,39562913,-5866
32-14,39566819,-11445
32-15,39570725,-9928
32-16,39574631,-1875
32-17,39578537,8182
32-18,39582443,13081
32-19,39586349,9609
32-20,39590255,517
32-21,39594161,-7945
32-22,39598067,-10201
32-23,39601973,-5162
32-24,39605879,4164
32-25,39609785,11615
32-26,39613691,12155
32-27,39617597,6089
32-28,39621503,-3429
32-29,39625409,-11789
32-30,39629315,-15009
32-31,39633221,-11368
32-32,39637127,-1964
32-1,39641039,7078
32-2,39644945,9844
32-3,39648851,4728
32-4,39652757,-5164
32-5,39656663,-12461
32-6,39660569,-12104
32-7,39664475,-4304
32-8,39668381,6303
32-9,39672287,12496
32-10,39676193,10363
32-11,39680099,1754
32-12,39684005,-7371
32-13,39687911,-10662
32-14,39691817,-6495
32-15,39695723,2583
32-16,39699629,11121
32-17,39703535,13191
32-18,39707441,7664
32-19,39711347,-1882
32-20,39715253,-9341
32-21,39719159,-10179
32-22,39723065,-4219
32-23,39726971,5364
32-24,39730877,12083
32-25,39734783,11716
32-26,39738689,5226
32-27,39742595,-4432
32-28,39746501,-12418
32-29,39750407,-14789
32-30,39754313,-9907
32-31,39758219,150
32-32,39762125,8404
32-1,39766036,9628
32-2,39769942,3268
32-3,39773848,-6953
32-4,39777754,-13954
32-5,39781660,-13207
32-6,39785566,-4962
32-7,39789472,5854
32-8,39793378,11524
32-9,39797284,8516
32-10,39801190,-357
32-11,39805096,-8222
32-12,39809002,-9135
32-13,39812908,-3079
32-14,39816814,5949
32-15,39820720,12266
32-16,39824626,11842
32-17,39828532,5083
32-18,39832438,-4399
32-19,39836344,-11043
32-20,39840250,-11034
32-21,39844156,-4123
32-22,39848062,6025
32-23,39851968,12251
32-24,39855874,10721
32-25,39859780,3258
32-26,39863686,-5982
32-27,39867592,-11774
32-28,39871498,-11409
32-29,39875404,-4933
32-30,39879310,4343
32-31,39883216,10104
32-32,39887122,8938
32-1,39891034,1157
32-2,39894940,-8767
32-3,39898846,-14240
32-4,39902752,-11637
32-5,39906658,-2046
32-6,39910564,8153
32-7,39914470,11625
32-8,39918376,6499
32-9,39922282,-2951
32-10,39926188,-9341
32-11,39930094,-7985
32-12,39934000,-283
32-13,39937906,8995
32-14,39941812,13901
32-15,39945718,11364
32-16,39949624,3112
32-17,39953530,-6157
32-18,39957436,-10875
32-19,39961342,-8550
32-20,39965248,-225
32-21,39969154,9130
32-22,39973060,12628
32-23,39976966,8424
32-24,39980872,-372
32-25,39984778,-8306
32-26,39988684,-11274
32-27,39992590,-8982
32-28,39996496,-2627
32-29,40000402,3957
32-30,40004308,6744
32-31,40008214,4418
32-32,40012120,-2616
32-1,40016032,-10437
32-2,40019938,-13630
32-3,40023844,-9272
32-4,40027750,1193
32-5,40031656,10274
32-6,40035562,11179
32-7,40039468,4244
32-8,40043374,-5059
32-9,40047280,-9485
32-10,40051186,-6142
32-11,40055092,2322
32-12,40058998,10725
32-13,40062904,13472
32-14,40066810,8966
32-15,40070716,-140
32-16,40074622,-8538
32-17,40078528,-11294
32-18,40082434,-6937
32-19,40086340,2465
32-20,40090246,10841
32-21,40094152,12320
32-22,40098058,6066
32-23,40101964,-3642
32-24,40105870,-10279
32-25,40109776,-9974
32-26,40113682,-3928
32-27,40117588,3559
32-28,40121494,7116
32-29,40125400,4962
32-30,40129306,-952
32-31,40133212,-8138
32-32,40137118,-12893
32-1,40141212,-12733
32-2,40145118,-6214
32-3,40149024,4236
32-4,40152930,11162
32-5,40156836,9674
32-6,40160742,1262
32-7,40164648,-7334
32-8,40168554,-9476
32-9,40172460,-4109
32-10,40176366,5193
32-11,40180272,12633
32-12,40184178,13362
32-13,40188084,7183
32-14,40191990,-2402
32-15,40195896,-9797
32-16,40199802,-10785
32-17,40203708,-4809
32-18,40207614,5056
32-19,40211520,12037
32-20,40215426,11379
32-21,40219332,3912
32-22,40223238,-5919
32-23,40227144,-11312
32-24,40231050,-8810
32-25,40234956,-596
32-26,40238862,7878
32-27,40242768,10282
32-28,40246674,5721
32-29,40250580,-2617
32-30,40254486,-10651
32-31,40258392,-14306
32-32,40262298,-11887
32-1,40266027,-3691
32-2,40269933,6347
32-3,40273839,11523
32-4,40277745,8219
32-5,40281651,-1093
32-6,40285557,-9383
32-7,40289463,-10651
32-8,40293369,-4443
32-9,40297275,5369
32-10,40301181,12337
32-11,40305087,11755
32-12,40308993,4304
32-13,40312899,-5294
32-14,40316805,-10795
32-15,40320711,-9107
32-16,40324617,-1256
32-17,40328523,8378
32-18,40332429,13132
32-19,40336335,9868
32-20,40340241,1043
32-21,40344147,-7453
32-22,40348053,-10076
32-23,40351959,-5326
32-24,40355865,4118
32-25,40359771,11957
32-26,40363677,12811
32-27,40367583,6765
32-28,40371489,-2986
32-29,40375395,-11520
32-30,40379301,-14733
32-31,40383207,-10993
32-32,40387113,-1401
32-1,40391024,7821
32-2,40394930,10633
32-3,40398836,5441
32-4,40402742,-4464
32-5,40406648,-11642
32-6,40410554,-11139
32-7,40414460,-3340
32-8,40418366,7139
32-9,40422272,13061
32-10,40426178,10523
32-11,40430084,1809
32-12,40433990,-6894
32-13,40437896,-9457
32-14,40441802,-4748
32-15,40445708,4265
32-16,40449614,12209
32-17,40453520,13620
32-18,40457426,7773
32-19,40461332,-1672
32-20,40465238,-8870
32-21,40469144,-9569
32-22,40473050,-3567
32-23,40476956,5907
32-24,40480862,12353
32-25,40484768,11841
32-26,40488674,5267
32-27,40492580,-4421
32-28,40496486,-12057
32-29,40500392,-13702
32-30,40504298,-7936
32-31,40508204,2640
32-32,40512110,10609
32-1,40516022,10887
32-2,40519928,3557
32-3,40523834,-7003
32-4,40527740,-13648
32-5,40531646,-12420
32-6,40535552,-4096
32-7,40539458,6473
32-8,40543364,11696
32-9,40547270,8245
32-10,40551176,-780
32-11,40555082,-8534
32-12,40558988,-9240
32-13,40562894,-2996
32-14,40566800,6175
32-15,40570706,12524
32-16,40574612,12037
32-17,40578518,5125
32-18,40582424,-4577
32-19,40586330,-11404
32-20,40590236,-11492
32-21,40594142,-4469
32-22,40598048,5890
32-23,40601954,12220
32-24,40605860,10658
32-25,40609766,3217
32-26,40613672,-5751
32-27,40617578,-11150
32-28,40621484,-10524
32-29,40625390,-4157
32-30,40629296,4689
32-31,40633202,9939
32-32,40637108,8641
32-1,40641020,1358
32-2,40644926,-8428
32-3,40648832,-15032
32-4,40652738,-14388
32-5,40656644,-6256
32-6,40660550,4178
32-7,40664456,9520
32-8,40668362,6461
32-9,40672268,-2030
32-10,40676174,-8745
32-11,40680080,-8221
32-12,40683986,-891
32-13,40687892,8351
32-14,40691798,13373
32-15,40695704,11072
32-16,40699610,2915
32-17,40703516,-6297
32-18,40707422,-10826
32-19,40711328,-8160
32-20,40715234,433
32-21,40719140,9839
32-22,40723046,13191
32-23,40726952,8785
32-24,40730858,-62
32-25,40734764,-7737
32-26,40738670,-10198
32-27,40742576,-7406
32-28,40746482,-832
32-29,40750388,5484
32-30,40754294,7649
32-31,40758200,4789
32-32,40762106,-2496
32-1,40766017,-10631
32-2,40769923,-14389
32-3,40773829,-10569
32-4,40777735,-268
32-5,40781641,9125
32-6,40785547,10632
32-7,40789453,4153
32-8,40793359,-5031
32-9,40797265,-9539
32-10,40801171,-6261
32-11,40805077,2205
32-12,40808983,10523
32-13,40812889,13275
32-14,40816795,9032
32-15,40820701,134
32-16,40824607,-8500
32-17,40828513,-11831
32-18,40832419,-7968
32-19,40836325,1448
32-20,40840231,10487
32-21,40844137,12685
32-22,40848043,6735
32-23,40851949,-2863
32-24,40855855,-9216
32-25,40859761,-8346
32-26,40863667,-1899
32-27,40867573,5449
32-28,40871479,8541
32-29,40875385,5929
32-30,40879291,-222
32-31,40883197,-7509
32-32,40887103,-12528
32-1,40891015,-12813
32-2,40894921,-6626
32-3,40898827,3765
32-4,40902733,10892
32-5,40906639,9721
32-6,40910545,1533
32-7,40914451,-7028
32-8,40918357,-9262
32-9,40922263,-3958
32-10,40926169,5296
32-11,40930075,12721
32-12,40933981,13352
32-13,40937887,6952
32-14,40941793,-2522
32-15,40945699,-9274
32-16,40949605,-9347
32-17,40953511,-2791
32-18,40957417,6901
32-19,40961323,13216
32-20,40965229,11789
32-21,40969135,3863
32-22,40973041,-5767
32-23,40976947,-10590
32-24,40980853,-7698
32-25,40984759,609
32-26,40988665,8832
32-27,40992571,10875
32-28,40996477,6157
32-29,41000383,-2078
32-30,41004289,-10086
32-31,41008195,-14134
32-32,41012101,-11896
32-1,41016013,-4111
32-2,41019919,4559
32-3,41023825,9109
32-4,41027731,8807
32-5,41031637,6720
32-6,41035543,5943
32-7,41039449,6965
32-8,41043355,8413
32-9,41047261,10030
32-10,41051167,10728
32-11,41055073,9049
32-12,41058979,4036
32-13,41062885,-4527
32-14,41066791,-13112
32-15,41070697,-17415
32-16,41074603,-14606
32-17,41078509,-5481
32-18,41082415,3626
32-19,41086321,6353
32-20,41090227,1447
32-21,41094133,-6452
32-22,41098039,-10242
32-23,41101945,-6289
32-24,41105851,2934
32-25,41109757,10643
32-26,41113663,11584
32-27,41117569,5925
32-28,41121475,-3332
32-29,41125381,-11745
32-30,41129287,-15287
32-31,41133193,-12121
32-32,41137099,-2997
32-1,41141010,6336
32-2,41144916,9673
32-3,41148822,5009
32-4,41152728,-4487
32-5,41156634,-11325
32-6,41160540,-10517
32-7,41164446,-2624
32-8,41168352,7492
32-9,41172258,12923
32-10,41176164,10302
32-11,41180070,1624
32-12,41183976,-7356
32-13,41187882,-10663
32-14,41191788,-6494
32-15,41195694,2921
32-16,41199600,10932
32-17,41203506,11745
32-18,41207412,7010
32-19,41211318,1813
32-20,41215224,441
32-21,41219130,3124
32-22,41223036,6919
32-23,41226942,10464
32-24,41230848,11824
32-25,41234754,9650
32-26,41238660,4201
32-27,41242566,-4384
32-28,41246472,-12020
32-29,41250378,-13632
32-30,41254284,-7835
32-31,41258190,2332
32-32,41262096,9614
32-1,41266008,9454
32-2,41269914,2871
32-3,41273820,-6366
32-4,41277726,-13731
32-5,41281632,-17141
32-6,41285538,-15697
32-7,41289444,-10240
32-8,41293350,-5033
32-9,41297256,-2661
32-10,41301162,-3035
32-11,41305068,-3734
32-12,41308974,-1627
32-13,41312880,3406
32-14,41316786,9486
32-15,41320692,12977
32-16,41324598,11175
32-17,41328504,4701
32-18,41332410,-4127
32-19,41336316,-10964
32-20,41340222,-11484
32-21,41344128,-4752
32-22,41348034,5499
32-23,41351940,11980
32-24,41355846,10623
32-25,41359752,3247
32-26,41363658,-5926
32-27,41367564,-11703
32-28,41371470,-11384
32-29,41375376,-5102
32-30,41379282,3946
32-31,41383188,9616
32-32,41387094,8509
32-1,41391005,904
32-2,41394911,-8884
32-3,41398817,-14406
32-4,41402723,-11974
32-5,41406629,-2606
32-6,41410535,7429
32-7,41414441,10991
32-8,41418347,6085
32-9,41422253,-3253
32-10,41426159,-9704
32-11,41430065,-8490
32-12,41433971,-809
32-13,41437877,8540
32-14,41441783,13619
32-15,41445689,11471
32-16,41449595,3445
32-17,41453501,-6166
32-18,41457407,-11639
32-19,41461313,-9940
32-20,41465219,-1536
32-21,41469125,8614
32-22,41473031,12838
32-23,41476937,8712
32-24,41480843,-217
32-25,41484749,-7745
32-26,41488655,-9543
32-27,41492561,-6131
32-28,41496467,280
32-29,41500373,5849
32-30,41504279,7276
32-31,41508185,4235
32-32,41512091,-2686
32-1,41516003,-10660
32-2,41519909,-14878
32-3,41523815,-11786
32-4,41527721,-1926
32-5,41531627,7751
32-6,41535533,10158
32-7,41539439,4456
32-8,41543345,-4667
32-9,41547251,-9816
32-10,41551157,-7217
32-11,41555063,1138
32-12,41558969,9829
32-13,41562875,13055
32-14,41566781,8910
32-15,41570687,-98
32-16,41574593,-8434
32-17,41578499,-10866
32-18,41582405,-6067
32-19,41586311,3531
32-20,41590217,11781
32-21,41594123,12824
32-22,41598029,6261
32-23,41601935,-3175
32-24,41605841,-8897
32-25,41609747,-7648
32-26,41613653,-1411
32-27,41617559,5230
32-28,41621465,7404
32-29,41625371,4240
32-30,41629277,-1319
32-31,41633183,-7185
32-32,41637089,-12339
32-1,41641001,-15085
32-2,41644907,-12813
32-3,41648813,-6194
32-4,41652719,821
32-5,41656625,5335
32-6,41660531,6833
32-7,41664437,7009
32-8,41668343,7473
32-9,41672249,8453
32-10,41676155,10287
32-11,41680061,11698
32-12,41683967,10844
32-13,41687873,7009
32-14,41691779,-773
32-15,41695685,-9854
32-16,41699591,-15221
32-17,41703497,-13650
32-18,41707403,-5061
32-19,41711309,4858
32-20,41715215,8898
32-21,41719121,4816
32-22,41723027,-3808
32-23,41726933,-9227
32-24,41730839,-6632
32-25,41734745,1596
32-26,41738651,9238
32-27,41742557,10668
32-28,41746463,5351
32-29,41750369,-3227
32-30,41754275,-10325
32-31,41758181,-12090
32-32,41762087,-7677
32-1,41765998,1215
32-2,41769904,9843
32-3,41773810,12810
32-4,41777716,8622
32-5,41781622,-648
32-6,41785528,-10010
32-7,41789434,-14249
32-8,41793340,-11157
32-9,41797246,-1623
32-10,41801152,8213
32-11,41805058,11122
32-12,41808964,5671
32-13,41812870,-3613
32-14,41816776,-9247
32-15,41820682,-7085
32-16,41824588,1101
32-17,41828494,10151
32-18,41832400,14098
32-19,41836306,10479
32-20,41840212,1684
32-21,41844118,-6903
32-22,41848024,-10109
32-23,41851930,-5988
32-24,41855836,3324
32-25,41859742,11471
32-26,41863648,12679
32-27,41867554,6927
32-28,41871460,-2368
32-29,41875366,-10936
32-30,41879272,-15466
32-31,41883178,-14199
32-32,41887084,-6760
32-1,41890996,2350
32-2,41894902,7004
32-3,41898808,4341
32-4,41902714,-3564
32-5,41906620,-9686
32-6,41910526,-8810
32-7,41914432,-1153
32-8,41918338,8504
32-9,41922244,13421
32-10,41926150,10551
32-11,41930056,1971
32-12,41933962,-6803
32-13,41937868,-10017
32-14,41941774,-6031
32-15,41945680,2954
32-16,41949586,11536
32-17,41953492,13770
32-18,41957398,8448
32-19,41961304,-957
32-20,41965210,-8485
32-21,41969116,-9359
32-22,41973022,-3231
32-23,41976928,5937
32-24,41980834,11768
32-25,41984740,11510
32-26,41988646,7537
32-27,41992552,3282
32-28,41996458,1320
32-29,42000364,1709
32-30,42004270,4340
32-31,42008176,8644
32-32,42012082,11039
32-1,42015994,9062
32-2,42019900,2593
32-3,42023806,-6270
32-4,42027712,-13556
32-5,42031618,-17170
32-6,42035524,-15757
32-7,42039430,-9952
32-8,42043336,-4281
32-9,42047242,-2066
32-10,42051148,-3592
32-11,42055054,-5975
32-12,42058960,-5097
32-13,42062866,106
32-14,42066772,7557
32-15,42070678,12591
32-16,42074584,11540
32-17,42078490,4850
32-18,42082396,-4180
32-19,42086302,-10435
32-20,42090208,-10145
32-21,42094114,-3097
32-22,42098020,6762
32-23,42101926,12442
32-24,42105832,10505
32-25,42109738,2985
32-26,42113644,-6182
32-27,42117550,-12213
32-28,42121456,-12375
32-29,42125362,-6289
32-30,42129268,3050
32-31,42133174,9260
32-32,42137080,8632
32-1,42140991,1257
32-2,42144897,-8586
32-3,42148803,-14300
32-4,42152709,-12020
32-5,42156615,-2646
32-6,42160521,7584
32-7,42164427,11409
32-8,42168333,6677
32-9,42172239,-2611
32-10,42176145,-9137
32-11,42180051,-8063
32-12,42183957,-485
32-13,42187863,8823
32-14,42191769,13804
32-15,42195675,11226
32-16,42199581,2880
32-17,42203487,-6193
32-18,42207393,-10328
32-19,42211299,-7343
32-20,42215205,1248
32-21,42219111,10301
32-22,42223017,13261
32-23,42226923,8736
32-24,42230829,-101
32-25,42234735,-8008
32-26,42238641,-11175
32-27,42242547,-9262
32-28,42246453,-3195
32-29,42250359,3251
32-30,42254265,6073
32-31,42258171,3946
32-32,42262077,-2843
32-1,42265989,-10526
32-2,42269895,-13710
32-3,42273801,-9414
32-4,42277707,952
32-5,42281613,10053
32-6,42285519,11158
32-7,42289425,4238
32-8,42293331,-5483
32-9,42297237,-10599
32-10,42301143,-7713
32-11,42305049,975
32-12,42308955,10121
32-13,42312861,13559
32-14,42316767,9210
32-15,42320673,-20
32-16,42324579,-8239
32-17,42328485,-10324
32-18,42332391,-5364
32-19,42336297,4015
32-20,42340203,11867
32-21,42344109,12676
32-22,42348015,6050
32-23,42351921,-3514
32-24,42355827,-9681
32-25,42359733,-8945
32-26,42363639,-2657
32-27,42367545,4841
32-28,42371451,8215
32-29,42375357,5900
32-30,42379263,126
32-31,42383169,-6984
32-32,42387075,-12524
32-1,42390987,-13922
32-2,42394893,-8846
32-3,42398799,1202
32-4,42402705,9086
32-5,42406611,9220
32-6,42410517,1948
32-7,42414423,-6575
32-8,42418329,-9412
32-9,42422235,-4594
32-10,42426141,4599
32-11,42430047,12135
32-12,42433953,13075
32-13,42437859,6949
32-14,42441765,-2654
32-15,42445671,-9873
32-16,42449577,-10413
32-17,42453483,-4022
32-18,42457389,5948
32-19,42461295,12742
32-20,42465201,11557
32-21,42469107,3697
32-22,42473013,-5653
32-23,42476919,-9746
32-24,42480825,-6102
32-25,42484731,2308
32-26,42488637,10024
32-27,42492543,11443
32-28,42496449,6509
32-29,42500355,-1501
32-30,42504261,-9397
32-31,42508167,-13976
32-32,42512073,-12981
32-1,42515984,-5611
32-2,42519890,4586
32-3,42523796,10416
32-4,42527702,7784
32-5,42531608,-818
32-6,42535514,-8406
32-7,42539420,-9049
32-8,42543326,-2571
32-9,42547232,6706
32-10,42551138,12708
32-11,42555044,11527
32-12,42558950,3978
32-13,42562856,-5524
32-14,42566762,-11056
32-15,42570668,-9436
32-16,42574574,-1418
32-17,42578480,8436
32-18,42582386,13316
32-19,42586292,10133
32-20,42590198,1199
32-21,42594104,-7653
32-22,42598010,-10789
32-23,42601916,-6465
32-24,42605822,2938
32-25,42609728,11144
32-26,42613634,12460
32-27,42617540,6612
32-28,42621446,-3141
32-29,42625352,-11513
32-30,42629258,-14234
32-31,42633164,-10059
32-32,42637070,-463
32-1,42640982,8348
32-2,42644888,10653
32-3,42648794,5197
32-4,42652700,-4787
32-5,42656606,-12009
32-6,42660512,-11637
32-7,42664418,-3970
32-8,42668324,6608
32-9,42672230,12960
32-10,42676136,11027
32-11,42680042,2505
32-12,42683948,-6766
32-13,42687854,-10354
32-14,42691760,-6452
32-15,42695666,2525
32-16,42699572,11175
32-17,42703478,13429
32-18,42707384,8050
32-19,42711290,-1458
32-20,42715196,-9019
32-21,42719102,-10017
32-22,42723008,-4261
32-23,42726914,5201
32-24,42730820,12020
32-25,42734726,11934
32-26,42738632,5558
32-27,42742538,-4169
32-28,42746444,-11838
32-29,42750350,-13351
32-30,42754256,-7482
32-31,42758162,3039
32-32,42762068,10768
32-1,42765979,10830
32-2,42769885,3564
32-3,42773791,-7024
32-4,42777697,-14138
32-5,42781603,-13729
32-6,42785509,-6025
32-7,42789415,4761
32-8,42793321,10894
32-9,42797227,8346
32-10,42801133,-328
32-11,42805039,-8338
32-12,42808945,-9480
32-13,42812851,-3424
32-14,42816757,5841
32-15,42820663,12491
32-16,42824569,12105
32-17,42828475,5124
32-18,42832381,-4194
32-19,42836287,-10050
32-20,42840193,-9046
32-21,42844099,-1727
32-22,42848005,7792
32-23,42851911,12785
32-24,42855817,10249
32-25,42859723,2481
32-26,42863629,-6611
32-27,42867535,-12540
32-28,42871441,-12668
32-29,42875347,-6442
32-30,42879253,3195
32-31,42883159,9334
32-32,42887065,7747
32-1,42890977,58
32-2,42894883,-7641
32-3,42898789,-9219
32-4,42902695,-3474
32-5,42906601,5768
32-6,42910507,12190
32-7,42914413,11959
32-8,42918319,6133
32-9,42922225,-2601
32-10,42926131,-11140
32-11,42930037,-16184
32-12,42933943,-14813
32-13,42937849,-6630
32-14,42941755,2961
32-15,42945661,7112
32-16,42949567,3514
32-17,42953473,-4303
32-18,42957379,-9125
32-19,42961285,-6667
32-20,42965191,1679
32-21,42969097,10288
32-22,42973003,12861
32-23,42976909,8233
32-24,42980815,-381
32-25,42984721,-7863
32-26,42988627,-10399
32-27,42992533,-7635
32-28,42996439,-928
32-29,43000345,5597
32-30,43004251,7906
32-31,43008157,4995
32-32,43012063,-2425
32-1,43015975,-10495
32-2,43019881,-13935
32-3,43023787,-9813
32-4,43027693,498
32-5,43031599,9658
32-6,43035505,10899
32-7,43039411,4236
32-8,43043317,-5069
32-9,43047223,-9702
32-10,43051129,-6473
32-11,43055035,2160
32-12,43058941,10883
32-13,43062847,13862
32-14,43066753,9297
32-15,43070659,93
32-16,43074565,-8099
32-17,43078471,-10314
32-18,43082377,-5443
32-19,43086283,4068
32-20,43090189,12232
32-21,43094095,13386
32-22,43098001,6931
32-23,43101907,-2703
32-24,43105813,-9123
32-25,43109719,-8692
32-26,43113625,-2662
32-27,43117531,4686
32-28,43121437,8021
32-29,43125343,5667
32-30,43129249,-322
32-31,43133155,-7590
32-32,43137061,-12690
32-1,43140972,-13041
32-2,43144878,-6906
32-3,43148784,3479
32-4,43152690,10744
32-5,43156596,9725
32-6,43160502,1551
32-7,43164408,-7166
32-8,43168314,-9651
32-9,43172220,-4486
32-10,43176126,4825
32-11,43180032,12375
32-12,43183938,13267
32-13,43187844,7216
32-14,43191750,-2263
32-15,43195656,-9578
32-16,43199562,-10552
32-17,43203468,-4659
32-18,43207374,5146
32-19,43211280,12207
32-20,43215186,11533
32-21,43219092,3943
32-22,43222998,-5695
32-23,43226904,-10459
32-24,43230810,-7355
32-25,43234716,939
32-26,43238622,8910
32-27,43242528,10687
32-28,43246434,5937
32-29,43250340,-2120
32-30,43254246,-9942
32-31,43258152,-13968
32-32,43262058,-12211
32-1,43265970,-4332
32-2,43269876,5919
32-3,43273782,11340
32-4,43277688,8041
32-5,43281594,-1031
32-6,43285500,-8639
32-7,43289406,-8970
32-8,43293312,-2167
32-9,43297218,7317
32-10,43301124,13354
32-11,43305030,11957
32-12,43308936,4261
32-13,43312842,-4989
32-14,43316748,-9965
32-15,43320654,-7962
32-16,43324560,-69
32-17,43328466,9171
32-18,43332372,13420
32-19,43336278,10106
32-20,43340184,1324
32-21,43344090,-7629
32-22,43347996,-11337
32-23,43351902,-7652
32-24,43355808,1668
32-25,43359714,10360
32-26,43363620,12251
32-27,43367526,6705
32-28,43371432,-3098
32-29,43375338,-11736
32-30,43379244,-14670
32-31,43383150,-10604
32-32,43387056,-971
32-1,43390968,8119
32-2,43394874,10788
32-3,43398780,5567
32-4,43402686,-4418
32-5,43406592,-11865
32-6,43410498,-11765
32-7,43414404,-4261
32-8,43418310,6252
32-9,43422216,12462
32-10,43426122,10242
32-11,43430028,1688
32-12,43433934,-7081
32-13,43437840,-9821
32-14,43441746,-5321
32-15,43445652,3482
32-16,43449558,11369
32-17,43453464,13090
32-18,43457370,7802
32-19,43461276,-1481
32-20,43465182,-9279
32-21,43469088,-10993
32-22,43472994,-5656
32-23,43476900,4138
32-24,43480806,11676
32-25,43484712,12085
32-26,43488618,5841
32-27,43492524,-3963
32-28,43496430,-11840
32-29,43500336,-13646
32-30,43504242,-8269
32-31,43508148,1852
32-32,43512054,9683
32-1,43515965,10304
32-2,43519871,3693
32-3,43523777,-6584
32-4,43527683,-13924
32-5,43531589,-13951
32-6,43535495,-6505
32-7,43539401,4280
32-8,43543307,10720
32-9,43547213,8611
32-10,43551119,212
32-11,43555025,-7767
32-12,43558931,-9040
32-13,43562837,-3118
32-14,43566743,6011
32-15,43570649,12505
32-16,43574555,12239
32-17,43578461,5544
32-18,43582367,-4008
32-19,43586273,-10838
32-20,43590179,-11057
32-21,43594085,-4335
32-22,43597991,5748
32-23,43601897,12037
32-24,43605803,10627
32-25,43609709,3215
32-26,43613615,-6060
32-27,43617521,-11986
32-28,43621427,-11514
32-29,43625333,-4599
32-30,43629239,4290
32-31,43633145,8722
32-32,43637051,7517
32-1,43641024,3836
32-2,43644930,1862
32-3,43648836,3339
32-4,43652742,6552
32-5,43656648,9760
32-6,43660554,11145
32-7,43664460,9418
32-8,43668366,4856
32-9,43672272,-2552
32-10,43676178,-10806
32-11,43680084,-16493
32-12,43683990,-17069
32-13,43687896,-11555
32-14,43691802,-3952
32-15,43695708,382
32-16,43699614,-264
32-17,43703520,-3822
32-18,43707426,-5226
32-19,43711332,-1705
32-20,43715238,5359
32-21,43719144,11818
32-22,43723050,12778
32-23,43726956,7797
32-24,43730862,-398
32-25,43734768,-8028
32-26,43738674,-11642
32-27,43742580,-9939
32-28,43746486,-3575
32-29,43750392,3428
32-30,43754298,6727
32-31,43758204,4753
32-32,43762110,-2172
32-1,43765961,-10244
32-2,43769867,-13927
32-3,43773773,-10128
32-4,43777679,50
32-5,43781585,9398
32-6,43785491,10950
32-7,43789397,4564
32-8,43793303,-4639
32-9,43797209,-9357
32-10,43801115,-6325
32-11,43805021,2048
32-12,43808927,10553
32-13,43812833,13451
32-14,43816739,8931
32-15,43820645,-171
32-16,43824551,-8292
32-17,43828457,-10527
32-18,43832363,-5784
32-19,43836269,3506
32-20,43840175,11497
32-21,43844081,12599
32-22,43847987,6196
32-23,43851893,-3310
32-24,43855799,-9643
32-25,43859705,-9189
32-26,43863611,-3141
32-27,43867517,4292
32-28,43871423,7803
32-29,43875329,5628
32-30,43879235,-212
32-31,43883141,-7417
32-32,43887047,-12611
32-1,43890958,-13206
32-2,43894864,-7292
32-3,43898770,3105
32-4,43902676,10570
32-5,43906582,9765
32-6,43910488,1669
32-7,43914394,-7160
32-8,43918300,-9831
32-9,43922206,-4791
32-10,43926112,4486
32-11,43930018,12137
32-12,43933924,13074
32-13,43937830,6870
32-14,43941736,-2607
32-15,43945642,-9520
32-16,43949548,-9798
32-17,43953454,-3375
32-18,43957360,6313
32-19,43961266,12744
32-20,43965172,11497
32-21,43969078,3672
32-22,43972984,-6047
32-23,43976890,-11073
32-24,43980796,-8331
32-25,43984702,1
32-26,43988608,8497
32-27,43992514,10863
32-28,43996420,6366
32-29,44000326,-1816
32-30,44004232,-9917
32-31,44008138,-14133
32-32,44012044,-12504
32-1,44015956,-4777
32-2,44019862,5351
32-3,44023768,10770
32-4,44027674,7576
32-5,44031580,-1439
32-6,44035486,-9090
32-7,44039392,-9511
32-8,44043298,-2746
32-9,44047204,6852
32-10,44051110,13109
32-11,44055016,11908
32-12,44058922,4271
32-13,44062828,-5158
32-14,44066734,-10492
32-15,44070640,-8820
32-16,44074546,-1085
32-17,44078452,8301
32-18,44082358,12802
32-19,44086264,9533
32-20,44090170,798
32-21,44094076,-7859
32-22,44097982,-11012
32-23,44101888,-6816
32-24,44105794,2495
32-25,44109700,10691
32-26,44113606,12024
32-27,44117512,6280
32-28,44121418,-3314
32-29,44125324,-11846
32-30,44129230,-15157
32-31,44133136,-11708
32-32,44137042,-2460
32-1,44140953,6711
32-2,44144859,9803
32-3,44148765,5035
32-4,44152671,-4684
32-5,44156577,-12060
32-6,44160483,-11944
32-7,44164389,-4399
32-8,44168295,6157
32-9,44172201,12487
32-10,44176107,10458
32-11,44180013,2008
32-12,44183919,-6848
32-13,44187825,-9822
32-14,44191731,-5474
32-15,44195637,3391
32-16,44199543,11466
32-17,44203449,13164
32-18,44207355,7563
32-19,44211261,-1864
32-20,44215167,-9307
32-21,44219073,-10343
32-22,44222979,-4411
32-23,44226885,5322
32-24,44230791,11933
32-25,44234697,11225
32-26,44238603,4754
32-27,44242509,-3013
32-28,44246415,-6958
32-29,44250321,-5398
32-30,44254227,528
32-31,44258133,7955
32-32,44262039,11838
32-1,44266073,9423
32-2,44269979,1590
32-3,44273885,-7785
32-4,44277791,-12605
32-5,44281697,-9941
32-6,44285603,-1162
32-7,44289509,8318
32-8,44293415,11791
32-9,44297321,7945
32-10,44301227,-478
32-11,44305133,-9529
32-12,44309039,-15828
32-13,44312945,-17349
32-14,44316851,-12471
32-15,44320757,-3888
32-16,44324663,2124
32-17,44328569,1997
32-18,44332475,-3005
32-19,44336381,-7243
32-20,44340287,-5731
32-21,44344193,1374
32-22,44348099,9693
32-23,44352005,13201
32-24,44355911,10002
32-25,44359817,2643
32-26,44363723,-5964
32-27,44367629,-12301
32-28,44371535,-13321
32-29,44375441,-7770
32-30,44379347,1521
32-31,44383253,8156
32-32,44387159,8093
32-1,44390949,1107
32-2,44394855,-8726
32-3,44398761,-14800
