32-1,319266143,17
32-2,319270049,15
32-3,319273955,-20
32-4,319277861,-42
32-5,319281767,-17
32-6,319285673,19
32-7,319289579,19
32-8,319293485,4
32-9,319297391,16
32-10,319301297,45
32-11,319305203,40
32-12,319309109,8
32-13,319313015,-6
32-14,319316921,6
32-15,319320827,9
32-16,319324733,-10
32-17,319328639,-15
32-18,319332545,5
32-19,319336451,14
32-20,319340357,-15
32-21,319344263,-40
32-22,319348169,-27
32-23,319352075,7
32-24,319355981,17
32-25,319359887,13
32-26,319363793,26
32-27,319367699,40
32-28,319371605,18
32-29,319375511,-25
32-30,319379417,-42
32-31,319383323,-29
32-32,319387229,-28
32-1,319391141,-47
32-2,319395047,-42
32-3,319398953,4
32-4,319402859,44
32-5,319406765,44
32-6,319410671,34
32-7,319414577,45
32-8,319418483,58
32-9,319422389,37
32-10,319426295,-1
32-11,319430201,-9
32-12,319434107,8
32-13,319438013,2
32-14,319441919,-34
32-15,319445825,-51
32-16,319449731,-36
32-17,319453637,-23
32-18,319457543,-37
32-19,319461449,-47
32-20,319465355,-34
32-21,319469261,-30
32-22,319473167,-65
32-23,319477073,-103
32-24,319480979,-103
32-25,319484885,-81
32-26,319488791,-76
32-27,319492697,-77
32-28,319496603,-55
32-29,319500509,-24
32-30,319504415,-35
32-31,319508321,-78
32-32,319512227,-102
32-1,319516138,-86
32-2,319520044,-71
32-3,319523950,-87
32-4,319527856,-105
32-5,319531762,-98
32-6,319535668,-87
32-7,319539574,-102
32-8,319543480,-119
32-9,319547386,-106
32-10,319551292,-81
32-11,319555198,-84
32-12,319559104,-102
32-13,319563010,-94
32-14,319566916,-64
32-15,319570822,-55
32-16,319574728,-72
32-17,319578634,-74
32-18,319582540,-47
32-19,319586446,-33
32-20,319590352,-61
32-21,319594258,-89
32-22,319598164,-81
32-23,319602070,-62
32-24,319605976,-73
32-25,319609882,-100
32-26,319613788,-99
32-27,319617694,-76
32-28,319621600,-72
32-29,319625506,-83
32-30,319629412,-73
32-31,319633318,-39
32-32,319637224,-22
32-1,319641136,-37
32-2,319645042,-50
32-3,319648948,-37
32-4,319652854,-27
32-5,319656760,-39
32-6,319660666,-45
32-7,319664572,-23
32-8,319668478,6
32-9,319672384,4
32-10,319676290,-4
32-11,319680196,13
32-12,319684102,39
32-13,319688008,25
32-14,319691914,-21
32-15,319695820,-37
32-16,319699726,-10
32-17,319703632,10
32-18,319707538,-7
32-19,319711444,-30
32-20,319715350,-23
32-21,319719256,-9
32-22,319723162,-18
32-23,319727068,-26
32-24,319730974,-10
32-25,319734880,2
32-26,319738786,-17
32-27,319742692,-42
32-28,319746598,-28
32-29,319750504,14
32-30,319754410,27
32-31,319758316,8
32-32,319762222,5
32-1,319766286,28
32-2,319770192,35
32-3,319774098,0
32-4,319778004,-34
32-5,319781910,-24
32-6,319785816,5
32-7,319789722,2
32-8,319793628,-18
32-9,319797534,-18
32-10,319801440,0
32-11,319805346,-3
32-12,319809252,-24
32-13,319813158,-27
32-14,319817064,-20
32-15,319820970,-31
32-16,319824876,-58
32-17,319828782,-56
32-18,319832688,-21
32-19,319836594,3
32-20,319840500,-13
32-21,319844406,-31
32-22,319848312,-20
32-23,319852218,-8
32-24,319856124,-32
32-25,319860030,-64
32-26,319863936,-55
32-27,319867842,-21
32-28,319871748,-17
32-29,319875654,-40
32-30,319879560,-45
32-31,319883466,-26
32-32,319887372,-22
32-1,319891131,-47
32-2,319895037,-61
32-3,319898943,-46
32-4,319902849,-40
32-5,319906755,-67
32-6,319910661,-92
32-7,319914567,-76
32-8,319918473,-40
32-9,319922379,-38
32-10,319926285,-59
32-11,319930191,-66
32-12,319934097,-48
32-13,319938003,-38
32-14,319941909,-38
32-15,319945815,-14
32-16,319949721,29
32-17,319953627,48
32-18,319957533,33
32-19,319961439,26
32-20,319965345,51
32-21,319969251,71
32-22,319973157,50
32-23,319977063,18
32-24,319980969,10
32-25,319984875,12
32-26,319988781,-11
32-27,319992687,-39
32-28,319996593,-37
32-29,320000499,-14
32-30,320004405,-15
32-31,320008311,-43
32-32,320012217,-53
32-1,320016159,-30
32-2,320020065,-20
32-3,320023971,-45
32-4,320027877,-65
32-5,320031783,-54
32-6,320035689,-44
32-7,320039595,-71
32-8,320043501,-106
32-9,320047407,-102
32-10,320051313,-77
32-11,320055219,-74
32-12,320059125,-83
32-13,320063031,-69
32-14,320066937,-35
32-15,320070843,-26
32-16,320074749,-48
32-17,320078655,-59
32-18,320082561,-37
32-19,320086467,-23
32-20,320090373,-42
32-21,320094279,-64
32-22,320098185,-59
32-23,320102091,-53
32-24,320105997,-73
32-25,320109903,-96
32-26,320113809,-79
32-27,320117715,-41
32-28,320121621,-27
32-29,320125527,-29
32-30,320129433,-13
32-31,320133339,19
32-32,320137245,23
32-1,320141126,-10
32-2,320145032,-30
32-3,320148938,-17
32-4,320152844,-10
32-5,320156750,-39
32-6,320160656,-68
32-7,320164562,-56
32-8,320168468,-22
32-9,320172374,-11
32-10,320176280,-13
32-11,320180186,5
32-12,320184092,34
32-13,320187998,30
32-14,320191904,0
32-15,320195810,-9
32-16,320199716,5
32-17,320203622,4
32-18,320207528,-24
32-19,320211434,-34
32-20,320215340,1
32-21,320219246,41
32-22,320223152,43
32-23,320227058,31
32-24,320230964,36
32-25,320234870,39
32-26,320238776,13
32-27,320242682,-20
32-28,320246588,-15
32-29,320250494,15
32-30,320254400,12
32-31,320258306,-26
32-32,320262212,-42
32-1,320266124,-15
32-2,320270030,13
32-3,320273936,10
32-4,320277842,6
32-5,320281748,36
32-6,320285654,68
32-7,320289560,58
32-8,320293466,28
32-9,320297372,20
32-10,320301278,38
32-11,320305184,40
32-12,320309090,24
32-13,320312996,17
32-14,320316902,21
32-15,320320808,7
32-16,320324714,-23
32-17,320328620,-35
32-18,320332526,-18
32-19,320336432,-10
32-20,320340338,-28
32-21,320344244,-34
32-22,320348150,-11
32-23,320352056,11
32-24,320355962,-4
32-25,320359868,-27
32-26,320363774,-17
32-27,320367680,12
32-28,320371586,9
32-29,320375492,-26
32-30,320379398,-45
32-31,320383304,-39
32-32,320387210,-43
32-1,320391274,-73
32-2,320395180,-85
32-3,320399086,-61
32-4,320402992,-35
32-5,320406898,-32
32-6,320410804,-32
32-7,320414710,-14
32-8,320418616,-1
32-9,320422522,-23
32-10,320426428,-52
32-11,320430334,-50
32-12,320434240,-27
32-13,320438146,-30
32-14,320442052,-53
32-15,320445958,-55
32-16,320449864,-29
32-17,320453770,-20
32-18,320457676,-44
32-19,320461582,-57
32-20,320465488,-37
32-21,320469394,-16
32-22,320473300,-25
32-23,320477206,-31
32-24,320481112,-8
32-25,320485018,9
32-26,320488924,-25
32-27,320492830,-82
32-28,320496736,-101
32-29,320500642,-79
32-30,320504548,-66
32-31,320508454,-72
32-32,320512360,-69
32-1,320516119,-47
32-2,320520025,-39
32-3,320523931,-62
32-4,320527837,-79
32-5,320531743,-64
32-6,320535649,-46
32-7,320539555,-59
32-8,320543461,-81
32-9,320547367,-74
32-10,320551273,-48
32-11,320555179,-48
32-12,320559085,-65
32-13,320562991,-60
32-14,320566897,-44
32-15,320570803,-61
32-16,320574709,-105
32-17,320578615,-125
32-18,320582521,-105
32-19,320586427,-84
32-20,320590333,-90
32-21,320594239,-91
32-22,320598145,-62
32-23,320602051,-34
32-24,320605957,-43
32-25,320609863,-61
32-26,320613769,-50
32-27,320617675,-22
32-28,320621581,-19
32-29,320625487,-39
32-30,320629393,-38
32-31,320633299,-14
32-32,320637205,-12
32-1,320641117,-44
32-2,320645023,-66
32-3,320648929,-57
32-4,320652835,-50
32-5,320656741,-67
32-6,320660647,-80
32-7,320664553,-65
32-8,320668459,-50
32-9,320672365,-69
32-10,320676271,-94
32-11,320680177,-76
32-12,320684083,-31
32-13,320687989,-13
32-14,320691895,-24
32-15,320695801,-23
32-16,320699707,0
32-17,320703613,8
32-18,320707519,-17
32-19,320711425,-38
32-20,320715331,-28
32-21,320719237,-14
32-22,320723143,-20
32-23,320727049,-21
32-24,320730955,0
32-25,320734861,16
32-26,320738767,-3
32-27,320742673,-29
32-28,320746579,-19
32-29,320750485,5
32-30,320754391,-9
32-31,320758297,-48
32-32,320762203,-56
32-1,320766145,-20
32-2,320770051,-1
32-3,320773957,-28
32-4,320777863,-56
32-5,320781769,-39
32-6,320785675,-5
32-7,320789581,-1
32-8,320793487,-14
32-9,320797393,-11
32-10,320801299,-5
32-11,320805205,-26
32-12,320809111,-63
32-13,320813017,-76
32-14,320816923,-56
32-15,320820829,-49
32-16,320824735,-64
32-17,320828641,-65
32-18,320832547,-43
32-19,320836453,-30
32-20,320840359,-46
32-21,320844265,-60
32-22,320848171,-47
32-23,320852077,-28
32-24,320855983,-31
32-25,320859889,-32
32-26,320863795,-11
32-27,320867701,8
32-28,320871607,-17
32-29,320875513,-61
32-30,320879419,-67
32-31,320883325,-31
32-32,320887231,-9
32-1,320891112,-16
32-2,320895018,-10
32-3,320898924,18
32-4,320902830,29
32-5,320906736,-2
32-6,320910642,-31
32-7,320914548,-18
32-8,320918454,13
32-9,320922360,13
32-10,320926266,-6
32-11,320930172,-7
32-12,320934078,1
32-13,320937984,-16
32-14,320941890,-53
32-15,320945796,-60
32-16,320949702,-27
32-17,320953608,-5
32-18,320957514,-10
32-19,320961420,-7
32-20,320965326,24
32-21,320969232,49
32-22,320973138,34
32-23,320977044,7
32-24,320980950,-3
32-25,320984856,-14
32-26,320988762,-51
32-27,320992668,-84
32-28,320996574,-70
32-29,321000480,-27
32-30,321004386,-21
32-31,321008292,-58
32-32,321012198,-87
32-1,321016110,-82
32-2,321020016,-74
32-3,321023922,-82
32-4,321027828,-78
32-5,321031734,-41
32-6,321035640,-11
32-7,321039546,-23
32-8,321043452,-43
32-9,321047358,-37
32-10,321051264,-19
32-11,321055170,-27
32-12,321059076,-47
32-13,321062982,-41
32-14,321066888,-17
32-15,321070794,-24
32-16,321074700,-61
32-17,321078606,-82
32-18,321082512,-70
32-19,321086418,-63
32-20,321090324,-83
32-21,321094230,-93
32-22,321098136,-65
32-23,321102042,-35
32-24,321105948,-41
32-25,321109854,-60
32-26,321113760,-52
32-27,321117666,-27
32-28,321121572,-23
32-29,321125478,-35
32-30,321129384,-24
32-31,321133290,-2
32-32,321137196,-14
32-1,321141107,-58
32-2,321145013,-80
32-3,321148919,-61
32-4,321152825,-48
32-5,321156731,-73
32-6,321160637,-101
32-7,321164543,-95
32-8,321168449,-74
32-9,321172355,-75
32-10,321176261,-83
32-11,321180167,-59
32-12,321184073,-17
32-13,321187979,-10
32-14,321191885,-37
32-15,321195791,-55
32-16,321199697,-44
32-17,321203603,-43
32-18,321207509,-69
32-19,321211415,-87
32-20,321215321,-74
32-21,321219227,-68
32-22,321223133,-91
32-23,321227039,-107
32-24,321230945,-88
32-25,321234851,-62
32-26,321238757,-67
32-27,321242663,-84
32-28,321246569,-73
32-29,321250475,-37
32-30,321254381,-18
32-31,321258287,-19
32-32,321262193,-10
32-1,321266105,13
32-2,321270011,19
32-3,321273917,0
32-4,321277823,-5
32-5,321281729,23
32-6,321285635,44
32-7,321289541,25
32-8,321293447,0
32-9,321297353,7
32-10,321301259,19
32-11,321305165,-3
32-12,321309071,-35
32-13,321312977,-34
32-14,321316883,-6
32-15,321320789,-4
32-16,321324695,-36
32-17,321328601,-55
32-18,321332507,-48
32-19,321336413,-51
32-20,321340319,-72
32-21,321344225,-72
32-22,321348131,-34
32-23,321352037,-3
32-24,321355943,-23
32-25,321359849,-55
32-26,321363755,-48
32-27,321367661,-18
32-28,321371567,-22
32-29,321375473,-58
32-30,321379379,-73
32-31,321383285,-51
32-32,321387191,-39
32-1,321391103,-57
32-2,321395009,-71
32-3,321398915,-62
32-4,321402821,-55
32-5,321406727,-73
32-6,321410633,-85
32-7,321414539,-62
32-8,321418445,-33
32-9,321422351,-40
32-10,321426257,-59
32-11,321430163,-57
32-12,321434069,-33
32-13,321437975,-30
32-14,321441881,-47
32-15,321445787,-44
32-16,321449693,-16
32-17,321453599,-2
32-18,321457505,-12
32-19,321461411,-8
32-20,321465317,23
32-21,321469223,47
32-22,321473129,33
32-23,321477035,15
32-24,321480941,27
32-25,321484847,42
32-26,321488753,31
32-27,321492659,20
32-28,321496565,36
32-29,321500471,61
32-30,321504377,47
32-31,321508283,1
32-32,321512189,-17
32-1,321516161,3
32-2,321520067,5
32-3,321523973,-32
32-4,321527879,-64
32-5,321531785,-56
32-6,321535691,-38
32-7,321539597,-50
32-8,321543503,-74
32-9,321547409,-74
32-10,321551315,-60
32-11,321555221,-63
32-12,321559127,-73
32-13,321563033,-59
32-14,321566939,-33
32-15,321570845,-39
32-16,321574751,-72
32-17,321578657,-78
32-18,321582563,-46
32-19,321586469,-29
32-20,321590375,-52
32-21,321594281,-72
32-22,321598187,-56
32-23,321602093,-35
32-24,321605999,-44
32-25,321609905,-65
32-26,321613811,-60
32-27,321617717,-38
32-28,321621623,-42
32-29,321625529,-65
32-30,321629435,-67
32-31,321633341,-44
32-32,321637247,-33
32-1,321641098,-46
32-2,321645004,-44
32-3,321648910,-14
32-4,321652816,4
32-5,321656722,-14
32-6,321660628,-32
32-7,321664534,-17
32-8,321668440,-1
32-9,321672346,-16
32-10,321676252,-34
32-11,321680158,-14
32-12,321684064,26
32-13,321687970,37
32-14,321691876,18
32-15,321695782,13
32-16,321699688,33
32-17,321703594,31
32-18,321707500,-4
32-19,321711406,-31
32-20,321715312,-17
32-21,321719218,10
32-22,321723124,10
32-23,321727030,8
32-24,321730936,24
32-25,321734842,33
32-26,321738748,10
32-27,321742654,-8
32-28,321746560,10
32-29,321750466,39
32-30,321754372,24
32-31,321758278,-29
32-32,321762184,-59
32-1,321766096,-45
32-2,321770002,-32
32-3,321773908,-46
32-4,321777814,-58
32-5,321781720,-45
32-6,321785626,-27
32-7,321789532,-41
32-8,321793438,-58
32-9,321797344,-45
32-10,321801250,-21
32-11,321805156,-26
32-12,321809062,-43
32-13,321812968,-34
32-14,321816874,-13
32-15,321820780,-26
32-16,321824686,-69
32-17,321828592,-82
32-18,321832498,-49
32-19,321836404,-17
32-20,321840310,-15
32-21,321844216,-12
32-22,321848122,5
32-23,321852028,9
32-24,321855934,-31
32-25,321859840,-76
32-26,321863746,-78
32-27,321867652,-48
32-28,321871558,-38
32-29,321875464,-51
32-30,321879370,-56
32-31,321883276,-42
32-32,321887182,-43
32-1,321891093,-59
32-2,321894999,-47
32-3,321898905,-7
32-4,321902811,10
32-5,321906717,-15
32-6,321910623,-37
32-7,321914529,-21
32-8,321918435,6
32-9,321922341,2
32-10,321926247,-15
32-11,321930153,-9
32-12,321934059,6
32-13,321937965,-1
32-14,321941871,-17
32-15,321945777,-4
32-16,321949683,34
32-17,321953589,40
32-18,321957495,4
32-19,321961401,-25
32-20,321965307,-18
32-21,321969213,-11
32-22,321973119,-30
32-23,321977025,-45
32-24,321980931,-28
32-25,321984837,-12
32-26,321988743,-34
32-27,321992649,-65
32-28,321996555,-62
32-29,322000461,-33
32-30,322004367,-31
32-31,322008273,-56
32-32,322012179,-62
32-1,322016091,-37
32-2,322019997,-20
32-3,322023903,-27
32-4,322027809,-22
32-5,322031715,10
32-6,322035621,22
32-7,322039527,-18
32-8,322043433,-63
32-9,322047339,-72
32-10,322051245,-59
32-11,322055151,-70
32-12,322059057,-95
32-13,322062963,-93
32-14,322066869,-73
32-15,322070775,-80
32-16,322074681,-111
32-17,322078587,-116
32-18,322082493,-81
32-19,322086399,-50
32-20,322090305,-52
32-21,322094211,-48
32-22,322098117,-11
32-23,322102023,24
32-24,322105929,20
32-25,322109835,-4
32-26,322113741,-1
32-27,322117647,22
32-28,322121553,11
32-29,322125459,-27
32-30,322129365,-49
32-31,322133271,-41
32-32,322137177,-37
32-1,322141088,-57
32-2,322144994,-68
32-3,322148900,-58
32-4,322152806,-58
32-5,322156712,-72
32-6,322160618,-74
32-7,322164524,-48
32-8,322168430,-22
32-9,322172336,-30
32-10,322176242,-46
32-11,322180148,-37
32-12,322184054,-17
32-13,322187960,-20
32-14,322191866,-34
32-15,322195772,-21
32-16,322199678,13
32-17,322203584,16
32-18,322207490,-12
32-19,322211396,-21
32-20,322215302,3
32-21,322219208,21
32-22,322223114,4
32-23,322227020,-19
32-24,322230926,-10
32-25,322234832,4
32-26,322238738,-9
32-27,322242644,-25
32-28,322246550,-17
32-29,322250456,-2
32-30,322254362,-25
32-31,322258268,-71
32-32,322262174,-85
32-1,322266178,-62
32-2,322270084,-54
32-3,322273990,-76
32-4,322277896,-82
32-5,322281802,-47
32-6,322285708,-8
32-7,322289614,-4
32-8,322293520,-7
32-9,322297426,13
32-10,322301332,39
32-11,322305238,31
32-12,322309144,5
32-13,322313050,-1
32-14,322316956,6
32-15,322320862,-14
32-16,322324768,-55
32-17,322328674,-67
32-18,322332580,-43
32-19,322336486,-30
32-20,322340392,-51
32-21,322344298,-65
32-22,322348204,-42
32-23,322352110,-17
32-24,322356016,-26
32-25,322359922,-41
32-26,322363828,-25
32-27,322367734,8
32-28,322371640,13
32-29,322375546,-2
32-30,322379452,7
32-31,322383358,38
32-32,322387264,50
32-1,322391084,36
32-2,322394990,34
32-3,322398896,54
32-4,322402802,58
32-5,322406708,30
32-6,322410614,10
32-7,322414520,28
32-8,322418426,51
32-9,322422332,36
32-10,322426238,11
32-11,322430144,19
32-12,322434050,46
32-13,322437956,42
32-14,322441862,5
32-15,322445768,-24
32-16,322449674,-35
32-17,322453580,-62
32-18,322457486,-110
32-19,322461392,-132
32-20,322465298,-113
32-21,322469204,-93
32-22,322473110,-103
32-23,322477016,-111
32-24,322480922,-82
32-25,322484828,-44
32-26,322488734,-37
32-27,322492640,-45
32-28,322496546,-41
32-29,322500452,-32
32-30,322504358,-56
32-31,322508264,-98
32-32,322512170,-106
32-1,322516081,-77
32-2,322519987,-61
32-3,322523893,-81
32-4,322527799,-97
32-5,322531705,-78
32-6,322535611,-53
32-7,322539517,-54
32-8,322543423,-64
32-9,322547329,-57
32-10,322551235,-49
32-11,322555141,-68
32-12,322559047,-85
32-13,322562953,-67
32-14,322566859,-35
32-15,322570765,-36
32-16,322574671,-62
32-17,322578577,-69
32-18,322582483,-48
32-19,322586389,-47
32-20,322590295,-76
32-21,322594201,-85
32-22,322598107,-52
32-23,322602013,-15
32-24,322605919,-18
32-25,322609825,-34
32-26,322613731,-20
32-27,322617637,10
32-28,322621543,7
32-29,322625449,-20
32-30,322629355,-28
32-31,322633261,-19
32-32,322637167,-33
32-1,322641079,-73
32-2,322644985,-93
32-3,322648891,-76
32-4,322652797,-61
32-5,322656703,-71
32-6,322660609,-80
32-7,322664515,-64
32-8,322668421,-46
32-9,322672327,-53
32-10,322676233,-58
32-11,322680139,-32
32-12,322684045,3
32-13,322687951,5
32-14,322691857,-10
32-15,322695763,2
32-16,322699669,37
32-17,322703575,43
32-18,322707481,11
32-19,322711387,-8
32-20,322715293,4
32-21,322719199,12
32-22,322723105,-10
32-23,322727011,-27
32-24,322730917,-18
32-25,322734823,-18
32-26,322738729,-55
32-27,322742635,-94
32-28,322746541,-89
32-29,322750447,-56
32-30,322754353,-51
32-31,322758259,-75
32-32,322762165,-77
32-1,322766077,-43
32-2,322769983,-23
32-3,322773889,-36
32-4,322777795,-40
32-5,322781701,-7
32-6,322785607,26
32-7,322789513,21
32-8,322793419,3
32-9,322797325,2
32-10,322801231,3
32-11,322805137,-24
32-12,322809043,-48
32-13,322812949,-35
32-14,322816855,-1
32-15,322820761,1
32-16,322824667,-30
32-17,322828573,-39
32-18,322832479,-15
32-19,322836385,-1
32-20,322840291,-16
32-21,322844197,-26
32-22,322848103,-4
32-23,322852009,21
32-24,322855915,4
32-25,322859821,-23
32-26,322863727,-15
32-27,322867633,13
32-28,322871539,17
32-29,322875445,2
32-30,322879351,-4
32-31,322883257,2
32-32,322887163,-15
32-1,322891074,-52
32-2,322894980,-60
32-3,322898886,-33
32-4,322902792,-16
32-5,322906698,-30
32-6,322910604,-43
32-7,322914510,-22
32-8,322918416,5
32-9,322922322,0
32-10,322926228,-17
32-11,322930134,-11
32-12,322934040,11
32-13,322937946,18
32-14,322941852,15
32-15,322945758,33
32-16,322949664,57
32-17,322953570,46
32-18,322957476,-2
32-19,322961382,-27
32-20,322965288,-10
32-21,322969194,5
32-22,322973100,-17
32-23,322977006,-41
32-24,322980912,-36
32-25,322984818,-24
32-26,322988724,-37
32-27,322992630,-54
32-28,322996536,-42
32-29,323000442,-17
32-30,323004348,-24
32-31,323008254,-54
32-32,323012160,-62
32-1,323016194,-41
32-2,323020100,-32
32-3,323024006,-49
32-4,323027912,-54
32-5,323031818,-31
32-6,323035724,-16
32-7,323039630,-41
32-8,323043536,-70
32-9,323047442,-65
32-10,323051348,-47
32-11,323055254,-53
32-12,323059160,-66
32-13,323063066,-52
32-14,323066972,-19
32-15,323070878,-13
32-16,323074784,-30
32-17,323078690,-25
32-18,323082596,8
32-19,323086502,25
32-20,323090408,8
32-21,323094314,-3
32-22,323098220,13
32-23,323102126,21
32-24,323106032,-12
32-25,323109938,-50
32-26,323113844,-47
32-27,323117750,-19
32-28,323121656,-19
32-29,323125562,-38
32-30,323129468,-39
32-31,323133374,-20
32-32,323137280,-17
32-1,323141070,-32
32-2,323144976,-27
32-3,323148882,12
32-4,323152788,38
32-5,323156694,23
32-6,323160600,-5
32-7,323164506,-15
32-8,323168412,-23
32-9,323172318,-49
32-10,323176224,-67
32-11,323180130,-49
32-12,323184036,-18
32-13,323187942,-17
32-14,323191848,-27
32-15,323195754,-16
32-16,323199660,10
32-17,323203566,1
32-18,323207472,-37
32-19,323211378,-52
32-20,323215284,-28
32-21,323219190,-13
32-22,323223096,-34
32-23,323227002,-49
32-24,323230908,-27
32-25,323234814,4
32-26,323238720,2
32-27,323242626,-13
32-28,323246532,-3
32-29,323250438,20
32-30,323254344,10
32-31,323258250,-23
32-32,323262156,-29
32-1,323266067,-5
32-2,323269973,4
32-3,323273879,-23
32-4,323277785,-44
32-5,323281691,-34
32-6,323285597,-29
32-7,323289503,-55
32-8,323293409,-68
32-9,323297315,-40
32-10,323301221,-3
32-11,323305127,-11
32-12,323309033,-46
32-13,323312939,-52
32-14,323316845,-29
32-15,323320751,-26
32-16,323324657,-48
32-17,323328563,-59
32-18,323332469,-42
32-19,323336375,-27
32-20,323340281,-33
32-21,323344187,-29
32-22,323348093,2
32-23,323351999,23
32-24,323355905,0
32-25,323359811,-31
32-26,323363717,-31
32-27,323367623,-14
32-28,323371529,-19
32-29,323375435,-33
32-30,323379341,-26
32-31,323383247,-10
32-32,323387153,-29
32-1,323391065,-75
32-2,323394971,-93
32-3,323398877,-73
32-4,323402783,-62
32-5,323406689,-79
32-6,323410595,-83
32-7,323414501,-46
32-8,323418407,-9
32-9,323422313,-19
32-10,323426219,-50
32-11,323430125,-54
32-12,323434031,-34
32-13,323437937,-33
32-14,323441843,-46
32-15,323445749,-37
32-16,323449655,-10
32-17,323453561,-12
32-18,323457467,-43
32-19,323461373,-56
32-20,323465279,-35
32-21,323469185,-16
32-22,323473091,-29
32-23,323476997,-37
32-24,323480903,-15
32-25,323484809,12
32-26,323488715,6
32-27,323492621,-9
32-28,323496527,4
32-29,323500433,32
32-30,323504339,28
32-31,323508245,-5
32-32,323512151,-17
32-1,323516062,-5
32-2,323519968,-9
32-3,323523874,-40
32-4,323527780,-56
32-5,323531686,-38
32-6,323535592,-20
32-7,323539498,-32
32-8,323543404,-41
32-9,323547310,-17
32-10,323551216,11
32-11,323555122,2
32-12,323559028,-20
32-13,323562934,-13
32-14,323566840,17
32-15,323570746,17
32-16,323574652,-16
32-17,323578558,-40
32-18,323582464,-37
32-19,323586370,-39
32-20,323590276,-57
32-21,323594182,-58
32-22,323598088,-27
32-23,323601994,-5
32-24,323605900,-20
32-25,323609806,-39
32-26,323613712,-27
32-27,323617618,-6
32-28,323621524,-22
32-29,323625430,-60
32-30,323629336,-73
32-31,323633242,-60
32-32,323637148,-59
32-1,323641060,-74
32-2,323644966,-64
32-3,323648872,-22
32-4,323652778,2
32-5,323656684,-18
32-6,323660590,-42
32-7,323664496,-40
32-8,323668402,-31
32-9,323672308,-45
32-10,323676214,-60
32-11,323680120,-49
32-12,323684026,-29
32-13,323687932,-33
32-14,323691838,-48
32-15,323695744,-36
32-16,323699650,-2
32-17,323703556,5
32-18,323707462,-20
32-19,323711368,-30
32-20,323715274,-15
32-21,323719180,-8
32-22,323723086,-34
32-23,323726992,-56
32-24,323730898,-50
32-25,323734804,-49
32-26,323738710,-81
32-27,323742616,-109
32-28,323746522,-97
32-29,323750428,-66
32-30,323754334,-69
32-31,323758240,-100
32-32,323762146,-108
32-1,323766210,-80
32-2,323770116,-62
32-3,323774022,-76
32-4,323777928,-87
32-5,323781834,-71
32-6,323785740,-53
32-7,323789646,-53
32-8,323793552,-42
32-9,323797458,-5
32-10,323801364,23
32-11,323805270,4
32-12,323809176,-31
32-13,323813082,-36
32-14,323816988,-18
32-15,323820894,-29
32-16,323824800,-66
32-17,323828706,-78
32-18,323832612,-50
32-19,323836518,-20
32-20,323840424,-14
32-21,323844330,-7
32-22,323848236,14
32-23,323852142,21
32-24,323856048,-10
32-25,323859954,-34
32-26,323863860,-20
32-27,323867766,8
32-28,323871672,2
32-29,323875578,-25
32-30,323879484,-39
32-31,323883390,-33
32-32,323887296,-44
32-1,323891055,-65
32-2,323894961,-57
32-3,323898867,-21
32-4,323902773,-8
32-5,323906679,-36
32-6,323910585,-57
32-7,323914491,-43
32-8,323918397,-19
32-9,323922303,-22
32-10,323926209,-27
32-11,323930115,-6
32-12,323934021,19
32-13,323937927,6
32-14,323941833,-27
32-15,323945739,-34
32-16,323949645,-14
32-17,323953551,-13
32-18,323957457,-37
32-19,323961363,-41
32-20,323965269,-16
32-21,323969175,-3
32-22,323973081,-26
32-23,323976987,-49
32-24,323980893,-43
32-25,323984799,-43
32-26,323988705,-79
32-27,323992611,-119
32-28,323996517,-118
32-29,324000423,-92
32-30,324004329,-96
32-31,324008235,-120
32-32,324012141,-118
32-1,324016053,-88
32-2,324019959,-69
32-3,324023865,-71
32-4,324027771,-58
32-5,324031677,-16
32-6,324035583,4
32-7,324039489,-25
32-8,324043395,-58
32-9,324047301,-49
32-10,324051207,-14
32-11,324055113,-2
32-12,324059019,-5
32-13,324062925,11
32-14,324066831,38
32-15,324070737,36
32-16,324074643,14
32-17,324078549,15
32-18,324082455,37
32-19,324086361,36
32-20,324090267,-2
32-21,324094173,-26
32-22,324098079,-14
32-23,324101985,6
32-24,324105891,-2
32-25,324109797,-18
32-26,324113703,-10
32-27,324117609,5
32-28,324121515,-12
32-29,324125421,-36
32-30,324129327,-28
32-31,324133233,-1
32-32,324137139,-5
32-1,324141051,-46
32-2,324144957,-69
32-3,324148863,-51
32-4,324152769,-30
32-5,324156675,-29
32-6,324160581,-18
32-7,324164487,11
32-8,324168393,24
32-9,324172299,-7
32-10,324176205,-42
32-11,324180111,-38
32-12,324184017,-13
32-13,324187923,-13
32-14,324191829,-31
32-15,324195735,-27
32-16,324199641,1
32-17,324203547,10
32-18,324207453,-3
32-19,324211359,-2
32-20,324215265,21
32-21,324219171,28
32-22,324223077,-3
32-23,324226983,-37
32-24,324230889,-40
32-25,324234795,-33
32-26,324238701,-38
32-27,324242607,-33
32-28,324246513,-5
32-29,324250419,17
32-30,324254325,-11
32-31,324258231,-57
32-32,324262137,-58
32-1,324266048,-14
32-2,324269954,14
32-3,324273860,2
32-4,324277766,-14
32-5,324281672,-4
32-6,324285578,2
32-7,324289484,-16
32-8,324293390,-26
32-9,324297296,-10
32-10,324301202,-5
32-11,324305108,-44
32-12,324309014,-89
32-13,324312920,-90
32-14,324316826,-58
32-15,324320732,-44
32-16,324324638,-52
32-17,324328544,-40
32-18,324332450,-8
32-19,324336356,0
32-20,324340262,-27
32-21,324344168,-43
32-22,324348074,-25
32-23,324351980,-10
32-24,324355886,-34
32-25,324359792,-65
32-26,324363698,-59
32-27,324367604,-35
32-28,324371510,-37
32-29,324375416,-56
32-30,324379322,-51
32-31,324383228,-22
32-32,324387134,-7
32-1,324391046,-16
32-2,324394952,-17
32-3,324398858,-4
32-4,324402764,-16
32-5,324406670,-52
32-6,324410576,-67
32-7,324414482,-45
32-8,324418388,-26
32-9,324422294,-41
32-10,324426200,-57
32-11,324430106,-43
32-12,324434012,-22
32-13,324437918,-41
32-14,324441824,-76
32-15,324445730,-79
32-16,324449636,-50
32-17,324453542,-41
32-18,324457448,-62
32-19,324461354,-62
32-20,324465260,-30
32-21,324469166,-12
32-22,324473072,-35
32-23,324476978,-64
32-24,324480884,-64
32-25,324484790,-59
32-26,324488696,-73
32-27,324492602,-80
32-28,324496508,-53
32-29,324500414,-21
32-30,324504320,-36
32-31,324508226,-82
32-32,324512132,-98
32-1,324516196,-72
32-2,324520102,-50
32-3,324524008,-48
32-4,324527914,-37
32-5,324531820,-7
32-6,324535726,3
32-7,324539632,-33
32-8,324543538,-72
32-9,324547444,-68
32-10,324551350,-48
32-11,324555256,-51
32-12,324559162,-65
32-13,324563068,-54
32-14,324566974,-30
32-15,324570880,-33
32-16,324574786,-53
32-17,324578692,-45
32-18,324582598,-11
32-19,324586504,-6
32-20,324590410,-41
32-21,324594316,-68
32-22,324598222,-56
32-23,324602128,-32
32-24,324606034,-34
32-25,324609940,-43
32-26,324613846,-26
32-27,324617752,0
32-28,324621658,-3
32-29,324625564,-19
32-30,324629470,-13
32-31,324633376,8
32-32,324637282,3
32-1,324641102,-23
32-2,324645008,-31
32-3,324648914,-17
32-4,324652820,-25
32-5,324656726,-58
32-6,324660632,-73
32-7,324664538,-45
32-8,324668444,-10
32-9,324672350,-8
32-10,324676256,-15
32-11,324680162,4
32-12,324684068,27
32-13,324687974,11
32-14,324691880,-26
32-15,324695786,-37
32-16,324699692,-29
32-17,324703598,-46
32-18,324707504,-89
32-19,324711410,-112
32-20,324715316,-98
32-21,324719222,-85
32-22,324723128,-98
32-23,324727034,-104
32-24,324730940,-83
32-25,324734846,-68
32-26,324738752,-81
32-27,324742658,-91
32-28,324746564,-58
32-29,324750470,-14
32-30,324754376,-21
32-31,324758282,-68
32-32,324762188,-93
32-1,324766039,-76
32-2,324769945,-60
32-3,324773851,-70
32-4,324777757,-79
32-5,324781663,-63
32-6,324785569,-48
32-7,324789475,-53
32-8,324793381,-44
32-9,324797287,-8
32-10,324801193,15
32-11,324805099,-6
32-12,324809005,-39
32-13,324812911,-34
32-14,324816817,-6
32-15,324820723,-5
32-16,324824629,-25
32-17,324828535,-21
32-18,324832441,12
32-19,324836347,28
32-20,324840253,6
32-21,324844159,-6
32-22,324848065,22
32-23,324851971,55
32-24,324855877,58
32-25,324859783,49
32-26,324863689,60
32-27,324867595,78
32-28,324871501,67
32-29,324875407,45
32-30,324879313,45
32-31,324883219,55
32-32,324887125,42
32-1,324891036,15
32-2,324894942,20
32-3,324898848,55
32-4,324902754,65
32-5,324906660,35
32-6,324910566,17
32-7,324914472,36
32-8,324918378,57
32-9,324922284,45
32-10,324926190,28
32-11,324930096,43
32-12,324934002,68
32-13,324937908,55
32-14,324941814,20
32-15,324945720,4
32-16,324949626,8
32-17,324953532,-5
32-18,324957438,-40
32-19,324961344,-56
32-20,324965250,-38
32-21,324969156,-31
32-22,324973062,-56
32-23,324976968,-72
32-24,324980874,-53
32-25,324984780,-26
32-26,324988686,-27
32-27,324992592,-33
32-28,324996498,-21
32-29,325000404,-9
32-30,325004310,-32
32-31,325008216,-68
32-32,325012122,-71
32-1,325016034,-47
32-2,325019940,-41
32-3,325023846,-64
32-4,325027752,-71
32-5,325031658,-42
32-6,325035564,-25
32-7,325039470,-49
32-8,325043376,-72
32-9,325047282,-57
32-10,325051188,-28
32-11,325055094,-30
32-12,325059000,-45
32-13,325062906,-41
32-14,325066812,-28
32-15,325070718,-43
32-16,325074624,-72
32-17,325078530,-73
32-18,325082436,-50
32-19,325086342,-56
32-20,325090248,-101
32-21,325094154,-140
32-22,325098060,-138
32-23,325101966,-121
32-24,325105872,-120
32-25,325109778,-115
32-26,325113684,-83
32-27,325117590,-54
32-28,325121496,-61
32-29,325125402,-82
32-30,325129308,-74
32-31,325133214,-49
32-32,325137120,-52
32-1,325141032,-76
32-2,325144938,-69
32-3,325148844,-30
32-4,325152750,-12
32-5,325156656,-36
32-6,325160562,-60
32-7,325164468,-52
32-8,325168374,-42
32-9,325172280,-60
32-10,325176186,-76
32-11,325180092,-58
32-12,325183998,-29
32-13,325187904,-31
32-14,325191810,-51
32-15,325195716,-52
32-16,325199622,-38
32-17,325203528,-49
32-18,325207434,-78
32-19,325211340,-76
32-20,325215246,-34
32-21,325219152,-4
32-22,325223058,-13
32-23,325226964,-21
32-24,325230870,-1
32-25,325234776,15
32-26,325238682,-10
32-27,325242588,-41
32-28,325246494,-37
32-29,325250400,-14
32-30,325254306,-19
32-31,325258212,-44
32-32,325262118,-45
32-1,325266395,-21
32-2,325270301,-24
32-3,325274207,-60
32-4,325278113,-77
32-5,325282019,-45
32-6,325285925,-10
32-7,325289831,-9
32-8,325293737,-17
32-9,325297643,-2
32-10,325301549,18
32-11,325305455,5
32-12,325309361,-27
32-13,325313267,-46
32-14,325317173,-62
32-15,325321079,-99
32-16,325324985,-135
32-17,325328891,-128
32-18,325332797,-86
32-19,325336703,-66
32-20,325340609,-81
32-21,325344515,-82
32-22,325348421,-52
32-23,325352327,-33
32-24,325356233,-50
32-25,325360139,-67
32-26,325364045,-43
32-27,325367951,-5
32-28,325371857,-7
32-29,325375763,-35
32-30,325379669,-48
32-31,325383575,-45
32-32,325387481,-58
32-1,325391027,-87
32-2,325394933,-82
32-3,325398839,-43
32-4,325402745,-20
32-5,325406651,-28
32-6,325410557,-29
32-7,325414463,-3
32-8,325418369,15
32-9,325422275,-6
32-10,325426181,-34
32-11,325430087,-36
32-12,325433993,-26
32-13,325437899,-43
32-14,325441805,-64
32-15,325445711,-53
32-16,325449617,-17
32-17,325453523,-10
32-18,325457429,-30
32-19,325461335,-36
32-20,325465241,-18
32-21,325469147,-24
32-22,325473053,-65
32-23,325476959,-87
32-24,325480865,-55
32-25,325484771,-11
32-26,325488677,-9
32-27,325492583,-28
32-28,325496489,-26
32-29,325500395,-8
32-30,325504301,-11
32-31,325508207,-33
32-32,325512113,-35
32-1,325516025,-14
32-2,325519931,-10
32-3,325523837,-29
32-4,325527743,-32
32-5,325531649,-12
32-6,325535555,-11
32-7,325539461,-47
32-8,325543367,-73
32-9,325547273,-52
32-10,325551179,-14
32-11,325555085,-8
32-12,325558991,-25
32-13,325562897,-30
32-14,325566803,-27
32-15,325570709,-45
32-16,325574615,-77
32-17,325578521,-85
32-18,325582427,-65
32-19,325586333,-51
32-20,325590239,-55
32-21,325594145,-46
32-22,325598051,-16
32-23,325601957,-7
32-24,325605863,-32
32-25,325609769,-50
32-26,325613675,-27
32-27,325617581,9
32-28,325621487,8
32-29,325625393,-9
32-30,325629299,-10
32-31,325633205,0
32-32,325637111,-15
32-1,325641022,-42
32-2,325644928,-38
32-3,325648834,-2
32-4,325652740,18
32-5,325656646,2
32-6,325660552,-7
32-7,325664458,10
32-8,325668364,14
32-9,325672270,-24
32-10,325676176,-65
32-11,325680082,-62
32-12,325683988,-29
32-13,325687894,-16
32-14,325691800,-21
32-15,325695706,-9
32-16,325699612,14
32-17,325703518,14
32-18,325707424,-4
32-19,325711330,-8
32-20,325715236,9
32-21,325719142,9
32-22,325723048,-24
32-23,325726954,-42
32-24,325730860,-20
32-25,325734766,4
32-26,325738672,-5
32-27,325742578,-21
32-28,325746484,-10
32-29,325750390,11
32-30,325754296,0
32-31,325758202,-30
32-32,325762108,-29
32-1,325766020,3
32-2,325769926,19
32-3,325773832,9
32-4,325777738,1
32-5,325781644,9
32-6,325785550,-4
32-7,325789456,-49
32-8,325793362,-80
32-9,325797268,-70
32-10,325801174,-53
32-11,325805080,-69
32-12,325808986,-93
32-13,325812892,-82
32-14,325816798,-48
32-15,325820704,-37
32-16,325824610,-52
32-17,325828516,-57
32-18,325832422,-47
32-19,325836328,-54
32-20,325840234,-81
32-21,325844140,-88
32-22,325848046,-62
32-23,325851952,-49
32-24,325855858,-81
32-25,325859764,-117
32-26,325863670,-117
32-27,325867576,-98
32-28,325871482,-98
32-29,325875388,-105
32-30,325879294,-88
32-31,325883200,-55
32-32,325887106,-46
32-1,325891170,-57
32-2,325895076,-50
32-3,325898982,-26
32-4,325902888,-24
32-5,325906794,-50
32-6,325910700,-54
32-7,325914606,-19
32-8,325918512,12
32-9,325922418,5
32-10,325926324,-5
32-11,325930230,13
32-12,325934136,33
32-13,325938042,12
32-14,325941948,-26
32-15,325945854,-33
32-16,325949760,-11
32-17,325953666,-15
32-18,325957572,-50
32-19,325961478,-73
32-20,325965384,-60
32-21,325969290,-43
32-22,325973196,-47
32-23,325977102,-41
32-24,325981008,-10
32-25,325984914,9
32-26,325988820,-10
32-27,325992726,-28
32-28,325996632,-9
32-29,326000538,23
32-30,326004444,12
32-31,326008350,-33
32-32,326012256,-59
32-1,326016229,-52
32-2,326020135,-47
32-3,326024041,-50
32-4,326027947,-39
32-5,326031853,-10
32-6,326035759,-5
32-7,326039665,-35
32-8,326043571,-54
32-9,326047477,-35
32-10,326051383,-8
32-11,326055289,-20
32-12,326059195,-43
32-13,326063101,-28
32-14,326067007,8
32-15,326070913,12
32-16,326074819,-11
32-17,326078725,-22
32-18,326082631,-9
32-19,326086537,-6
32-20,326090443,-25
32-21,326094349,-29
32-22,326098255,-10
32-23,326102161,-6
32-24,326106067,-33
32-25,326109973,-54
32-26,326113879,-34
32-27,326117785,-1
32-28,326121691,-4
32-29,326125597,-29
32-30,326129503,-35
32-31,326133409,-31
32-32,326137315,-51
32-1,326141013,-85
32-2,326144919,-85
32-3,326148825,-46
32-4,326152731,-24
32-5,326156637,-34
32-6,326160543,-41
32-7,326164449,-20
32-8,326168355,-4
32-9,326172261,-17
32-10,326176167,-33
32-11,326180073,-17
32-12,326183979,9
32-13,326187885,0
32-14,326191791,-28
32-15,326195697,-32
32-16,326199603,-14
32-17,326203509,-21
32-18,326207415,-54
32-19,326211321,-68
32-20,326215227,-43
32-21,326219133,-16
32-22,326223039,-17
32-23,326226945,-19
32-24,326230851,-11
32-25,326234757,-12
32-26,326238663,-34
32-27,326242569,-41
32-28,326246475,-11
32-29,326250381,19
32-30,326254287,-1
32-31,326258193,-49
32-32,326262099,-68
32-1,326266010,-52
32-2,326269916,-45
32-3,326273822,-54
32-4,326277728,-46
32-5,326281634,-15
32-6,326285540,-7
32-7,326289446,-43
32-8,326293352,-74
32-9,326297258,-68
32-10,326301164,-51
32-11,326305070,-67
32-12,326308976,-90
32-13,326312882,-77
32-14,326316788,-36
32-15,326320694,-12
32-16,326324600,-11
32-17,326328506,-1
32-18,326332412,15
32-19,326336318,3
32-20,326340224,-32
32-21,326344130,-46
32-22,326348036,-26
32-23,326351942,-15
32-24,326355848,-42
32-25,326359754,-67
32-26,326363660,-54
32-27,326367566,-26
32-28,326371472,-32
32-29,326375378,-55
32-30,326379284,-51
32-31,326383190,-22
32-32,326387096,-9
32-1,326391008,-13
32-2,326394914,-5
32-3,326398820,11
32-4,326402726,2
32-5,326406632,-34
32-6,326410538,-51
32-7,326414444,-34
32-8,326418350,-20
32-9,326422256,-38
32-10,326426162,-57
32-11,326430068,-49
32-12,326433974,-32
32-13,326437880,-41
32-14,326441786,-57
32-15,326445692,-47
32-16,326449598,-27
32-17,326453504,-37
32-18,326457410,-62
32-19,326461316,-55
32-20,326465222,-21
32-21,326469128,-12
32-22,326473034,-43
32-23,326476940,-53
32-24,326480846,-13
32-25,326484752,28
32-26,326488658,25
32-27,326492564,1
32-28,326496470,8
32-29,326500376,27
32-30,326504282,14
32-31,326508188,-20
32-32,326512094,-27
32-1,326516158,-1
32-2,326520064,16
32-3,326523970,12
32-4,326527876,18
32-5,326531782,41
32-6,326535688,41
32-7,326539594,3
32-8,326543500,-21
32-9,326547406,-4
32-10,326551312,23
32-11,326555218,13
32-12,326559124,-14
32-13,326563030,-17
32-14,326566936,-5
32-15,326570842,-17
32-16,326574748,-40
32-17,326578654,-38
32-18,326582560,-10
32-19,326586466,0
32-20,326590372,-19
32-21,326594278,-26
32-22,326598184,-8
32-23,326602090,-6
32-24,326605996,-38
32-25,326609902,-62
32-26,326613808,-44
32-27,326617714,-16
32-28,326621620,-23
32-29,326625526,-39
32-30,326629432,-22
32-31,326633338,18
32-32,326637244,26
32-1,326641003,1
32-2,326644909,-11
32-3,326648815,4
32-4,326652721,7
32-5,326656627,-15
32-6,326660533,-24
32-7,326664439,-5
32-8,326668345,9
32-9,326672251,-16
32-10,326676157,-45
32-11,326680063,-47
32-12,326683969,-42
32-13,326687875,-61
32-14,326691781,-86
32-15,326695687,-76
32-16,326699593,-45
32-17,326703499,-45
32-18,326707405,-78
32-19,326711311,-92
32-20,326715217,-75
32-21,326719123,-67
32-22,326723029,-84
32-23,326726935,-91
32-24,326730841,-67
32-25,326734747,-49
32-26,326738653,-64
32-27,326742559,-78
32-28,326746465,-62
32-29,326750371,-39
32-30,326754277,-46
32-31,326758183,-61
32-32,326762089,-48
32-1,326766214,-20
32-2,326770120,-28
32-3,326774026,-68
32-4,326777932,-89
32-5,326781838,-73
32-6,326785744,-60
32-7,326789650,-75
32-8,326793556,-77
32-9,326797462,-42
32-10,326801368,-12
32-11,326805274,-24
32-12,326809180,-41
32-13,326813086,-23
32-14,326816992,16
32-15,326820898,22
32-16,326824804,1
32-17,326828710,-1
32-18,326832616,17
32-19,326836522,3
32-20,326840428,-47
32-21,326844334,-76
32-22,326848240,-56
32-23,326852146,-23
32-24,326856052,-20
32-25,326859958,-27
32-26,326863864,-15
32-27,326867770,-5
32-28,326871676,-18
32-29,326875582,-30
32-30,326879488,-9
32-31,326883394,24
32-32,326887300,18
32-1,326890998,-12
32-2,326894904,-18
32-3,326898810,10
32-4,326902716,25
32-5,326906622,11
32-6,326910528,7
32-7,326914434,31
32-8,326918340,48
32-9,326922246,25
32-10,326926152,-7
32-11,326930058,-17
32-12,326933964,-20
32-13,326937870,-50
32-14,326941776,-76
32-15,326945682,-61
32-16,326949588,-23
32-17,326953494,-14
32-18,326957400,-31
32-19,326961306,-26
32-20,326965212,9
32-21,326969118,25
32-22,326973024,2
32-23,326976930,-15
32-24,326980836,0
32-25,326984742,9
32-26,326988648,-16
32-27,326992554,-46
32-28,326996460,-40
32-29,327000366,-19
32-30,327004272,-31
32-31,327008178,-62
32-32,327012084,-67
32-1,327015996,-40
32-2,327019902,-29
32-3,327023808,-42
32-4,327027714,-44
32-5,327031620,-22
32-6,327035526,-12
32-7,327039432,-34
32-8,327043338,-47
32-9,327047244,-31
32-10,327051150,-16
32-11,327055056,-32
32-12,327058962,-47
32-13,327062868,-36
32-14,327066774,-18
32-15,327070680,-33
32-16,327074586,-57
32-17,327078492,-44
32-18,327082398,-8
32-19,327086304,-2
32-20,327090210,-35
32-21,327094116,-62
32-22,327098022,-56
32-23,327101928,-51
32-24,327105834,-70
32-25,327109740,-73
32-26,327113646,-31
32-27,327117552,13
32-28,327121458,13
32-29,327125364,-14
32-30,327129270,-19
32-31,327133176,-1
32-32,327137082,2
32-1,327140994,-4
32-2,327144900,14
32-3,327148806,43
32-4,327152712,32
32-5,327156618,-19
32-6,327160524,-53
32-7,327164430,-40
32-8,327168336,-18
32-9,327172242,-24
32-10,327176148,-32
32-11,327180054,-7
32-12,327183960,27
32-13,327187866,20
32-14,327191772,-16
32-15,327195678,-41
32-16,327199584,-45
32-17,327203490,-56
32-18,327207396,-70
32-19,327211302,-57
32-20,327215208,-27
32-21,327219114,-31
32-22,327223020,-68
32-23,327226926,-82
32-24,327230832,-52
32-25,327234738,-22
32-26,327238644,-28
32-27,327242550,-42
32-28,327246456,-23
32-29,327250362,4
32-30,327254268,-9
32-31,327258174,-43
32-32,327262080,-55
32-1,327265991,-47
32-2,327269897,-55
32-3,327273803,-81
32-4,327277709,-86
32-5,327281615,-61
32-6,327285521,-53
32-7,327289427,-79
32-8,327293333,-97
32-9,327297239,-82
32-10,327301145,-65
32-11,327305051,-79
32-12,327308957,-90
32-13,327312863,-60
32-14,327316769,-13
32-15,327320675,-2
32-16,327324581,-23
32-17,327328487,-27
32-18,327332393,-10
32-19,327336299,-15
32-20,327340205,-41
32-21,327344111,-47
32-22,327348017,-25
32-23,327351923,-15
32-24,327355829,-41
32-25,327359735,-60
32-26,327363641,-37
32-27,327367547,-4
32-28,327371453,-5
32-29,327375359,-27
32-30,327379265,-30
32-31,327383171,-17
32-32,327387077,-26
32-1,327390989,-48
32-2,327394895,-43
32-3,327398801,-12
32-4,327402707,2
32-5,327406613,-10
32-6,327410519,-11
32-7,327414425,12
32-8,327418331,23
32-9,327422237,1
32-10,327426143,-15
32-11,327430049,4
32-12,327433955,32
32-13,327437861,28
32-14,327441767,10
32-15,327445673,13
32-16,327449579,30
32-17,327453485,20
32-18,327457391,-11
32-19,327461297,-18
32-20,327465203,0
32-21,327469109,2
32-22,327473015,-21
32-23,327476921,-27
32-24,327480827,0
32-25,327484733,19
32-26,327488639,-2
32-27,327492545,-30
32-28,327496451,-30
32-29,327500357,-24
32-30,327504263,-44
32-31,327508169,-69
32-32,327512075,-55
32-1,327516170,-11
32-2,327520076,9
32-3,327523982,2
32-4,327527888,14
32-5,327531794,53
32-6,327535700,66
32-7,327539606,31
32-8,327543512,-10
32-9,327547418,-13
32-10,327551324,-5
32-11,327555230,-22
32-12,327559136,-38
32-13,327563042,-24
32-14,327566948,5
32-15,327570854,4
32-16,327574760,-22
32-17,327578666,-29
32-18,327582572,-19
32-19,327586478,-32
32-20,327590384,-71
32-21,327594290,-94
32-22,327598196,-86
32-23,327602102,-80
32-24,327606008,-100
32-25,327609914,-108
32-26,327613820,-69
32-27,327617726,-22
32-28,327621632,-17
32-29,327625538,-42
32-30,327629444,-62
32-31,327633350,-69
32-32,327637256,-87
32-1,327640984,-107
32-2,327644890,-93
32-3,327648796,-61
32-4,327652702,-56
32-5,327656608,-76
32-6,327660514,-79
32-7,327664420,-48
32-8,327668326,-25
32-9,327672232,-42
32-10,327676138,-59
32-11,327680044,-47
32-12,327683950,-24
32-13,327687856,-26
32-14,327691762,-34
32-15,327695668,-7
32-16,327699574,33
32-17,327703480,31
32-18,327707386,-7
32-19,327711292,-25
32-20,327715198,-13
32-21,327719104,-10
32-22,327723010,-37
32-23,327726916,-51
32-24,327730822,-28
32-25,327734728,-6
32-26,327738634,-16
32-27,327742540,-26
32-28,327746446,-13
32-29,327750352,4
32-30,327754258,-17
32-31,327758164,-55
32-32,327762070,-63
32-1,327765982,-43
32-2,327769888,-40
32-3,327773794,-54
32-4,327777700,-46
32-5,327781606,-9
32-6,327785512,7
32-7,327789418,-25
32-8,327793324,-61
32-9,327797230,-61
32-10,327801136,-50
32-11,327805042,-57
32-12,327808948,-64
32-13,327812854,-48
32-14,327816760,-25
32-15,327820666,-37
32-16,327824572,-63
32-17,327828478,-60
32-18,327832384,-38
32-19,327836290,-48
32-20,327840196,-90
32-21,327844102,-111
32-22,327848008,-92
32-23,327851914,-74
32-24,327855820,-83
32-25,327859726,-88
32-26,327863632,-61
32-27,327867538,-36
32-28,327871444,-45
32-29,327875350,-63
32-30,327879256,-56
32-31,327883162,-35
32-32,327887068,-37
32-1,327890980,-53
32-2,327894886,-42
32-3,327898792,-6
32-4,327902698,6
32-5,327906604,-14
32-6,327910510,-21
32-7,327914416,3
32-8,327918322,17
32-9,327922228,-5
32-10,327926134,-30
32-11,327930040,-21
32-12,327933946,-4
32-13,327937852,-16
32-14,327941758,-37
32-15,327945664,-27
32-16,327949570,3
32-17,327953476,5
32-18,327957382,-22
32-19,327961288,-33
32-20,327965194,-19
32-21,327969100,-15
32-22,327973006,-34
32-23,327976912,-33
32-24,327980818,-3
32-25,327984724,14
32-26,327988630,-13
32-27,327992536,-41
32-28,327996442,-30
32-29,328000348,-2
32-30,328004254,-8
32-31,328008160,-33
32-32,328012066,-35
32-1,328015977,-8
32-2,328019883,3
32-3,328023789,-11
32-4,328027695,-19
32-5,328031601,-8
32-6,328035507,-13
32-7,328039413,-44
32-8,328043319,-60
32-9,328047225,-42
32-10,328051131,-23
32-11,328055037,-42
32-12,328058943,-65
32-13,328062849,-56
32-14,328066755,-34
32-15,328070661,-37
32-16,328074567,-54
32-17,328078473,-47
32-18,328082379,-19
32-19,328086285,-17
32-20,328090191,-46
32-21,328094097,-61
32-22,328098003,-46
32-23,328101909,-33
32-24,328105815,-38
32-25,328109721,-35
32-26,328113627,-1
32-27,328117533,26
32-28,328121439,11
32-29,328125345,-16
32-30,328129251,-11
32-31,328133157,10
32-32,328137063,-1
32-1,328140975,-36
32-2,328144881,-56
32-3,328148787,-53
32-4,328152693,-63
32-5,328156599,-82
32-6,328160505,-70
32-7,328164411,-28
32-8,328168317,-5
32-9,328172223,-29
32-10,328176129,-57
32-11,328180035,-46
32-12,328183941,-17
32-13,328187847,-15
32-14,328191753,-22
32-15,328195659,-4
32-16,328199565,24
32-17,328203471,18
32-18,328207377,-12
32-19,328211283,-16
32-20,328215189,6
32-21,328219095,9
32-22,328223001,-22
32-23,328226907,-38
32-24,328230813,-19
32-25,328234719,-3
32-26,328238625,-20
32-27,328242531,-37
32-28,328246437,-20
32-29,328250343,6
32-30,328254249,-1
32-31,328258155,-20
32-32,328262061,-4
32-1,328266186,38
32-2,328270092,51
32-3,328273998,30
32-4,328277904,17
32-5,328281810,30
32-6,328285716,32
32-7,328289622,3
32-8,328293528,-21
32-9,328297434,-16
32-10,328301340,-10
32-11,328305246,-35
32-12,328309152,-64
32-13,328313058,-64
32-14,328316964,-50
32-15,328320870,-60
32-16,328324776,-71
32-17,328328682,-43
32-18,328332588,5
32-19,328336494,17
32-20,328340400,-16
32-21,328344306,-41
32-22,328348212,-33
32-23,328352118,-30
32-24,328356024,-53
32-25,328359930,-68
32-26,328363836,-51
32-27,328367742,-29
32-28,328371648,-37
32-29,328375554,-49
32-30,328379460,-33
32-31,328383366,-5
32-32,328387272,-2
32-1,328390970,-11
32-2,328394876,4
32-3,328398782,34
32-4,328402688,28
32-5,328406594,-9
32-6,328410500,-31
32-7,328414406,-23
32-8,328418312,-32
32-9,328422218,-81
32-10,328426124,-119
32-11,328430030,-104
32-12,328433936,-71
32-13,328437842,-72
32-14,328441748,-90
32-15,328445654,-85
32-16,328449560,-64
32-17,328453466,-66
32-18,328457372,-90
32-19,328461278,-89
32-20,328465184,-60
32-21,328469090,-47
32-22,328472996,-64
32-23,328476902,-65
32-24,328480808,-33
32-25,328484714,-12
32-26,328488620,-33
32-27,328492526,-61
32-28,328496432,-54
32-29,328500338,-34
32-30,328504244,-46
32-31,328508150,-72
32-32,328512056,-68
32-1,328515968,-41
32-2,328519874,-39
32-3,328523780,-62
32-4,328527686,-72
32-5,328531592,-53
32-6,328535498,-38
32-7,328539404,-50
32-8,328543310,-52
32-9,328547216,-29
32-10,328551122,-17
32-11,328555028,-36
32-12,328558934,-49
32-13,328562840,-23
32-14,328566746,13
32-15,328570652,12
32-16,328574558,-13
32-17,328578464,-9
32-18,328582370,23
32-19,328586276,35
32-20,328590182,19
32-21,328594088,4
32-22,328597994,9
32-23,328601900,2
32-24,328605806,-33
32-25,328609712,-54
32-26,328613618,-37
32-27,328617524,-12
32-28,328621430,-15
32-29,328625336,-22
32-30,328629242,-4
32-31,328633148,20
32-32,328637054,8
32-1,328640965,-26
32-2,328644871,-32
32-3,328648777,-9
32-4,328652683,-4
32-5,328656589,-24
32-6,328660495,-38
32-7,328664401,-34
32-8,328668307,-42
32-9,328672213,-78
32-10,328676119,-101
32-11,328680025,-76
32-12,328683931,-46
32-13,328687837,-52
32-14,328691743,-70
32-15,328695649,-59
32-16,328699555,-27
32-17,328703461,-23
32-18,328707367,-50
32-19,328711273,-65
32-20,328715179,-56
32-21,328719085,-56
32-22,328722991,-74
32-23,328726897,-76
32-24,328730803,-45
32-25,328734709,-21
32-26,328738615,-29
32-27,328742521,-38
32-28,328746427,-18
32-29,328750333,6
32-30,328754239,2
32-31,328758145,-13
32-32,328762051,-3
32-1,328765963,23
32-2,328769869,20
32-3,328773775,-3
32-4,328777681,-1
32-5,328781587,32
32-6,328785493,42
32-7,328789399,8
32-8,328793305,-24
32-9,328797211,-19
32-10,328801117,-4
32-11,328805023,-19
32-12,328808929,-40
32-13,328812835,-38
32-14,328816741,-29
32-15,328820647,-47
32-16,328824553,-76
32-17,328828459,-77
32-18,328832365,-52
32-19,328836271,-46
32-20,328840177,-60
32-21,328844083,-56
32-22,328847989,-26
32-23,328851895,-17
32-24,328855801,-42
32-25,328859707,-64
32-26,328863613,-51
32-27,328867519,-37
32-28,328871425,-58
32-29,328875331,-86
32-30,328879237,-78
32-31,328883143,-47
32-32,328887049,-35
32-1,328890961,-43
32-2,328894867,-35
32-3,328898773,-14
32-4,328902679,-19
32-5,328906585,-43
32-6,328910491,-40
32-7,328914397,-2
32-8,328918303,24
32-9,328922209,4
32-10,328926115,-20
32-11,328930021,-5
32-12,328933927,27
32-13,328937833,26
32-14,328941739,0
32-15,328945645,-20
32-16,328949551,-29
32-17,328953457,-53
32-18,328957363,-75
32-19,328961269,-68
32-20,328965175,-45
32-21,328969081,-56
32-22,328972987,-102
32-23,328976893,-122
32-24,328980799,-95
32-25,328984705,-68
32-26,328988611,-69
32-27,328992517,-73
32-28,328996423,-46
32-29,329000329,-19
32-30,329004235,-30
32-31,329008141,-61
32-32,329012047,-65
32-1,329015958,-46
32-2,329019864,-47
32-3,329023770,-63
32-4,329027676,-50
32-5,329031582,-10
32-6,329035488,6
32-7,329039394,-26
32-8,329043300,-52
32-9,329047206,-35
32-10,329051112,-11
32-11,329055018,-26
32-12,329058924,-61
32-13,329062830,-84
32-14,329066736,-94
32-15,329070642,-113
32-16,329074548,-121
32-17,329078454,-88
32-18,329082360,-39
32-19,329086266,-24
32-20,329090172,-42
32-21,329094078,-39
32-22,329097984,-3
32-23,329101890,18
32-24,329105796,-6
32-25,329109702,-30
32-26,329113608,-18
32-27,329117514,13
32-28,329121420,24
32-29,329125326,25
32-30,329129232,37
32-31,329133138,41
32-32,329137044,8
32-1,329140956,-34
32-2,329144862,-36
32-3,329148768,-7
32-4,329152674,-1
32-5,329156580,-30
32-6,329160486,-46
32-7,329164392,-32
32-8,329168298,-27
32-9,329172204,-49
32-10,329176110,-63
32-11,329180016,-39
32-12,329183922,-4
32-13,329187828,-4
32-14,329191734,-16
32-15,329195640,-10
32-16,329199546,-3
32-17,329203452,-29
32-18,329207358,-71
32-19,329211264,-78
32-20,329215170,-48
32-21,329219076,-31
32-22,329222982,-47
32-23,329226888,-55
32-24,329230794,-41
32-25,329234700,-43
32-26,329238606,-73
32-27,329242512,-87
32-28,329246418,-52
32-29,329250324,-8
32-30,329254230,-14
32-31,329258136,-52
32-32,329262042,-71
32-1,329265954,-68
32-2,329269860,-80
32-3,329273766,-103
32-4,329277672,-93
32-5,329281578,-53
32-6,329285484,-36
32-7,329289390,-61
32-8,329293296,-75
32-9,329297202,-49
32-10,329301108,-27
32-11,329305014,-47
32-12,329308920,-77
32-13,329312826,-73
32-14,329316732,-43
32-15,329320638,-34
32-16,329324544,-42
32-17,329328450,-30
32-18,329332356,-1
32-19,329336262,8
32-20,329340168,-10
32-21,329344074,-18
32-22,329347980,-3
32-23,329351886,0
32-24,329355792,-33
32-25,329359698,-60
32-26,329363604,-50
32-27,329367510,-26
32-28,329371416,-18
32-29,329375322,-11
32-30,329379228,16
32-31,329383134,36
32-32,329387040,13
32-1,329390951,-25
32-2,329394857,-32
32-3,329398763,-8
32-4,329402669,-1
32-5,329406575,-19
32-6,329410481,-22
32-7,329414387,0
32-8,329418293,7
32-9,329422199,-22
32-10,329426105,-51
32-11,329430011,-45
32-12,329433917,-30
32-13,329437823,-44
32-14,329441729,-62
32-15,329445635,-53
32-16,329449541,-31
32-17,329453447,-34
32-18,329457353,-50
32-19,329461259,-36
32-20,329465165,2
32-21,329469071,11
32-22,329472977,-21
32-23,329476883,-43
32-24,329480789,-28
32-25,329484695,-10
32-26,329488601,-17
32-27,329492507,-21
32-28,329496413,2
32-29,329500319,22
32-30,329504225,-2
32-31,329508131,-43
32-32,329512037,-51
32-1,329515949,-35
32-2,329519855,-35
32-3,329523761,-47
32-4,329527667,-33
32-5,329531573,10
32-6,329535479,30
32-7,329539385,5
32-8,329543291,-19
32-9,329547197,-12
32-10,329551103,-2
32-11,329555009,-19
32-12,329558915,-40
32-13,329562821,-32
32-14,329566727,-15
32-15,329570633,-28
32-16,329574539,-52
32-17,329578445,-50
32-18,329582351,-33
32-19,329586257,-45
32-20,329590163,-80
32-21,329594069,-87
32-22,329597975,-47
32-23,329601881,-5
32-24,329605787,1
32-25,329609693,-3
32-26,329613599,9
32-27,329617505,16
32-28,329621411,-9
32-29,329625317,-40
32-30,329629223,-48
32-31,329633129,-46
32-32,329637035,-63
32-1,329640946,-76
32-2,329644852,-55
32-3,329648758,-16
32-4,329652664,-14
32-5,329656570,-45
32-6,329660476,-62
32-7,329664382,-49
32-8,329668288,-48
32-9,329672194,-73
32-10,329676100,-86
32-11,329680006,-58
32-12,329683912,-21
32-13,329687818,-17
32-14,329691724,-26
32-15,329695630,-13
32-16,329699536,6
32-17,329703442,-10
32-18,329707348,-49
32-19,329711254,-67
32-20,329715160,-62
32-21,329719066,-75
32-22,329722972,-108
32-23,329726878,-116
32-24,329730784,-86
32-25,329734690,-66
32-26,329738596,-78
32-27,329742502,-89
32-28,329746408,-70
32-29,329750314,-45
32-30,329754220,-52
32-31,329758126,-67
32-32,329762032,-45
32-1,329765944,-3
32-2,329769850,2
32-3,329773756,-29
32-4,329777662,-50
32-5,329781568,-39
32-6,329785474,-34
32-7,329789380,-56
32-8,329793286,-70
32-9,329797192,-56
32-10,329801098,-48
32-11,329805004,-70
32-12,329808910,-93
32-13,329812816,-86
32-14,329816722,-66
32-15,329820628,-65
32-16,329824534,-69
32-17,329828440,-44
32-18,329832346,-6
32-19,329836252,-3
32-20,329840158,-29
32-21,329844064,-31
32-22,329847970,3
32-23,329851876,27
32-24,329855782,11
32-25,329859688,-4
32-26,329863594,13
32-27,329867500,33
32-28,329871406,22
32-29,329875312,3
32-30,329879218,9
32-31,329883124,27
32-32,329887030,19
32-1,329890942,2
32-2,329894848,7
32-3,329898754,27
32-4,329902660,19
32-5,329906566,-12
32-6,329910472,-22
32-7,329914378,1
32-8,329918284,14
32-9,329922190,-12
32-10,329926096,-41
32-11,329930002,-42
32-12,329933908,-36
32-13,329937814,-53
32-14,329941720,-66
32-15,329945626,-41
32-16,329949532,1
32-17,329953438,9
32-18,329957344,-10
32-19,329961250,-10
32-20,329965156,14
32-21,329969062,22
32-22,329972968,9
32-23,329976874,17
32-24,329980780,55
32-25,329984686,77
32-26,329988592,59
32-27,329992498,36
32-28,329996404,39
32-29,330000310,47
32-30,330004216,27
32-31,330008122,2
32-32,330012028,8
32-1,330015939,26
32-2,330019845,12
32-3,330023751,-24
32-4,330027657,-36
32-5,330031563,-24
32-6,330035469,-40
32-7,330039375,-88
32-8,330043281,-111
32-9,330047187,-82
32-10,330051093,-43
32-11,330054999,-38
32-12,330058905,-44
32-13,330062811,-31
32-14,330066717,-16
32-15,330070623,-31
32-16,330074529,-58
32-17,330078435,-51
32-18,330082341,-18
32-19,330086247,-13
32-20,330090153,-37
32-21,330094059,-38
32-22,330097965,-8
32-23,330101871,5
32-24,330105777,-25
32-25,330109683,-52
32-26,330113589,-41
32-27,330117495,-28
32-28,330121401,-49
32-29,330125307,-75
32-30,330129213,-73
32-31,330133119,-52
32-32,330137025,-54
32-1,330140937,-73
32-2,330144843,-72
32-3,330148749,-47
32-4,330152655,-36
32-5,330156561,-45
32-6,330160467,-39
32-7,330164373,-11
32-8,330168279,4
32-9,330172185,-18
32-10,330176091,-41
32-11,330179997,-35
32-12,330183903,-22
32-13,330187809,-26
32-14,330191715,-24
32-15,330195621,11
32-16,330199527,49
32-17,330203433,41
32-18,330207339,6
32-19,330211245,-9
32-20,330215151,6
32-21,330219057,10
32-22,330222963,-9
32-23,330226869,-12
32-24,330230775,11
32-25,330234681,18
32-26,330238587,-6
32-27,330242493,-25
32-28,330246399,-5
32-29,330250305,24
32-30,330254211,21
32-31,330258117,6
32-32,330262023,9
32-1,330265935,15
32-2,330269841,-13
32-3,330273747,-56
32-4,330277653,-60
32-5,330281559,-25
32-6,330285465,-11
32-7,330289371,-37
32-8,330293277,-55
32-9,330297183,-37
32-10,330301089,-22
32-11,330304995,-43
32-12,330308901,-69
32-13,330312807,-67
32-14,330316713,-59
32-15,330320619,-81
32-16,330324525,-109
32-17,330328431,-99
32-18,330332337,-61
32-19,330336243,-52
32-20,330340149,-80
32-21,330344055,-93
32-22,330347961,-68
32-23,330351867,-40
32-24,330355773,-41
32-25,330359679,-44
32-26,330363585,-23
32-27,330367491,0
32-28,330371397,-8
32-29,330375303,-23
32-30,330379209,-28
32-31,330383115,-31
32-32,330387021,-53
32-1,330390932,-69
32-2,330394838,-48
32-3,330398744,-3
32-4,330402650,9
32-5,330406556,-13
32-6,330410462,-22
32-7,330414368,-5
32-8,330418274,0
32-9,330422180,-23
32-10,330426086,-31
32-11,330429992,1
32-12,330433898,36
32-13,330437804,23
32-14,330441710,-10
32-15,330445616,-23
32-16,330449522,-19
32-17,330453428,-36
32-18,330457334,-65
32-19,330461240,-65
32-20,330465146,-34
32-21,330469052,-13
32-22,330472958,-17
32-23,330476864,-11
32-24,330480770,9
32-25,330484676,8
32-26,330488582,-23
32-27,330492488,-46
32-28,330496394,-40
32-29,330500300,-39
32-30,330504206,-77
32-31,330508112,-112
32-32,330512018,-97
32-1,330515930,-54
32-2,330519836,-45
32-3,330523742,-73
32-4,330527648,-83
32-5,330531554,-59
32-6,330535460,-41
32-7,330539366,-49
32-8,330543272,-49
32-9,330547178,-21
32-10,330551084,1
32-11,330554990,-12
32-12,330558896,-29
32-13,330562802,-17
32-14,330566708,2
32-15,330570614,-14
32-16,330574520,-45
32-17,330578426,-42
32-18,330582332,-11
32-19,330586238,3
32-20,330590144,-6
32-21,330594050,-4
32-22,330597956,14
32-23,330601862,6
32-24,330605768,-36
32-25,330609674,-66
32-26,330613580,-49
32-27,330617486,-20
32-28,330621392,-16
32-29,330625298,-15
32-30,330629204,9
32-31,330633110,32
32-32,330637016,14
32-1,330640927,-27
32-2,330644833,-42
32-3,330648739,-28
32-4,330652645,-29
32-5,330656551,-49
32-6,330660457,-55
32-7,330664363,-43
32-8,330668269,-44
32-9,330672175,-75
32-10,330676081,-95
32-11,330679987,-80
32-12,330683893,-64
32-13,330687799,-80
32-14,330691705,-95
32-15,330695611,-74
32-16,330699517,-29
32-17,330703423,-15
32-18,330707329,-24
32-19,330711235,-18
32-20,330715141,1
32-21,330719047,-6
32-22,330722953,-43
32-23,330726859,-60
32-24,330730765,-44
32-25,330734671,-35
32-26,330738577,-53
32-27,330742483,-52
32-28,330746389,-10
32-29,330750295,36
32-30,330754201,37
32-31,330758107,17
32-32,330762013,16
32-1,6020887,1
32-2,6024793,23
32-3,6028699,45
32-4,6032605,26
32-5,6036511,-11
32-6,6040417,-24
32-7,6044323,-15
32-8,6048229,-30
32-9,6052135,-67
32-10,6056041,-82
32-11,6059947,-69
32-12,6063853,-66
32-13,6067759,-88
32-14,6071665,-94
32-15,6075571,-65
32-16,6079477,-40
32-17,6083383,-57
32-18,6087289,-77
32-19,6091195,-59
32-20,6095101,-25
32-21,6099007,-24
32-22,6102913,-47
32-23,6106819,-47
32-24,6110725,-18
32-25,6114631,-12
32-26,6118537,-34
32-27,6122443,-37
32-28,6126349,-4
32-29,6130255,20
32-30,6134161,2
32-31,6138067,-29
32-32,6141973,-38
32-1,6145732,-40
32-2,6149638,-61
32-3,6153544,-79
32-4,6157450,-66
32-5,6161356,-35
32-6,6165262,-31
32-7,6169168,-44
32-8,6173074,-33
32-9,6176980,3
32-10,6180886,26
32-11,6184792,17
32-12,6188698,12
32-13,6192604,26
32-14,6196510,25
32-15,6200416,-6
32-16,6204322,-25
32-17,6208228,-12
32-18,6212134,0
32-19,6216040,-28
32-20,6219946,-63
32-21,6223852,-53
32-22,6227758,-18
32-23,6231664,-20
32-24,6235570,-60
32-25,6239476,-86
32-26,6243382,-73
32-27,6247288,-63
32-28,6251194,-83
32-29,6255100,-98
32-30,6259006,-85
32-31,6262912,-71
32-32,6266818,-79
32-1,6270730,-83
32-2,6274636,-56
32-3,6278542,-20
32-4,6282448,-21
32-5,6286354,-44
32-6,6290260,-53
32-7,6294166,-51
32-8,6298072,-65
32-9,6301978,-86
32-10,6305884,-70
32-11,6309790,-17
32-12,6313696,9
32-13,6317602,-19
32-14,6321508,-50
32-15,6325414,-46
32-16,6329320,-25
32-17,6333226,-25
32-18,6337132,-32
32-19,6341038,-15
32-20,6344944,-1
32-21,6348850,-29
32-22,6352756,-79
32-23,6356662,-102
32-24,6360568,-90
32-25,6364474,-81
32-26,6368380,-83
32-27,6372286,-72
32-28,6376192,-47
32-29,6380098,-46
32-30,6384004,-77
32-31,6387910,-89
32-32,6391816,-56
32-1,6395727,-17
32-2,6399633,-18
32-3,6403539,-39
32-4,6407445,-39
32-5,6411351,-21
32-6,6415257,-22
32-7,6419163,-30
32-8,6423069,-11
32-9,6426975,21
32-10,6430881,20
32-11,6434787,-15
32-12,6438693,-32
32-13,6442599,-3
32-14,6446505,34
32-15,6450411,43
32-16,6454317,52
32-17,6458223,86
32-18,6462129,108
32-19,6466035,77
32-20,6469941,26
32-21,6473847,9
32-22,6477753,26
32-23,6481659,28
32-24,6485565,13
32-25,6489471,14
32-26,6493377,38
32-27,6497283,38
32-28,6501189,6
32-29,6505095,-23
32-30,6509001,-26
32-31,6512907,-26
32-32,6516813,-47
32-1,6520725,-58
32-2,6524631,-31
32-3,6528537,4
32-4,6532443,-1
32-5,6536349,-34
32-6,6540255,-50
32-7,6544161,-48
32-8,6548067,-64
32-9,6551973,-92
32-10,6555879,-95
32-11,6559785,-66
32-12,6563691,-51
32-13,6567597,-68
32-14,6571503,-78
32-15,6575409,-51
32-16,6579315,-19
32-17,6583221,-17
32-18,6587127,-24
32-19,6591033,-9
32-20,6594939,11
32-21,6598845,2
32-22,6602751,-19
32-23,6606657,-11
32-24,6610563,14
32-25,6614469,12
32-26,6618375,-11
32-27,6622281,-7
32-28,6626187,27
32-29,6630093,41
32-30,6633999,4
32-31,6637905,-35
32-32,6641811,-31
32-1,6645723,-13
32-2,6649629,-25
32-3,6653535,-49
32-4,6657441,-43
32-5,6661347,-9
32-6,6665253,5
32-7,6669159,-2
32-8,6673065,5
32-9,6676971,27
32-10,6680877,30
32-11,6684783,12
32-12,6688689,8
32-13,6692595,32
32-14,6696501,39
32-15,6700407,3
32-16,6704313,-29
32-17,6708219,-22
32-18,6712125,-1
32-19,6716031,-11
32-20,6719937,-40
32-21,6723843,-47
32-22,6727749,-38
32-23,6731655,-52
32-24,6735561,-81
32-25,6739467,-87
32-26,6743373,-58
32-27,6747279,-35
32-28,6751185,-40
32-29,6755091,-41
32-30,6758997,-23
32-31,6762903,-19
32-32,6766809,-48
32-1,6770903,-74
32-2,6774809,-62
32-3,6778715,-36
32-4,6782621,-44
32-5,6786527,-62
32-6,6790433,-51
32-7,6794339,-19
32-8,6798245,-16
32-9,6802151,-46
32-10,6806057,-59
32-11,6809963,-41
32-12,6813869,-35
32-13,6817775,-62
32-14,6821681,-83
32-15,6825587,-72
32-16,6829493,-49
32-17,6833399,-48
32-18,6837305,-53
32-19,6841211,-35
32-20,6845117,-15
32-21,6849023,-31
32-22,6852929,-67
32-23,6856835,-70
32-24,6860741,-39
32-25,6864647,-25
32-26,6868553,-36
32-27,6872459,-27
32-28,6876365,11
32-29,6880271,29
32-30,6884177,-4
32-31,6888083,-49
32-32,6891989,-64
32-1,6895718,-60
32-2,6899624,-71
32-3,6903530,-83
32-4,6907436,-70
32-5,6911342,-46
32-6,6915248,-47
32-7,6919154,-61
32-8,6923060,-47
32-9,6926966,-7
32-10,6930872,7
32-11,6934778,-19
32-12,6938684,-36
32-13,6942590,-18
32-14,6946496,-1
32-15,6950402,-14
32-16,6954308,-27
32-17,6958214,-9
32-18,6962120,20
32-19,6966026,22
32-20,6969932,9
32-21,6973838,23
32-22,6977744,47
32-23,6981650,39
32-24,6985556,6
32-25,6989462,-7
32-26,6993368,16
32-27,6997274,36
32-28,7001180,21
32-29,7005086,5
32-30,7008992,11
32-31,7012898,17
32-32,7016804,1
32-1,7020715,-17
32-2,7024621,-12
32-3,7028527,-6
32-4,7032433,-33
32-5,7036339,-69
32-6,7040245,-67
32-7,7044151,-38
32-8,7048057,-31
32-9,7051963,-46
32-10,7055869,-48
32-11,7059775,-27
32-12,7063681,-17
32-13,7067587,-29
32-14,7071493,-20
32-15,7075399,20
32-16,7079305,49
32-17,7083211,34
32-18,7087117,5
32-19,7091023,8
32-20,7094929,26
32-21,7098835,8
32-22,7102741,-35
32-23,7106647,-58
32-24,7110553,-52
32-25,7114459,-53
32-26,7118365,-68
32-27,7122271,-63
32-28,7126177,-32
32-29,7130083,-23
32-30,7133989,-60
32-31,7137895,-100
32-32,7141801,-100
32-1,7145713,-83
32-2,7149619,-90
32-3,7153525,-100
32-4,7157431,-83
32-5,7161337,-54
32-6,7165243,-55
32-7,7169149,-71
32-8,7173055,-58
32-9,7176961,-21
32-10,7180867,-12
32-11,7184773,-42
32-12,7188679,-57
32-13,7192585,-33
32-14,7196491,-13
32-15,7200397,-36
32-16,7204303,-76
32-17,7208209,-88
32-18,7212115,-80
32-19,7216021,-88
32-20,7219927,-97
32-21,7223833,-75
32-22,7227739,-40
32-23,7231645,-31
32-24,7235551,-44
32-25,7239457,-36
32-26,7243363,2
32-27,7247269,30
32-28,7251175,22
32-29,7255081,11
32-30,7258987,14
32-31,7262893,6
32-32,7266799,-34
32-1,7270711,-63
32-2,7274617,-45
32-3,7278523,-9
32-4,7282429,-8
32-5,7286335,-29
32-6,7290241,-33
32-7,7294147,-19
32-8,7298053,-26
32-9,7301959,-47
32-10,7305865,-38
32-11,7309771,3
32-12,7313677,26
32-13,7317583,10
32-14,7321489,-13
32-15,7325395,-13
32-16,7329301,-10
32-17,7333207,-32
32-18,7337113,-53
32-19,7341019,-44
32-20,7344925,-23
32-21,7348831,-29
32-22,7352737,-49
32-23,7356643,-47
32-24,7360549,-28
32-25,7364455,-35
32-26,7368361,-59
32-27,7372267,-53
32-28,7376173,-9
32-29,7380079,13
32-30,7383985,-14
32-31,7387891,-45
32-32,7391797,-33
32-1,7395708,-2
32-2,7399614,-6
32-3,7403520,-33
32-4,7407426,-44
32-5,7411332,-35
32-6,7415238,-40
32-7,7419144,-59
32-8,7423050,-59
32-9,7426956,-47
32-10,7430862,-54
32-11,7434768,-84
32-12,7438674,-90
32-13,7442580,-53
32-14,7446486,-13
32-15,7450392,-4
32-16,7454298,1
32-17,7458204,28
32-18,7462110,51
32-19,7466016,30
32-20,7469922,-12
32-21,7473828,-28
32-22,7477734,-17
32-23,7481640,-23
32-24,7485546,-47
32-25,7489452,-52
32-26,7493358,-27
32-27,7497264,-4
32-28,7501170,-8
32-29,7505076,-12
32-30,7508982,4
32-31,7512888,4
32-32,7516794,-24
32-1,7520889,-43
32-2,7524795,-20
32-3,7528701,20
32-4,7532607,26
32-5,7536513,6
32-6,7540419,3
32-7,7544325,14
32-8,7548231,-1
32-9,7552137,-42
32-10,7556043,-67
32-11,7559949,-55
32-12,7563855,-42
32-13,7567761,-55
32-14,7571667,-64
32-15,7575573,-47
32-16,7579479,-36
32-17,7583385,-57
32-18,7587291,-74
32-19,7591197,-57
32-20,7595103,-30
32-21,7599009,-40
32-22,7602915,-74
32-23,7606821,-80
32-24,7610727,-55
32-25,7614633,-49
32-26,7618539,-68
32-27,7622445,-66
32-28,7626351,-28
32-29,7630257,6
32-30,7634163,-2
32-31,7638069,-24
32-32,7641975,-23
32-1,7645704,-19
32-2,7649610,-36
32-3,7653516,-53
32-4,7657422,-38
32-5,7661328,-13
32-6,7665234,-20
32-7,7669140,-46
32-8,7673046,-38
32-9,7676952,5
32-10,7680858,27
32-11,7684764,3
32-12,7688670,-24
32-13,7692576,-26
32-14,7696482,-26
32-15,7700388,-49
32-16,7704294,-70
32-17,7708200,-52
32-18,7712106,-24
32-19,7716012,-26
32-20,7719918,-44
32-21,7723824,-42
32-22,7727730,-22
32-23,7731636,-23
32-24,7735542,-43
32-25,7739448,-50
32-26,7743354,-36
32-27,7747260,-36
32-28,7751166,-56
32-29,7755072,-59
32-30,7758978,-41
32-31,7762884,-48
32-32,7766790,-98
32-1,7770701,-140
32-2,7774607,-128
32-3,7778513,-88
32-4,7782419,-81
32-5,7786325,-100
32-6,7790231,-102
32-7,7794137,-85
32-8,7798043,-86
32-9,7801949,-104
32-10,7805855,-95
32-11,7809761,-49
32-12,7813667,-18
32-13,7817573,-33
32-14,7821479,-50
32-15,7825385,-34
32-16,7829291,-12
32-17,7833197,-22
32-18,7837103,-45
32-19,7841009,-48
32-20,7844915,-42
32-21,7848821,-62
32-22,7852727,-86
32-23,7856633,-70
32-24,7860539,-21
32-25,7864445,-1
32-26,7868351,-28
32-27,7872257,-58
32-28,7876163,-61
32-29,7880069,-71
32-30,7883975,-111
32-31,7887881,-141
32-32,7891787,-126
32-1,7895699,-93
32-2,7899605,-93
32-3,7903511,-116
32-4,7907417,-121
32-5,7911323,-101
32-6,7915229,-86
32-7,7919135,-76
32-8,7923041,-42
32-9,7926947,4
32-10,7930853,9
32-11,7934759,-32
32-12,7938665,-65
32-13,7942571,-52
32-14,7946477,-24
32-15,7950383,-21
32-16,7954289,-24
32-17,7958195,-6
32-18,7962101,6
32-19,7966007,-17
32-20,7969913,-49
32-21,7973819,-47
32-22,7977725,-19
32-23,7981631,-11
32-24,7985537,-29
32-25,7989443,-33
32-26,7993349,-8
32-27,7997255,11
32-28,8001161,-5
32-29,8005067,-25
32-30,8008973,-24
32-31,8012879,-21
32-32,8016785,-37
32-1,8020697,-45
32-2,8024603,-22
32-3,8028509,1
32-4,8032415,-19
32-5,8036321,-54
32-6,8040227,-55
32-7,8044133,-30
32-8,8048039,-27
32-9,8051945,-53
32-10,8055851,-60
32-11,8059757,-36
32-12,8063663,-19
32-13,8067569,-35
32-14,8071475,-48
32-15,8075381,-30
32-16,8079287,-7
32-17,8083193,-18
32-18,8087099,-45
32-19,8091005,-50
32-20,8094911,-40
32-21,8098817,-52
32-22,8102723,-74
32-23,8106629,-69
32-24,8110535,-43
32-25,8114441,-48
32-26,8118347,-81
32-27,8122253,-95
32-28,8126159,-72
32-29,8130065,-54
32-30,8133971,-73
32-31,8137877,-98
32-32,8141783,-91
32-1,8145694,-74
32-2,8149600,-78
32-3,8153506,-89
32-4,8157412,-75
32-5,8161318,-47
32-6,8165224,-45
32-7,8169130,-62
32-8,8173036,-56
32-9,8176942,-28
32-10,8180848,-27
32-11,8184754,-61
32-12,8188660,-78
32-13,8192566,-55
32-14,8196472,-27
32-15,8200378,-34
32-16,8204284,-45
32-17,8208190,-28
32-18,8212096,-2
32-19,8216002,-3
32-20,8219908,-20
32-21,8223814,-19
32-22,8227720,-11
32-23,8231626,-34
32-24,8235532,-69
32-25,8239438,-69
32-26,8243344,-29
32-27,8247250,-5
32-28,8251156,-19
32-29,8255062,-29
32-30,8258968,-9
32-31,8262874,9
32-32,8266780,-2
32-1,8270875,-11
32-2,8274781,11
32-3,8278687,35
32-4,8282593,7
32-5,8286499,-48
32-6,8290405,-71
32-7,8294311,-53
32-8,8298217,-42
32-9,8302123,-51
32-10,8306029,-44
32-11,8309935,-14
32-12,8313841,4
32-13,8317747,-12
32-14,8321653,-21
32-15,8325559,7
32-16,8329465,38
32-17,8333371,34
32-18,8337277,20
32-19,8341183,28
32-20,8345089,35
32-21,8348995,-1
32-22,8352901,-55
32-23,8356807,-64
32-24,8360713,-22
32-25,8364619,4
32-26,8368525,-3
32-27,8372431,1
32-28,8376337,35
32-29,8380243,57
32-30,8384149,25
32-31,8388055,-27
32-32,8391961,-51
32-1,8395689,-52
32-2,8399595,-60
32-3,8403501,-60
32-4,8407407,-30
32-5,8411313,13
32-6,8415219,25
32-7,8419125,8
32-8,8423031,6
32-9,8426937,17
32-10,8430843,-3
32-11,8434749,-58
32-12,8438655,-94
32-13,8442561,-81
32-14,8446467,-54
32-15,8450373,-58
32-16,8454279,-67
32-17,8458185,-47
32-18,8462091,-14
32-19,8465997,-13
32-20,8469903,-28
32-21,8473809,-19
32-22,8477715,-1
32-23,8481621,-12
32-24,8485527,-45
32-25,8489433,-56
32-26,8493339,-29
32-27,8497245,-14
32-28,8501151,-32
32-29,8505057,-50
32-30,8508963,-47
32-31,8512869,-53
32-32,8516775,-90
32-1,8520687,-124
32-2,8524593,-111
32-3,8528499,-72
32-4,8532405,-62
32-5,8536311,-75
32-6,8540217,-76
32-7,8544123,-69
32-8,8548029,-88
32-9,8551935,-125
32-10,8555841,-131
32-11,8559747,-92
32-12,8563653,-56
32-13,8567559,-55
32-14,8571465,-59
32-15,8575371,-39
32-16,8579277,-17
32-17,8583183,-25
32-18,8587089,-35
32-19,8590995,-20
32-20,8594901,3
32-21,8598807,-12
32-22,8602713,-46
32-23,8606619,-48
32-24,8610525,-22
32-25,8614431,-22
32-26,8618337,-56
32-27,8622243,-79
32-28,8626149,-63
32-29,8630055,-40
32-30,8633961,-47
32-31,8637867,-60
32-32,8641773,-47
32-1,8645685,-27
32-2,8649591,-31
32-3,8653497,-41
32-4,8657403,-30
32-5,8661309,-8
32-6,8665215,-18
32-7,8669121,-45
32-8,8673027,-42
32-9,8676933,-5
32-10,8680839,9
32-11,8684745,-21
32-12,8688651,-52
32-13,8692557,-51
32-14,8696463,-38
32-15,8700369,-42
32-16,8704275,-42
32-17,8708181,-19
32-18,8712087,7
32-19,8715993,-3
32-20,8719899,-26
32-21,8723805,-18
32-22,8727711,10
32-23,8731617,9
32-24,8735523,-20
32-25,8739429,-32
32-26,8743335,-12
32-27,8747241,-2
32-28,8751147,-19
32-29,8755053,-35
32-30,8758959,-24
32-31,8762865,-12
32-32,8766771,-25
32-1,8770682,-31
32-2,8774588,-7
32-3,8778494,24
32-4,8782400,16
32-5,8786306,-14
32-6,8790212,-19
32-7,8794118,2
32-8,8798024,10
32-9,8801930,4
32-10,8805836,24
32-11,8809742,68
32-12,8813648,82
32-13,8817554,39
32-14,8821460,-13
32-15,8825366,-31
32-16,8829272,-32
32-17,8833178,-50
32-18,8837084,-62
32-19,8840990,-38
32-20,8844896,-3
32-21,8848802,-3
32-22,8852708,-28
32-23,8856614,-28
32-24,8860520,2
32-25,8864426,16
32-26,8868332,7
32-27,8872238,12
32-28,8876144,42
32-29,8880050,60
32-30,8883956,38
32-31,8887862,18
32-32,8891768,38
32-1,8895680,68
32-2,8899586,61
32-3,8903492,28
32-4,8907398,9
32-5,8911304,10
32-6,8915210,-11
32-7,8919116,-50
32-8,8923022,-64
32-9,8926928,-50
32-10,8930834,-44
32-11,8934740,-51
32-12,8938646,-44
32-13,8942552,-15
32-14,8946458,-5
32-15,8950364,-35
32-16,8954270,-61
32-17,8958176,-44
32-18,8962082,-14
32-19,8965988,-18
32-20,8969894,-41
32-21,8973800,-35
32-22,8977706,-3
32-23,8981612,7
32-24,8985518,-13
32-25,8989424,-15
32-26,8993330,17
32-27,8997236,38
32-28,9001142,22
32-29,9005048,7
32-30,9008954,19
32-31,9012860,30
32-32,9016766,7
32-1,9020830,-26
32-2,9024736,-32
32-3,9028642,-18
32-4,9032548,-19
32-5,9036454,-27
32-6,9040360,-14
32-7,9044266,14
32-8,9048172,15
32-9,9052078,-12
32-10,9055984,-20
32-11,9059890,0
32-12,9063796,12
32-13,9067702,-6
32-14,9071608,-22
32-15,9075514,-13
32-16,9079420,-13
32-17,9083326,-50
32-18,9087232,-89
32-19,9091138,-88
32-20,9095044,-63
32-21,9098950,-63
32-22,9102856,-83
32-23,9106762,-80
32-24,9110668,-50
32-25,9114574,-37
32-26,9118480,-46
32-27,9122386,-38
32-28,9126292,-7
32-29,9130198,8
32-30,9134104,-27
32-31,9138010,-62
32-32,9141916,-53
32-1,9145675,-26
32-2,9149581,-26
32-3,9153487,-46
32-4,9157393,-49
32-5,9161299,-32
32-6,9165205,-34
32-7,9169111,-47
32-8,9173017,-25
32-9,9176923,21
32-10,9180829,38
32-11,9184735,6
32-12,9188641,-28
32-13,9192547,-31
32-14,9196453,-24
32-15,9200359,-32
32-16,9204265,-33
32-17,9208171,-6
32-18,9212077,24
32-19,9215983,10
32-20,9219889,-27
32-21,9223795,-36
32-22,9227701,-17
32-23,9231607,-12
32-24,9235513,-26
32-25,9239419,-19
32-26,9243325,10
32-27,9247231,17
32-28,9251137,-8
32-29,9255043,-24
32-30,9258949,-7
32-31,9262855,3
32-32,9266761,-22
32-1,9270673,-44
32-2,9274579,-23
32-3,9278485,14
32-4,9282391,10
32-5,9286297,-24
32-6,9290203,-35
32-7,9294109,-13
32-8,9298015,-3
32-9,9301921,-22
32-10,9305827,-26
32-11,9309733,1
32-12,9313639,19
32-13,9317545,3
32-14,9321451,-8
32-15,9325357,19
32-16,9329263,50
32-17,9333169,41
32-18,9337075,12
32-19,9340981,2
32-20,9344887,4
32-21,9348793,-19
32-22,9352699,-56
32-23,9356605,-64
32-24,9360511,-36
32-25,9364417,-21
32-26,9368323,-30
32-27,9372229,-33
32-28,9376135,-12
32-29,9380041,-6
32-30,9383947,-42
32-31,9387853,-73
32-32,9391759,-58
32-1,9395732,-20
32-2,9399638,-11
32-3,9403544,-30
32-4,9407450,-38
32-5,9411356,-29
32-6,9415262,-39
32-7,9419168,-64
32-8,9423074,-66
32-9,9426980,-44
32-10,9430886,-37
32-11,9434792,-59
32-12,9438698,-66
32-13,9442604,-40
32-14,9446510,-24
32-15,9450416,-44
32-16,9454322,-70
32-17,9458228,-65
32-18,9462134,-49
32-19,9466040,-64
32-20,9469946,-92
32-21,9473852,-97
32-22,9477758,-84
32-23,9481664,-95
32-24,9485570,-129
32-25,9489476,-137
32-26,9493382,-106
32-27,9497288,-83
32-28,9501194,-94
32-29,9505100,-103
32-30,9509006,-89
32-31,9512912,-78
32-32,9516818,-99
32-1,9520668,-116
32-2,9524574,-93
32-3,9528480,-59
32-4,9532386,-66
32-5,9536292,-96
32-6,9540198,-101
32-7,9544104,-72
32-8,9548010,-59
32-9,9551916,-76
32-10,9555822,-79
32-11,9559728,-53
32-12,9563634,-37
32-13,9567540,-51
32-14,9571446,-58
32-15,9575352,-28
32-16,9579258,11
32-17,9583164,14
32-18,9587070,-3
32-19,9590976,2
32-20,9594882,22
32-21,9598788,19
32-22,9602694,-9
32-23,9606600,-24
32-24,9610506,-23
32-25,9614412,-43
32-26,9618318,-79
32-27,9622224,-81
32-28,9626130,-41
32-29,9630036,-8
32-30,9633942,-17
32-31,9637848,-31
32-32,9641754,-14
32-1,9645666,11
32-2,9649572,9
32-3,9653478,-4
32-4,9657384,5
32-5,9661290,25
32-6,9665196,15
32-7,9669102,-19
32-8,9673008,-28
32-9,9676914,-7
32-10,9680820,-3
32-11,9684726,-34
32-12,9688632,-51
32-13,9692538,-28
32-14,9696444,-5
32-15,9700350,-17
32-16,9704256,-38
32-17,9708162,-32
32-18,9712068,-11
32-19,9715974,-14
32-20,9719880,-26
32-21,9723786,-5
32-22,9727692,38
32-23,9731598,53
32-24,9735504,30
32-25,9739410,6
32-26,9743316,4
32-27,9747222,-5
32-28,9751128,-30
32-29,9755034,-38
32-30,9758940,-13
32-31,9762846,5
32-32,9766752,-20
32-1,9770846,-51
32-2,9774752,-54
32-3,9778658,-37
32-4,9782564,-46
32-5,9786470,-64
32-6,9790376,-49
32-7,9794282,-12
32-8,9798188,3
32-9,9802094,-11
32-10,9806000,-10
32-11,9809906,12
32-12,9813812,15
32-13,9817718,-21
32-14,9821624,-49
32-15,9825530,-33
32-16,9829436,-2
32-17,9833342,-6
32-18,9837248,-25
32-19,9841154,-20
32-20,9845060,-1
32-21,9848966,-8
32-22,9852872,-39
32-23,9856778,-45
32-24,9860684,-22
32-25,9864590,-12
32-26,9868496,-26
32-27,9872402,-19
32-28,9876308,19
32-29,9880214,39
32-30,9884120,3
32-31,9888026,-51
32-32,9891932,-71
32-1,9895661,-68
32-2,9899567,-81
32-3,9903473,-93
32-4,9907379,-77
32-5,9911285,-40
32-6,9915191,-34
32-7,9919097,-54
32-8,9923003,-50
32-9,9926909,-16
32-10,9930815,-4
32-11,9934721,-28
32-12,9938627,-41
32-13,9942533,-12
32-14,9946439,24
32-15,9950345,22
32-16,9954251,4
32-17,9958157,10
32-18,9962063,28
32-19,9965969,20
32-20,9969875,-4
32-21,9973781,-6
32-22,9977687,10
32-23,9981593,4
32-24,9985499,-20
32-25,9989405,-21
32-26,9993311,8
32-27,9997217,24
32-28,10001123,6
32-29,10005029,-5
32-30,10008935,19
32-31,10012841,39
32-32,10016747,17
32-1,10020781,-17
32-2,10024687,-13
32-3,10028593,17
32-4,10032499,20
32-5,10036405,2
32-6,10040311,3
32-7,10044217,25
32-8,10048123,29
32-9,10052029,6
32-10,10055935,-7
32-11,10059841,5
32-12,10063747,14
32-13,10067653,-1
32-14,10071559,-9
32-15,10075465,8
32-16,10079371,16
32-17,10083277,-15
32-18,10087183,-48
32-19,10091089,-38
32-20,10094995,-1
32-21,10098901,3
32-22,10102807,-23
32-23,10106713,-27
32-24,10110619,0
32-25,10114525,14
32-26,10118431,-7
32-27,10122337,-30
32-28,10126243,-31
32-29,10130149,-40
32-30,10134055,-69
32-31,10137961,-79
32-32,10141867,-47
32-1,10145656,-9
32-2,10149562,-19
32-3,10153468,-58
32-4,10157374,-69
32-5,10161280,-49
32-6,10165186,-41
32-7,10169092,-45
32-8,10172998,-31
32-9,10176904,-3
32-10,10180810,-2
32-11,10184716,-41
32-12,10188622,-71
32-13,10192528,-64
32-14,10196434,-50
32-15,10200340,-67
32-16,10204246,-83
32-17,10208152,-61
32-18,10212058,-22
32-19,10215964,-13
32-20,10219870,-24
32-21,10223776,-20
32-22,10227682,-5
32-23,10231588,-14
32-24,10235494,-43
32-25,10239400,-45
32-26,10243306,-12
32-27,10247212,8
32-28,10251118,-8
32-29,10255024,-23
32-30,10258930,-12
32-31,10262836,-7
32-32,10266742,-36
32-1,10270654,-63
32-2,10274560,-53
32-3,10278466,-33
32-4,10282372,-51
32-5,10286278,-86
32-6,10290184,-79
32-7,10294090,-32
32-8,10297996,-3
32-9,10301902,-19
32-10,10305808,-42
32-11,10309714,-47
32-12,10313620,-52
32-13,10317526,-74
32-14,10321432,-79
32-15,10325338,-48
32-16,10329244,-23
32-17,10333150,-41
32-18,10337056,-69
32-19,10340962,-60
32-20,10344868,-24
32-21,10348774,-9
32-22,10352680,-26
32-23,10356586,-34
32-24,10360492,-23
32-25,10364398,-28
32-26,10368304,-52
32-27,10372210,-61
32-28,10376116,-44
32-29,10380022,-39
32-30,10383928,-62
32-31,10387834,-67
32-32,10391740,-23
32-1,10395652,23
32-2,10399558,14
32-3,10403464,-23
32-4,10407370,-37
32-5,10411276,-23
32-6,10415182,-33
32-7,10419088,-67
32-8,10422994,-78
32-9,10426900,-54
32-10,10430806,-35
32-11,10434712,-45
32-12,10438618,-51
32-13,10442524,-28
32-14,10446430,-12
32-15,10450336,-31
32-16,10454242,-52
32-17,10458148,-41
32-18,10462054,-25
32-19,10465960,-47
32-20,10469866,-83
32-21,10473772,-79
32-22,10477678,-39
32-23,10481584,-21
32-24,10485490,-43
32-25,10489396,-65
32-26,10493302,-56
32-27,10497208,-45
32-28,10501114,-52
32-29,10505020,-57
32-30,10508926,-43
32-31,10512832,-35
32-32,10516738,-59
32-1,10520649,-83
32-2,10524555,-72
32-3,10528461,-45
32-4,10532367,-53
32-5,10536273,-80
32-6,10540179,-76
32-7,10544085,-39
32-8,10547991,-21
32-9,10551897,-39
32-10,10555803,-51
32-11,10559709,-32
32-12,10563615,-10
32-13,10567521,-13
32-14,10571427,-19
32-15,10575333,-8
32-16,10579239,-4
32-17,10583145,-27
32-18,10587051,-44
32-19,10590957,-22
32-20,10594863,13
32-21,10598769,10
32-22,10602675,-21
32-23,10606581,-26
32-24,10610487,4
32-25,10614393,13
32-26,10618299,-15
32-27,10622205,-34
32-28,10626111,-14
32-29,10630017,7
32-30,10633923,-6
32-31,10637829,-22
32-32,10641735,-5
32-1,10645799,21
32-2,10649705,14
32-3,10653611,-10
32-4,10657517,-18
32-5,10661423,-9
32-6,10665329,-23
32-7,10669235,-61
32-8,10673141,-66
32-9,10677047,-23
32-10,10680953,16
32-11,10684859,14
32-12,10688765,3
32-13,10692671,19
32-14,10696577,43
32-15,10700483,44
32-16,10704389,37
32-17,10708295,40
32-18,10712201,34
32-19,10716107,-7
32-20,10720013,-53
32-21,10723919,-62
32-22,10727825,-42
32-23,10731731,-42
32-24,10735637,-67
32-25,10739543,-79
32-26,10743449,-55
32-27,10747355,-34
32-28,10751261,-45
32-29,10755167,-55
32-30,10759073,-42
32-31,10762979,-28
32-32,10766885,-41
32-1,10770644,-59
32-2,10774550,-51
32-3,10778456,-38
32-4,10782362,-59
32-5,10786268,-89
32-6,10790174,-87
32-7,10794080,-58
32-8,10797986,-48
32-9,10801892,-62
32-10,10805798,-57
32-11,10809704,-23
32-12,10813610,-4
32-13,10817516,-24
32-14,10821422,-42
32-15,10825328,-22
32-16,10829234,6
32-17,10833140,0
32-18,10837046,-20
32-19,10840952,-14
32-20,10844858,7
32-21,10848764,2
32-22,10852670,-22
32-23,10856576,-16
32-24,10860482,23
32-25,10864388,46
32-26,10868294,37
32-27,10872200,34
32-28,10876106,55
32-29,10880012,57
32-30,10883918,6
32-31,10887824,-56
32-32,10891730,-78
32-1,10895642,-68
32-2,10899548,-67
32-3,10903454,-59
32-4,10907360,-22
32-5,10911266,25
32-6,10915172,36
32-7,10919078,17
32-8,10922984,13
32-9,10926890,32
32-10,10930796,26
32-11,10934702,-15
32-12,10938608,-43
32-13,10942514,-29
32-14,10946420,-7
32-15,10950326,-14
32-16,10954232,-31
32-17,10958138,-27
32-18,10962044,-17
32-19,10965950,-38
32-20,10969856,-70
32-21,10973762,-69
32-22,10977668,-40
32-23,10981574,-30
32-24,10985480,-41
32-25,10989386,-28
32-26,10993292,15
32-27,10997198,32
32-28,11001104,-6
32-29,11005010,-51
32-30,11008916,-60
32-31,11012822,-52
32-32,11016728,-64
32-1,11020640,-73
32-2,11024546,-57
32-3,11028452,-40
32-4,11032358,-61
32-5,11036264,-100
32-6,11040170,-104
32-7,11044076,-66
32-8,11047982,-39
32-9,11051888,-47
32-10,11055794,-54
32-11,11059700,-35
32-12,11063606,-24
32-13,11067512,-42
32-14,11071418,-57
32-15,11075324,-40
32-16,11079230,-22
32-17,11083136,-33
32-18,11087042,-49
32-19,11090948,-32
32-20,11094854,-3
32-21,11098760,-10
32-22,11102666,-46
32-23,11106572,-59
32-24,11110478,-39
32-25,11114384,-32
32-26,11118290,-56
32-27,11122196,-69
32-28,11126102,-49
32-29,11130008,-33
32-30,11133914,-56
32-31,11137820,-83
32-32,11141726,-76
32-1,11145637,-49
32-2,11149543,-50
32-3,11153449,-67
32-4,11157355,-62
32-5,11161261,-41
32-6,11165167,-43
32-7,11169073,-63
32-8,11172979,-55
32-9,11176885,-15
32-10,11180791,6
32-11,11184697,-19
32-12,11188603,-41
32-13,11192509,-25
32-14,11196415,0
32-15,11200321,-11
32-16,11204227,-35
32-17,11208133,-34
32-18,11212039,-16
32-19,11215945,-22
32-20,11219851,-42
32-21,11223757,-35
32-22,11227663,-2
32-23,11231569,18
32-24,11235475,15
32-25,11239381,22
32-26,11243287,53
32-27,11247193,75
32-28,11251099,65
32-29,11255005,54
32-30,11258911,63
32-31,11262817,69
32-32,11266723,47
32-1,11270971,32
32-2,11274877,57
32-3,11278783,95
32-4,11282689,93
32-5,11286595,55
32-6,11290501,28
32-7,11294407,18
32-8,11298313,-6
32-9,11302219,-44
32-10,11306125,-56
32-11,11310031,-31
32-12,11313937,-7
32-13,11317843,-15
32-14,11321749,-18
32-15,11325655,7
32-16,11329561,32
32-17,11333467,22
32-18,11337373,-3
32-19,11341279,7
32-20,11345185,43
32-21,11349091,50
32-22,11352997,19
32-23,11356903,-5
32-24,11360809,-10
32-25,11364715,-25
32-26,11368621,-52
32-27,11372527,-55
32-28,11376433,-24
32-29,11380339,2
32-30,11384245,-10
32-31,11388151,-31
32-32,11392057,-30
32-1,11395633,-28
32-2,11399539,-51
32-3,11403445,-74
32-4,11407351,-61
32-5,11411257,-22
32-6,11415163,-19
32-7,11419069,-55
32-8,11422975,-77
32-9,11426881,-61
32-10,11430787,-43
32-11,11434693,-53
32-12,11438599,-63
32-13,11442505,-54
32-14,11446411,-46
32-15,11450317,-67
32-16,11454223,-87
32-17,11458129,-78
32-18,11462035,-52
32-19,11465941,-50
32-20,11469847,-61
32-21,11473753,-45
32-22,11477659,-16
32-23,11481565,-17
32-24,11485471,-44
32-25,11489377,-53
32-26,11493283,-30
32-27,11497189,-16
32-28,11501095,-32
32-29,11505001,-43
32-30,11508907,-27
32-31,11512813,-19
32-32,11516719,-49
32-1,11520630,-84
32-2,11524536,-86
32-3,11528442,-67
32-4,11532348,-77
32-5,11536254,-99
32-6,11540160,-91
32-7,11544066,-53
32-8,11547972,-36
32-9,11551878,-55
32-10,11555784,-66
32-11,11559690,-49
32-12,11563596,-36
32-13,11567502,-51
32-14,11571408,-59
32-15,11575314,-34
32-16,11579220,-8
32-17,11583126,-20
32-18,11587032,-43
32-19,11590938,-31
32-20,11594844,2
32-21,11598750,2
32-22,11602656,-29
32-23,11606562,-43
32-24,11610468,-35
32-25,11614374,-48
32-26,11618280,-89
32-27,11622186,-113
32-28,11626092,-93
32-29,11629998,-67
32-30,11633904,-69
32-31,11637810,-70
32-32,11641716,-41
32-1,11645628,-9
32-2,11649534,-14
32-3,11653440,-38
32-4,11657346,-40
32-5,11661252,-23
32-6,11665158,-33
32-7,11669064,-68
32-8,11672970,-78
32-9,11676876,-50
32-10,11680782,-29
32-11,11684688,-36
32-12,11688594,-40
32-13,11692500,-17
32-14,11696406,-4
32-15,11700312,-34
32-16,11704218,-71
32-17,11708124,-71
32-18,11712030,-54
32-19,11715936,-62
32-20,11719842,-83
32-21,11723748,-68
32-22,11727654,-23
32-23,11731560,4
32-24,11735466,-4
32-25,11739372,-5
32-26,11743278,16
32-27,11747184,23
32-28,11751090,-11
32-29,11754996,-47
32-30,11758902,-53
32-31,11762808,-51
32-32,11766714,-65
32-1,11770625,-71
32-2,11774531,-37
32-3,11778437,12
32-4,11782343,18
32-5,11786249,-5
32-6,11790155,-3
32-7,11794061,27
32-8,11797967,36
32-9,11801873,12
32-10,11805779,2
32-11,11809685,29
32-12,11813591,55
32-13,11817497,43
32-14,11821403,26
32-15,11825309,32
32-16,11829215,44
32-17,11833121,22
32-18,11837027,-17
32-19,11840933,-36
32-20,11844839,-32
32-21,11848745,-49
32-22,11852651,-86
32-23,11856557,-97
32-24,11860463,-73
32-25,11864369,-60
32-26,11868275,-71
32-27,11872181,-63
32-28,11876087,-24
32-29,11879993,2
32-30,11883899,-14
32-31,11887805,-39
32-32,11891711,-28
32-1,11895623,-2
32-2,11899529,-7
32-3,11903435,-32
32-4,11907341,-37
32-5,11911247,-18
32-6,11915153,-14
32-7,11919059,-34
32-8,11922965,-40
32-9,11926871,-23
32-10,11930777,-21
32-11,11934683,-47
32-12,11938589,-61
32-13,11942495,-38
32-14,11946401,-19
32-15,11950307,-39
32-16,11954213,-60
32-17,11958119,-40
32-18,11962025,2
32-19,11965931,10
32-20,11969837,-15
32-21,11973743,-32
32-22,11977649,-32
32-23,11981555,-49
32-24,11985461,-80
32-25,11989367,-90
32-26,11993273,-64
32-27,11997179,-43
32-28,12001085,-52
32-29,12004991,-65
32-30,12008897,-57
32-31,12012803,-50
32-32,12016709,-67
32-1,12020621,-84
32-2,12024527,-66
32-3,12028433,-34
32-4,12032339,-31
32-5,12036245,-45
32-6,12040151,-39
32-7,12044057,-15
32-8,12047963,-16
32-9,12051869,-49
32-10,12055775,-64
32-11,12059681,-49
32-12,12063587,-39
32-13,12067493,-57
32-14,12071399,-66
32-15,12075305,-34
32-16,12079211,7
32-17,12083117,11
32-18,12087023,-2
32-19,12090929,2
32-20,12094835,10
32-21,12098741,-20
32-22,12102647,-70
32-23,12106553,-81
32-24,12110459,-49
32-25,12114365,-30
32-26,12118271,-46
32-27,12122177,-53
32-28,12126083,-27
32-29,12129989,-2
32-30,12133895,-17
32-31,12137801,-46
32-32,12141707,-49
32-1,12145618,-42
32-2,12149524,-58
32-3,12153430,-79
32-4,12157336,-66
32-5,12161242,-24
32-6,12165148,-4
32-7,12169054,-15
32-8,12172960,-13
32-9,12176866,14
32-10,12180772,29
32-11,12184678,12
32-12,12188584,2
32-13,12192490,19
32-14,12196396,34
32-15,12200302,10
32-16,12204208,-19
32-17,12208114,-9
32-18,12212020,20
32-19,12215926,18
32-20,12219832,-12
32-21,12223738,-27
32-22,12227644,-22
32-23,12231550,-30
32-24,12235456,-56
32-25,12239362,-59
32-26,12243268,-29
32-27,12247174,-5
32-28,12251080,-14
32-29,12254986,-23
32-30,12258892,-7
32-31,12262798,3
32-32,12266704,-30
32-1,12270616,-72
32-2,12274522,-76
32-3,12278428,-50
32-4,12282334,-37
32-5,12286240,-35
32-6,12290146,-14
32-7,12294052,21
32-8,12297958,27
32-9,12301864,1
32-10,12305770,-16
32-11,12309676,-3
32-12,12313582,3
32-13,12317488,-25
32-14,12321394,-53
32-15,12325300,-44
32-16,12329206,-24
32-17,12333112,-36
32-18,12337018,-58
32-19,12340924,-52
32-20,12344830,-29
32-21,12348736,-33
32-22,12352642,-57
32-23,12356548,-53
32-24,12360454,-15
32-25,12364360,-1
32-26,12368266,-24
32-27,12372172,-37
32-28,12376078,-15
32-29,12379984,2
32-30,12383890,-30
32-31,12387796,-72
32-32,12391702,-69
32-1,12395614,-34
32-2,12399520,-22
32-3,12403426,-32
32-4,12407332,-31
32-5,12411238,-10
32-6,12415144,-8
32-7,12419050,-32
32-8,12422956,-38
32-9,12426862,-16
32-10,12430768,-6
32-11,12434674,-22
32-12,12438580,-29
32-13,12442486,-5
32-14,12446392,19
32-15,12450298,6
32-16,12454204,-19
32-17,12458110,-19
32-18,12462016,-8
32-19,12465922,-26
32-20,12469828,-53
32-21,12473734,-42
32-22,12477640,2
32-23,12481546,21
32-24,12485452,0
32-25,12489358,-15
32-26,12493264,4
32-27,12497170,21
32-28,12501076,6
32-29,12504982,-12
32-30,12508888,-7
32-31,12512794,0
32-32,12516700,-24
32-1,12520611,-50
32-2,12524517,-40
32-3,12528423,-13
32-4,12532329,-15
32-5,12536235,-44
32-6,12540141,-49
32-7,12544047,-26
32-8,12547953,-21
32-9,12551859,-46
32-10,12555765,-66
32-11,12559671,-56
32-12,12563577,-50
32-13,12567483,-74
32-14,12571389,-95
32-15,12575295,-74
32-16,12579201,-45
32-17,12583107,-54
32-18,12587013,-82
32-19,12590919,-84
32-20,12594825,-61
32-21,12598731,-54
32-22,12602637,-67
32-23,12606543,-58
32-24,12610449,-30
32-25,12614355,-31
32-26,12618261,-76
32-27,12622167,-116
32-28,12626073,-116
32-29,12629979,-99
32-30,12633885,-105
32-31,12637791,-115
32-32,12641697,-99
32-1,12645609,-80
32-2,12649515,-93
32-3,12653421,-110
32-4,12657327,-94
32-5,12661233,-44
32-6,12665139,-19
32-7,12669045,-31
32-8,12672951,-38
32-9,12676857,-26
32-10,12680763,-31
32-11,12684669,-64
32-12,12688575,-83
32-13,12692481,-56
32-14,12696387,-17
32-15,12700293,-13
32-16,12704199,-18
32-17,12708105,-3
32-18,12712011,20
32-19,12715917,14
32-20,12719823,-8
32-21,12723729,-6
32-22,12727635,21
32-23,12731541,23
32-24,12735447,-2
32-25,12739353,-8
32-26,12743259,24
32-27,12747165,49
32-28,12751071,31
32-29,12754977,4
32-30,12758883,4
32-31,12762789,4
32-32,12766695,-33
32-1,12770607,-86
32-2,12774513,-105
32-3,12778419,-93
32-4,12782325,-93
32-5,12786231,-108
32-6,12790137,-102
32-7,12794043,-75
32-8,12797949,-65
32-9,12801855,-79
32-10,12805761,-81
32-11,12809667,-58
32-12,12813573,-44
32-13,12817479,-60
32-14,12821385,-70
32-15,12825291,-47
32-16,12829197,-23
32-17,12833103,-34
32-18,12837009,-56
32-19,12840915,-40
32-20,12844821,-1
32-21,12848727,6
32-22,12852633,-30
32-23,12856539,-52
32-24,12860445,-35
32-25,12864351,-19
32-26,12868257,-25
32-27,12872163,-24
32-28,12876069,2
32-29,12879975,24
32-30,12883881,7
32-31,12887787,-21
32-32,12891693,-22
32-1,12895604,-7
32-2,12899510,-7
32-3,12903416,-11
32-4,12907322,4
32-5,12911228,31
32-6,12915134,22
32-7,12919040,-18
32-8,12922946,-37
32-9,12926852,-17
32-10,12930758,-3
32-11,12934664,-19
32-12,12938570,-27
32-13,12942476,-2
32-14,12946382,21
32-15,12950288,6
32-16,12954194,-21
32-17,12958100,-21
32-18,12962006,-5
32-19,12965912,-15
32-20,12969818,-40
32-21,12973724,-40
32-22,12977630,-17
32-23,12981536,-17
32-24,12985442,-45
32-25,12989348,-53
32-26,12993254,-14
32-27,12997160,25
32-28,13001066,21
32-29,13004972,0
32-30,13008878,-8
32-31,13012784,-16
32-32,13016690,-48
32-1,13020602,-72
32-2,13024508,-57
32-3,13028414,-20
32-4,13032320,-14
32-5,13036226,-33
32-6,13040132,-27
32-7,13044038,7
32-8,13047944,26
32-9,13051850,11
32-10,13055756,-6
32-11,13059662,3
32-12,13063568,4
32-13,13067474,-30
32-14,13071380,-66
32-15,13075286,-69
32-16,13079192,-55
32-17,13083098,-59
32-18,13087004,-68
32-19,13090910,-51
32-20,13094816,-20
32-21,13098722,-19
32-22,13102628,-41
32-23,13106534,-36
32-24,13110440,-2
32-25,13114346,11
32-26,13118252,-14
32-27,13122158,-32
32-28,13126064,-17
32-29,13129970,-6
32-30,13133876,-35
32-31,13137782,-76
32-32,13141688,-86
32-1,13145599,-78
32-2,13149505,-93
32-3,13153411,-115
32-4,13157317,-102
32-5,13161223,-63
32-6,13165129,-50
32-7,13169035,-79
32-8,13172941,-103
32-9,13176847,-100
32-10,13180753,-102
32-11,13184659,-125
32-12,13188565,-132
32-13,13192471,-103
32-14,13196377,-70
32-15,13200283,-75
32-16,13204189,-92
32-17,13208095,-83
32-18,13212001,-60
32-19,13215907,-70
32-20,13219813,-102
32-21,13223719,-114
32-22,13227625,-100
32-23,13231531,-99
32-24,13235437,-122
32-25,13239343,-127
32-26,13243249,-102
32-27,13247155,-80
32-28,13251061,-87
32-29,13254967,-87
32-30,13258873,-54
32-31,13262779,-17
32-32,13266685,-13
32-1,13270597,-19
32-2,13274503,1
32-3,13278409,29
32-4,13282315,18
32-5,13286221,-27
32-6,13290127,-56
32-7,13294033,-49
32-8,13297939,-40
32-9,13301845,-51
32-10,13305751,-45
32-11,13309657,-15
32-12,13313563,-3
32-13,13317469,-34
32-14,13321375,-65
32-15,13325281,-57
32-16,13329187,-37
32-17,13333093,-49
32-18,13336999,-68
32-19,13340905,-47
32-20,13344811,-1
32-21,13348717,16
32-22,13352623,-5
32-23,13356529,-18
32-24,13360435,-8
32-25,13364341,-14
32-26,13368247,-46
32-27,13372153,-72
32-28,13376059,-65
32-29,13379965,-66
32-30,13383871,-107
32-31,13387777,-142
32-32,13391683,-122
32-1,13395595,-69
32-2,13399501,-45
32-3,13403407,-50
32-4,13407313,-44
32-5,13411219,-13
32-6,13415125,2
32-7,13419031,-9
32-8,13422937,-5
32-9,13426843,26
32-10,13430749,45
32-11,13434655,26
32-12,13438561,-1
32-13,13442467,-2
32-14,13446373,0
32-15,13450279,-29
32-16,13454185,-61
32-17,13458091,-56
32-18,13461997,-27
32-19,13465903,-21
32-20,13469809,-32
32-21,13473715,-23
32-22,13477621,11
32-23,13481527,26
32-24,13485433,6
32-25,13489339,-13
32-26,13493245,-7
32-27,13497151,-3
32-28,13501057,-29
32-29,13504963,-55
32-30,13508869,-53
32-31,13512775,-40
32-32,13516681,-45
32-1,13520592,-53
32-2,13524498,-35
32-3,13528404,-9
32-4,13532310,-20
32-5,13536216,-49
32-6,13540122,-49
32-7,13544028,-17
32-8,13547934,3
32-9,13551840,-7
32-10,13555746,-15
32-11,13559652,-3
32-12,13563558,-5
32-13,13567464,-40
32-14,13571370,-65
32-15,13575276,-47
32-16,13579182,-13
32-17,13583088,-13
32-18,13586994,-36
32-19,13590900,-33
32-20,13594806,-3
32-21,13598712,7
32-22,13602618,-9
32-23,13606524,-8
32-24,13610430,21
32-25,13614336,36
32-26,13618242,19
32-27,13622148,9
32-28,13626054,27
32-29,13629960,39
32-30,13633866,10
32-31,13637772,-24
32-32,13641678,-20
32-1,13645590,5
32-2,13649496,11
32-3,13653402,2
32-4,13657308,11
32-5,13661214,36
32-6,13665120,27
32-7,13669026,-16
32-8,13672932,-45
32-9,13676838,-37
32-10,13680744,-30
32-11,13684650,-49
32-12,13688556,-61
32-13,13692462,-37
32-14,13696368,-9
32-15,13700274,-16
32-16,13704180,-40
32-17,13708086,-44
32-18,13711992,-37
32-19,13715898,-54
32-20,13719804,-85
32-21,13723710,-86
32-22,13727616,-62
32-23,13731522,-59
32-24,13735428,-84
32-25,13739334,-90
32-26,13743240,-56
32-27,13747146,-25
32-28,13751052,-29
32-29,13754958,-32
32-30,13758864,-2
32-31,13762770,33
32-32,13766676,27
32-1,13770588,-1
32-2,13774494,-10
32-3,13778400,3
32-4,13782306,-5
32-5,13786212,-31
32-6,13790118,-33
32-7,13794024,-12
32-8,13797930,-10
32-9,13801836,-46
32-10,13805742,-73
32-11,13809648,-62
32-12,13813554,-49
32-13,13817460,-66
32-14,13821366,-83
32-15,13825272,-63
32-16,13829178,-22
32-17,13833084,-11
32-18,13836990,-19
32-19,13840896,-12
32-20,13844802,6
32-21,13848708,1
32-22,13852614,-28
32-23,13856520,-41
32-24,13860426,-32
32-25,13864332,-40
32-26,13868238,-72
32-27,13872144,-82
32-28,13876050,-47
32-29,13879956,-11
32-30,13883862,-22
32-31,13887768,-49
32-32,13891674,-49
32-1,13895585,-33
32-2,13899491,-41
32-3,13903397,-61
32-4,13907303,-58
32-5,13911209,-35
32-6,13915115,-39
32-7,13919021,-74
32-8,13922927,-89
32-9,13926833,-67
32-10,13930739,-49
32-11,13934645,-60
32-12,13938551,-70
32-13,13942457,-51
32-14,13946363,-34
32-15,13950269,-56
32-16,13954175,-80
32-17,13958081,-65
32-18,13961987,-23
32-19,13965893,-6
32-20,13969799,-20
32-21,13973705,-20
32-22,13977611,-2
32-23,13981517,-5
32-24,13985423,-39
32-25,13989329,-53
32-26,13993235,-24
32-27,13997141,6
32-28,14001047,-1
32-29,14004953,-17
32-30,14008859,-6
32-31,14012765,19
32-32,14016671,18
32-1,14020583,4
32-2,14024489,5
32-3,14028395,7
32-4,14032301,-22
32-5,14036207,-61
32-6,14040113,-62
32-7,14044019,-20
32-8,14047925,7
32-9,14051831,-8
32-10,14055737,-23
32-11,14059643,-6
32-12,14063549,13
32-13,14067455,-4
32-14,14071361,-32
32-15,14075267,-32
32-16,14079173,-16
32-17,14083079,-25
32-18,14086985,-48
32-19,14090891,-50
32-20,14094797,-41
32-21,14098703,-56
32-22,14102609,-85
32-23,14106515,-79
32-24,14110421,-31
32-25,14114327,1
32-26,14118233,-5
32-27,14122139,-19
32-28,14126045,-13
32-29,14129951,-10
32-30,14133857,-39
32-31,14137763,-68
32-32,14141669,-59
32-1,14145580,-34
32-2,14149486,-42
32-3,14153392,-73
32-4,14157298,-80
32-5,14161204,-59
32-6,14165110,-63
32-7,14169016,-102
32-8,14172922,-122
32-9,14176828,-101
32-10,14180734,-72
32-11,14184640,-72
32-12,14188546,-75
32-13,14192452,-54
32-14,14196358,-32
32-15,14200264,-37
32-16,14204170,-42
32-17,14208076,-20
32-18,14211982,5
32-19,14215888,-15
32-20,14219794,-64
32-21,14223700,-83
32-22,14227606,-64
32-23,14231512,-51
32-24,14235418,-68
32-25,14239324,-79
32-26,14243230,-61
32-27,14247136,-50
32-28,14251042,-69
32-29,14254948,-89
32-30,14258854,-77
32-31,14262760,-52
32-32,14266666,-56
32-1,14270670,-70
32-2,14274576,-54
32-3,14278482,-16
32-4,14282388,-3
32-5,14286294,-12
32-6,14290200,-12
32-7,14294106,1
32-8,14298012,-7
32-9,14301918,-44
32-10,14305824,-60
32-11,14309730,-33
32-12,14313636,-1
32-13,14317542,-10
32-14,14321448,-36
32-15,14325354,-36
32-16,14329260,-19
32-17,14333166,-22
32-18,14337072,-38
32-19,14340978,-39
32-20,14344884,-37
32-21,14348790,-61
32-22,14352696,-100
32-23,14356602,-100
32-24,14360508,-53
32-25,14364414,-24
32-26,14368320,-32
32-27,14372226,-36
32-28,14376132,-9
32-29,14380038,18
32-30,14383944,5
32-31,14387850,-24
32-32,14391756,-25
32-1,14395576,-17
32-2,14399482,-43
32-3,14403388,-84
32-4,14407294,-95
32-5,14411200,-70
32-6,14415106,-52
32-7,14419012,-54
32-8,14422918,-36
32-9,14426824,12
32-10,14430730,41
32-11,14434636,21
32-12,14438542,-4
32-13,14442448,0
32-14,14446354,7
32-15,14450260,-20
32-16,14454166,-57
32-17,14458072,-54
32-18,14461978,-17
32-19,14465884,-1
32-20,14469790,-12
32-21,14473696,-15
32-22,14477602,3
32-23,14481508,7
32-24,14485414,-14
32-25,14489320,-25
32-26,14493226,-7
32-27,14497132,7
32-28,14501038,-7
32-29,14504944,-23
32-30,14508850,-17
32-31,14512756,-12
32-32,14516662,-40
32-1,14520573,-65
32-2,14524479,-45
32-3,14528385,7
32-4,14532291,25
32-5,14536197,8
32-6,14540103,-2
32-7,14544009,9
32-8,14547915,4
32-9,14551821,-33
32-10,14555727,-62
32-11,14559633,-55
32-12,14563539,-37
32-13,14567445,-39
32-14,14571351,-43
32-15,14575257,-26
32-16,14579163,-8
32-17,14583069,-26
32-18,14586975,-54
32-19,14590881,-47
32-20,14594787,-16
32-21,14598693,-11
32-22,14602599,-37
32-23,14606505,-46
32-24,14610411,-26
32-25,14614317,-25
32-26,14618223,-66
32-27,14622129,-93
32-28,14626035,-66
32-29,14629941,-24
32-30,14633847,-17
32-31,14637753,-34
32-32,14641659,-32
32-1,14645571,-16
32-2,14649477,-25
32-3,14653383,-50
32-4,14657289,-45
32-5,14661195,-13
32-6,14665101,2
32-7,14669007,-9
32-8,14672913,-14
32-9,14676819,5
32-10,14680725,13
32-11,14684631,-18
32-12,14688537,-40
32-13,14692443,-16
32-14,14696349,23
32-15,14700255,24
32-16,14704161,3
32-17,14708067,5
32-18,14711973,30
32-19,14715879,32
32-20,14719785,14
32-21,14723691,19
32-22,14727597,51
32-23,14731503,62
32-24,14735409,35
32-25,14739315,6
32-26,14743221,8
32-27,14747127,15
32-28,14751033,0
32-29,14754939,-13
32-30,14758845,1
32-31,14762751,19
32-32,14766657,9
32-1,14770569,-6
32-2,14774475,12
32-3,14778381,48
32-4,14782287,49
32-5,14786193,20
32-6,14790099,8
32-7,14794005,24
32-8,14797911,25
32-9,14801817,-13
32-10,14805723,-50
32-11,14809629,-58
32-12,14813535,-62
32-13,14817441,-93
32-14,14821347,-124
32-15,14825253,-122
32-16,14829159,-105
32-17,14833065,-109
32-18,14836971,-118
32-19,14840877,-94
32-20,14844783,-43
32-21,14848689,-17
32-22,14852595,-30
32-23,14856501,-42
32-24,14860407,-36
32-25,14864313,-42
32-26,14868219,-68
32-27,14872125,-73
32-28,14876031,-39
32-29,14879937,-4
32-30,14883843,-5
32-31,14887749,-10
32-32,14891655,16
32-1,14895566,45
32-2,14899472,28
32-3,14903378,-20
32-4,14907284,-37
32-5,14911190,-10
32-6,14915096,6
32-7,14919002,-13
32-8,14922908,-34
32-9,14926814,-32
32-10,14930720,-36
32-11,14934626,-61
32-12,14938532,-73
32-13,14942438,-46
32-14,14946344,-13
32-15,14950250,-23
32-16,14954156,-53
32-17,14958062,-56
32-18,14961968,-37
32-19,14965874,-38
32-20,14969780,-60
32-21,14973686,-68
32-22,14977592,-57
32-23,14981498,-56
32-24,14985404,-73
32-25,14989310,-69
32-26,14993216,-31
32-27,14997122,-4
32-28,15001028,-16
32-29,15004934,-32
32-30,15008840,-18
32-31,15012746,3
32-32,15016652,-12
32-1,15020594,-46
32-2,15024500,-52
32-3,15028406,-34
32-4,15032312,-40
32-5,15036218,-62
32-6,15040124,-57
32-7,15044030,-23
32-8,15047936,-11
32-9,15051842,-38
32-10,15055748,-60
32-11,15059654,-47
32-12,15063560,-33
32-13,15067466,-49
32-14,15071372,-61
32-15,15075278,-30
32-16,15079184,17
32-17,15083090,20
32-18,15086996,-12
32-19,15090902,-22
32-20,15094808,4
32-21,15098714,20
32-22,15102620,4
32-23,15106526,-10
32-24,15110432,-3
32-25,15114338,-4
32-26,15118244,-26
32-27,15122150,-30
32-28,15126056,0
32-29,15129962,28
32-30,15133868,15
32-31,15137774,-12
32-32,15141680,-14
32-1,15145562,-3
32-2,15149468,-23
32-3,15153374,-58
32-4,15157280,-63
32-5,15161186,-33
32-6,15165092,-23
32-7,15168998,-50
32-8,15172904,-74
32-9,15176810,-71
32-10,15180716,-72
32-11,15184622,-101
32-12,15188528,-122
32-13,15192434,-106
32-14,15196340,-77
32-15,15200246,-77
32-16,15204152,-83
32-17,15208058,-67
32-18,15211964,-47
32-19,15215870,-64
32-20,15219776,-103
32-21,15223682,-105
32-22,15227588,-62
32-23,15231494,-29
32-24,15235400,-35
32-25,15239306,-48
32-26,15243212,-43
32-27,15247118,-39
32-28,15251024,-52
32-29,15254930,-54
32-30,15258836,-24
32-31,15262742,6
32-32,15266648,-10
32-1,15270559,-50
32-2,15274465,-60
32-3,15278371,-43
32-4,15282277,-43
32-5,15286183,-60
32-6,15290089,-54
32-7,15293995,-14
32-8,15297901,15
32-9,15301807,10
32-10,15305713,7
32-11,15309619,27
32-12,15313525,40
32-13,15317431,14
32-14,15321337,-19
32-15,15325243,-22
32-16,15329149,-9
32-17,15333055,-25
32-18,15336961,-52
32-19,15340867,-46
32-20,15344773,-13
32-21,15348679,4
32-22,15352585,-7
32-23,15356491,-6
32-24,15360397,12
32-25,15364303,14
32-26,15368209,-12
32-27,15372115,-29
32-28,15376021,-8
32-29,15379927,13
32-30,15383833,-5
32-31,15387739,-38
32-32,15391645,-45
32-1,15395557,-35
32-2,15399463,-50
32-3,15403369,-81
32-4,15407275,-78
32-5,15411181,-34
32-6,15415087,-1
32-7,15418993,-1
32-8,15422899,-7
32-9,15426805,-5
32-10,15430711,-21
32-11,15434617,-70
32-12,15438523,-107
32-13,15442429,-101
32-14,15446335,-77
32-15,15450241,-71
32-16,15454147,-67
32-17,15458053,-40
32-18,15461959,-13
32-19,15465865,-27
32-20,15469771,-63
32-21,15473677,-68
32-22,15477583,-35
32-23,15481489,-17
32-24,15485395,-38
32-25,15489301,-62
32-26,15493207,-56
32-27,15497113,-52
32-28,15501019,-74
32-29,15504925,-87
32-30,15508831,-64
32-31,15512737,-29
32-32,15516643,-27
32-1,15520615,-39
32-2,15524521,-29
32-3,15528427,-6
32-4,15532333,-18
32-5,15536239,-55
32-6,15540145,-70
32-7,15544051,-52
32-8,15547957,-48
32-9,15551863,-74
32-10,15555769,-84
32-11,15559675,-49
32-12,15563581,-13
32-13,15567487,-16
32-14,15571393,-31
32-15,15575299,-11
32-16,15579205,24
32-17,15583111,23
32-18,15587017,-7
32-19,15590923,-15
32-20,15594829,11
32-21,15598735,26
32-22,15602641,6
32-23,15606547,-15
32-24,15610453,-19
32-25,15614359,-29
32-26,15618265,-49
32-27,15622171,-50
32-28,15626077,-21
32-29,15629983,-1
32-30,15633889,-24
32-31,15637795,-46
32-32,15641701,-24
32-1,15645552,15
32-2,15649458,16
32-3,15653364,-10
32-4,15657270,-11
32-5,15661176,19
32-6,15665082,28
32-7,15668988,0
32-8,15672894,-12
32-9,15676800,16
32-10,15680706,36
32-11,15684612,13
32-12,15688518,-18
32-13,15692424,-14
32-14,15696330,10
32-15,15700236,10
32-16,15704142,-3
32-17,15708048,7
32-18,15711954,32
32-19,15715860,26
32-20,15719766,-13
32-21,15723672,-41
32-22,15727578,-41
32-23,15731484,-46
32-24,15735390,-67
32-25,15739296,-65
32-26,15743202,-24
32-27,15747108,13
32-28,15751014,8
32-29,15754920,-9
32-30,15758826,-4
32-31,15762732,6
32-32,15766638,-15
32-1,15770580,-45
32-2,15774486,-41
32-3,15778392,-8
32-4,15782298,2
32-5,15786204,-8
32-6,15790110,-3
32-7,15794016,25
32-8,15797922,35
32-9,15801828,8
32-10,15805734,-15
32-11,15809640,-5
32-12,15813546,14
32-13,15817452,7
32-14,15821358,-2
32-15,15825264,12
32-16,15829170,31
32-17,15833076,16
32-18,15836982,-17
32-19,15840888,-16
32-20,15844794,15
32-21,15848700,23
32-22,15852606,4
32-23,15856512,1
32-24,15860418,27
32-25,15864324,35
32-26,15868230,7
32-27,15872136,-11
32-28,15876042,11
32-29,15879948,32
32-30,15883854,4
32-31,15887760,-45
32-32,15891666,-52
32-1,15895547,-23
32-2,15899453,-11
32-3,15903359,-25
32-4,15907265,-27
32-5,15911171,-7
32-6,15915077,-5
32-7,15918983,-37
32-8,15922889,-68
32-9,15926795,-72
32-10,15930701,-75
32-11,15934607,-98
32-12,15938513,-107
32-13,15942419,-75
32-14,15946325,-32
32-15,15950231,-24
32-16,15954137,-36
32-17,15958043,-22
32-18,15961949,11
32-19,15965855,18
32-20,15969761,-7
32-21,15973667,-17
32-22,15977573,-3
32-23,15981479,-3
32-24,15985385,-33
32-25,15989291,-53
32-26,15993197,-38
32-27,15997103,-21
32-28,16001009,-34
32-29,16004915,-56
32-30,16008821,-50
32-31,16012727,-29
32-32,16016633,-34
32-1,16020545,-59
32-2,16024451,-69
32-3,16028357,-69
32-4,16032263,-87
32-5,16036169,-110
32-6,16040075,-98
32-7,16043981,-51
32-8,16047887,-27
32-9,16051793,-49
32-10,16055699,-69
32-11,16059605,-50
32-12,16063511,-18
32-13,16067417,-11
32-14,16071323,-11
32-15,16075229,16
32-16,16079135,47
32-17,16083041,35
32-18,16086947,-5
32-19,16090853,-24
32-20,16094759,-17
32-21,16098665,-22
32-22,16102571,-50
32-23,16106477,-64
32-24,16110383,-52
32-25,16114289,-52
32-26,16118195,-78
32-27,16122101,-83
32-28,16126007,-43
32-29,16129913,2
32-30,16133819,-4
32-31,16137725,-41
32-32,16141631,-55
32-1,16145665,-47
32-2,16149571,-57
32-3,16153477,-77
32-4,16157383,-72
32-5,16161289,-40
32-6,16165195,-28
32-7,16169101,-54
32-8,16173007,-67
32-9,16176913,-40
32-10,16180819,-16
32-11,16184725,-28
32-12,16188631,-47
32-13,16192537,-37
32-14,16196443,-12
32-15,16200349,-14
32-16,16204255,-24
32-17,16208161,-3
32-18,16212067,31
32-19,16215973,32
32-20,16219879,3
32-21,16223785,-6
32-22,16227691,15
32-23,16231597,16
32-24,16235503,-23
32-25,16239409,-55
32-26,16243315,-47
32-27,16247221,-31
32-28,16251127,-56
32-29,16255033,-99
32-30,16258939,-110
32-31,16262845,-89
32-32,16266751,-73
32-1,16270540,-63
32-2,16274446,-39
32-3,16278352,-7
32-4,16282258,-8
32-5,16286164,-31
32-6,16290070,-30
32-7,16293976,2
32-8,16297882,23
32-9,16301788,8
32-10,16305694,-12
32-11,16309600,-10
32-12,16313506,-9
32-13,16317412,-37
32-14,16321318,-62
32-15,16325224,-51
32-16,16329130,-28
32-17,16333036,-39
32-18,16336942,-71
32-19,16340848,-73
32-20,16344754,-51
32-21,16348660,-53
32-22,16352566,-84
32-23,16356472,-92
32-24,16360378,-59
32-25,16364284,-32
32-26,16368190,-37
32-27,16372096,-42
32-28,16376002,-17
32-29,16379908,9
32-30,16383814,-3
32-31,16387720,-32
32-32,16391626,-33
32-1,16395538,-14
32-2,16399444,-27
32-3,16403350,-73
32-4,16407256,-105
32-5,16411162,-99
32-6,16415068,-88
32-7,16418974,-91
32-8,16422880,-84
32-9,16426786,-61
32-10,16430692,-57
32-11,16434598,-88
32-12,16438504,-111
32-13,16442410,-97
32-14,16446316,-78
32-15,16450222,-90
32-16,16454128,-108
32-17,16458034,-87
32-18,16461940,-49
32-19,16465846,-46
32-20,16469752,-77
32-21,16473658,-89
32-22,16477564,-64
32-23,16481470,-41
32-24,16485376,-42
32-25,16489282,-36
32-26,16493188,-2
32-27,16497094,23
32-28,16501000,2
32-29,16504906,-29
32-30,16508812,-26
32-31,16512718,-3
32-32,16516624,-10
32-1,16520566,-39
32-2,16524472,-49
32-3,16528378,-38
32-4,16532284,-41
32-5,16536190,-59
32-6,16540096,-60
32-7,16544002,-41
32-8,16547908,-41
32-9,16551814,-73
32-10,16555720,-95
32-11,16559626,-81
32-12,16563532,-59
32-13,16567438,-57
32-14,16571344,-53
32-15,16575250,-24
32-16,16579156,3
32-17,16583062,-24
32-18,16586968,-75
32-19,16590874,-84
32-20,16594780,-48
32-21,16598686,-25
32-22,16602592,-40
32-23,16606498,-51
32-24,16610404,-26
32-25,16614310,-2
32-26,16618216,-8
32-27,16622122,-18
32-28,16626028,-9
32-29,16629934,-1
32-30,16633840,-17
32-31,16637746,-38
32-32,16641652,-25
32-1,16645533,2
32-2,16649439,-7
32-3,16653345,-40
32-4,16657251,-55
32-5,16661157,-41
32-6,16665063,-41
32-7,16668969,-71
32-8,16672875,-86
32-9,16676781,-66
32-10,16680687,-51
32-11,16684593,-72
32-12,16688499,-90
32-13,16692405,-72
32-14,16696311,-42
32-15,16700217,-49
32-16,16704123,-71
32-17,16708029,-61
32-18,16711935,-26
32-19,16715841,-10
32-20,16719747,-24
32-21,16723653,-31
32-22,16727559,-17
32-23,16731465,-16
32-24,16735371,-40
32-25,16739277,-51
32-26,16743183,-27
32-27,16747089,-1
32-28,16750995,-14
32-29,16754901,-42
32-30,16758807,-46
32-31,16762713,-41
32-32,16766619,-61
32-1,16770683,-89
32-2,16774589,-84
32-3,16778495,-51
32-4,16782401,-40
32-5,16786307,-52
32-6,16790213,-45
32-7,16794119,-12
32-8,16798025,3
32-9,16801931,-22
32-10,16805837,-44
32-11,16809743,-31
32-12,16813649,-9
32-13,16817555,-18
32-14,16821461,-33
32-15,16825367,-15
32-16,16829273,16
32-17,16833179,12
32-18,16837085,-21
32-19,16840991,-30
32-20,16844897,-8
32-21,16848803,-1
32-22,16852709,-23
32-23,16856615,-39
32-24,16860521,-29
32-25,16864427,-22
32-26,16868333,-39
32-27,16872239,-43
32-28,16876145,-17
32-29,16880051,9
32-30,16883957,-5
32-31,16887863,-33
32-32,16891769,-28
32-1,16895528,-2
32-2,16899434,-4
32-3,16903340,-35
32-4,16907246,-49
32-5,16911152,-26
32-6,16915058,-17
32-7,16918964,-45
32-8,16922870,-65
32-9,16926776,-52
32-10,16930682,-33
32-11,16934588,-41
32-12,16938494,-56
32-13,16942400,-42
32-14,16946306,-18
32-15,16950212,-27
32-16,16954118,-52
32-17,16958024,-58
32-18,16961930,-41
32-19,16965836,-42
32-20,16969742,-67
32-21,16973648,-77
32-22,16977554,-59
32-23,16981460,-50
32-24,16985366,-69
32-25,16989272,-87
32-26,16993178,-79
32-27,16997084,-70
32-28,17000990,-86
32-29,17004896,-98
32-30,17008802,-78
32-31,17012708,-50
32-32,17016614,-53
32-1,17020526,-72
32-2,17024432,-66
32-3,17028338,-39
32-4,17032244,-37
32-5,17036150,-59
32-6,17040056,-62
32-7,17043962,-35
32-8,17047868,-18
32-9,17051774,-40
32-10,17055680,-67
32-11,17059586,-65
32-12,17063492,-58
32-13,17067398,-77
32-14,17071304,-89
32-15,17075210,-59
32-16,17079116,-5
32-17,17083022,15
32-18,17086928,0
32-19,17090834,-6
32-20,17094740,5
32-21,17098646,3
32-22,17102552,-20
32-23,17106458,-24
32-24,17110364,0
32-25,17114270,6
32-26,17118176,-28
32-27,17122082,-55
32-28,17125988,-33
32-29,17129894,8
32-30,17133800,10
32-31,17137706,-12
32-32,17141612,-13
32-1,17145524,10
32-2,17149430,11
32-3,17153336,-11
32-4,17157242,-16
32-5,17161148,11
32-6,17165054,33
32-7,17168960,30
32-8,17172866,26
32-9,17176772,37
32-10,17180678,34
32-11,17184584,4
32-12,17188490,-16
32-13,17192396,-3
32-14,17196302,16
32-15,17200208,-3
32-16,17204114,-31
32-17,17208020,-16
32-18,17211926,25
32-19,17215832,35
32-20,17219738,-1
32-21,17223644,-29
32-22,17227550,-21
32-23,17231456,-8
32-24,17235362,-15
32-25,17239268,-16
32-26,17243174,7
32-27,17247080,22
32-28,17250986,-2
32-29,17254892,-32
32-30,17258798,-35
32-31,17262704,-22
32-32,17266610,-31
32-1,17270521,-46
32-2,17274427,-31
32-3,17278333,7
32-4,17282239,15
32-5,17286145,-7
32-6,17290051,-18
32-7,17293957,-4
32-8,17297863,-1
32-9,17301769,-27
32-10,17305675,-51
32-11,17309581,-49
32-12,17313487,-52
32-13,17317393,-88
32-14,17321299,-113
32-15,17325205,-85
32-16,17329111,-31
32-17,17333017,-11
32-18,17336923,-30
32-19,17340829,-37
32-20,17344735,-17
32-21,17348641,-11
32-22,17352547,-27
32-23,17356453,-25
32-24,17360359,10
32-25,17364265,37
32-26,17368171,28
32-27,17372077,23
32-28,17375983,47
32-29,17379889,68
32-30,17383795,37
32-31,17387701,-16
32-32,17391607,-32
32-1,17395672,-6
32-2,17399578,7
32-3,17403484,-6
32-4,17407390,-12
32-5,17411296,1
32-6,17415202,-3
32-7,17419108,-33
32-8,17423014,-51
32-9,17426920,-36
32-10,17430826,-18
32-11,17434732,-29
32-12,17438638,-38
32-13,17442544,-22
32-14,17446450,-8
32-15,17450356,-31
32-16,17454262,-64
32-17,17458168,-62
32-18,17462074,-34
32-19,17465980,-28
32-20,17469886,-49
32-21,17473792,-50
32-22,17477698,-18
32-23,17481604,1
32-24,17485510,-17
32-25,17489416,-33
32-26,17493322,-16
32-27,17497228,7
32-28,17501134,-1
32-29,17505040,-14
32-30,17508946,-5
32-31,17512852,4
32-32,17516758,-28
32-1,17520517,-77
32-2,17524423,-91
32-3,17528329,-74
32-4,17532235,-75
32-5,17536141,-103
32-6,17540047,-106
32-7,17543953,-66
32-8,17547859,-30
32-9,17551765,-34
32-10,17555671,-46
32-11,17559577,-33
32-12,17563483,-16
32-13,17567389,-27
32-14,17571295,-45
32-15,17575201,-36
32-16,17579107,-13
32-17,17583013,-21
32-18,17586919,-50
32-19,17590825,-58
32-20,17594731,-38
32-21,17598637,-36
32-22,17602543,-67
32-23,17606449,-95
32-24,17610355,-98
32-25,17614261,-103
32-26,17618167,-123
32-27,17622073,-124
32-28,17625979,-87
32-29,17629885,-52
32-30,17633791,-69
32-31,17637697,-109
32-32,17641603,-113
32-1,17645514,-83
32-2,17649420,-70
32-3,17653326,-80
32-4,17657232,-76
32-5,17661138,-48
32-6,17665044,-34
32-7,17668950,-45
32-8,17672856,-42
32-9,17676762,-8
32-10,17680668,18
32-11,17684574,2
32-12,17688480,-21
32-13,17692386,-12
32-14,17696292,9
32-15,17700198,3
32-16,17704104,-13
32-17,17708010,3
32-18,17711916,43
32-19,17715822,56
32-20,17719728,36
32-21,17723634,27
32-22,17727540,40
32-23,17731446,33
32-24,17735352,-9
32-25,17739258,-40
32-26,17743164,-21
32-27,17747070,11
32-28,17750976,5
32-29,17754882,-21
32-30,17758788,-26
32-31,17762694,-15
32-32,17766600,-26
32-1,17770512,-51
32-2,17774418,-52
32-3,17778324,-31
32-4,17782230,-30
32-5,17786136,-54
32-6,17790042,-66
32-7,17793948,-55
32-8,17797854,-49
32-9,17801760,-62
32-10,17805666,-56
32-11,17809572,-15
32-12,17813478,17
32-13,17817384,-3
32-14,17821290,-40
32-15,17825196,-39
32-16,17829102,-9
32-17,17833008,-4
32-18,17836914,-26
32-19,17840820,-32
32-20,17844726,-17
32-21,17848632,-15
32-22,17852538,-39
32-23,17856444,-50
32-24,17860350,-29
32-25,17864256,-9
32-26,17868162,-15
32-27,17872068,-15
32-28,17875974,12
32-29,17879880,34
32-30,17883786,12
32-31,17887692,-27
32-32,17891598,-33
32-1,17895509,-12
32-2,17899415,-17
32-3,17903321,-43
32-4,17907227,-44
32-5,17911133,-13
32-6,17915039,3
32-7,17918945,-21
32-8,17922851,-45
32-9,17926757,-36
32-10,17930663,-19
32-11,17934569,-26
32-12,17938475,-29
32-13,17942381,-2
32-14,17946287,26
32-15,17950193,14
32-16,17954099,-16
32-17,17958005,-19
32-18,17961911,3
32-19,17965817,-2
32-20,17969723,-37
32-21,17973629,-56
32-22,17977535,-40
32-23,17981441,-24
32-24,17985347,-37
32-25,17989253,-49
32-26,17993159,-30
32-27,17997065,-7
32-28,18000971,-19
32-29,18004877,-41
32-30,18008783,-46
32-31,18012689,-47
32-32,18016595,-75
32-1,18020538,-112
32-2,18024444,-118
32-3,18028350,-99
32-4,18032256,-100
32-5,18036162,-120
32-6,18040068,-115
32-7,18043974,-71
32-8,18047880,-32
32-9,18051786,-30
32-10,18055692,-32
32-11,18059598,-3
32-12,18063504,27
32-13,18067410,17
32-14,18071316,-7
32-15,18075222,-6
32-16,18079128,10
32-17,18083034,-3
32-18,18086940,-38
32-19,18090846,-49
32-20,18094752,-31
32-21,18098658,-30
32-22,18102564,-52
32-23,18106470,-56
32-24,18110376,-26
32-25,18114282,-5
32-26,18118188,-26
32-27,18122094,-52
32-28,18126000,-44
32-29,18129906,-19
32-30,18133812,-25
32-31,18137718,-55
32-32,18141624,-68
32-1,18145505,-58
32-2,18149411,-62
32-3,18153317,-75
32-4,18157223,-68
32-5,18161129,-47
32-6,18165035,-56
32-7,18168941,-98
32-8,18172847,-122
32-9,18176753,-100
32-10,18180659,-73
32-11,18184565,-78
32-12,18188471,-85
32-13,18192377,-67
32-14,18196283,-42
32-15,18200189,-54
32-16,18204095,-83
32-17,18208001,-79
32-18,18211907,-49
32-19,18215813,-42
32-20,18219719,-65
32-21,18223625,-69
32-22,18227531,-43
32-23,18231437,-28
32-24,18235343,-46
32-25,18239249,-56
32-26,18243155,-19
32-27,18247061,32
32-28,18250967,43
32-29,18254873,25
32-30,18258779,13
32-31,18262685,3
32-32,18266591,-32
32-1,18270502,-73
32-2,18274408,-74
32-3,18278314,-43
32-4,18282220,-38
32-5,18286126,-65
32-6,18290032,-76
32-7,18293938,-48
32-8,18297844,-12
32-9,18301750,-9
32-10,18305656,-11
32-11,18309562,5
32-12,18313468,22
32-13,18317374,11
32-14,18321280,-5
32-15,18325186,9
32-16,18329092,35
32-17,18332998,23
32-18,18336904,-16
32-19,18340810,-31
32-20,18344716,-11
32-21,18348622,-2
32-22,18352528,-26
32-23,18356434,-46
32-24,18360340,-43
32-25,18364246,-46
32-26,18368152,-68
32-27,18372058,-77
32-28,18375964,-51
32-29,18379870,-24
32-30,18383776,-43
32-31,18387682,-79
32-32,18391588,-79
32-1,18395500,-47
32-2,18399406,-33
32-3,18403312,-40
32-4,18407218,-32
32-5,18411124,4
32-6,18415030,21
32-7,18418936,3
32-8,18422842,-10
32-9,18426748,10
32-10,18430654,31
32-11,18434560,14
32-12,18438466,-16
32-13,18442372,-20
32-14,18446278,-10
32-15,18450184,-28
32-16,18454090,-52
32-17,18457996,-43
32-18,18461902,-12
32-19,18465808,-6
32-20,18469714,-26
32-21,18473620,-27
32-22,18477526,2
32-23,18481432,15
32-24,18485338,-12
32-25,18489244,-39
32-26,18493150,-28
32-27,18497056,0
32-28,18500962,6
32-29,18504868,5
32-30,18508774,16
32-31,18512680,25
32-32,18516586,-5
32-1,18520498,-54
32-2,18524404,-67
32-3,18528310,-41
32-4,18532216,-28
32-5,18536122,-38
32-6,18540028,-38
32-7,18543934,-11
32-8,18547840,3
32-9,18551746,-19
32-10,18555652,-44
32-11,18559558,-42
32-12,18563464,-39
32-13,18567370,-67
32-14,18571276,-90
32-15,18575182,-69
32-16,18579088,-17
32-17,18582994,3
32-18,18586900,-16
32-19,18590806,-30
32-20,18594712,-22
32-21,18598618,-20
32-22,18602524,-37
32-23,18606430,-40
32-24,18610336,-18
32-25,18614242,-7
32-26,18618148,-21
32-27,18622054,-24
32-28,18625960,12
32-29,18629866,52
32-30,18633772,50
32-31,18637678,34
32-32,18641584,55
32-1,18645495,100
32-2,18649401,104
32-3,18653307,60
32-4,18657213,24
32-5,18661119,24
32-6,18665025,26
32-7,18668931,1
32-8,18672837,-20
32-9,18676743,-10
32-10,18680649,5
32-11,18684555,-8
32-12,18688461,-22
32-13,18692367,-8
32-14,18696273,14
32-15,18700179,3
32-16,18704085,-25
32-17,18707991,-28
32-18,18711897,-5
32-19,18715803,-3
32-20,18719709,-31
32-21,18723615,-44
32-22,18727521,-29
32-23,18731427,-26
32-24,18735333,-55
32-25,18739239,-76
32-26,18743145,-56
32-27,18747051,-29
32-28,18750957,-42
32-29,18754863,-70
32-30,18758769,-69
32-31,18762675,-50
32-32,18766581,-51
32-1,18770523,-74
32-2,18774429,-78
32-3,18778335,-53
32-4,18782241,-46
32-5,18786147,-68
32-6,18790053,-80
32-7,18793959,-63
32-8,18797865,-42
32-9,18801771,-44
32-10,18805677,-39
32-11,18809583,-4
32-12,18813489,34
32-13,18817395,31
32-14,18821301,10
32-15,18825207,5
32-16,18829113,15
32-17,18833019,1
32-18,18836925,-31
32-19,18840831,-37
32-20,18844737,-20
32-21,18848643,-22
32-22,18852549,-54
32-23,18856455,-68
32-24,18860361,-50
32-25,18864267,-43
32-26,18868173,-73
32-27,18872079,-94
32-28,18875985,-69
32-29,18879891,-37
32-30,18883797,-48
32-31,18887703,-85
32-32,18891609,-91
32-1,18895490,-62
32-2,18899396,-55
32-3,18903302,-80
32-4,18907208,-91
32-5,18911114,-70
32-6,18915020,-52
32-7,18918926,-65
32-8,18922832,-78
32-9,18926738,-61
32-10,18930644,-41
32-11,18934550,-47
32-12,18938456,-53
32-13,18942362,-30
32-14,18946268,-3
32-15,18950174,-14
32-16,18954080,-48
32-17,18957986,-54
32-18,18961892,-28
32-19,18965798,-20
32-20,18969704,-37
32-21,18973610,-44
32-22,18977516,-28
32-23,18981422,-27
32-24,18985328,-54
32-25,18989234,-63
32-26,18993140,-23
32-27,18997046,24
32-28,19000952,28
32-29,19004858,7
32-30,19008764,1
32-31,19012670,9
32-32,19016576,-11
32-1,19020488,-51
32-2,19024394,-66
32-3,19028300,-53
32-4,19032206,-56
32-5,19036112,-86
32-6,19040018,-101
32-7,19043924,-83
32-8,19047830,-64
32-9,19051736,-73
32-10,19055642,-80
32-11,19059548,-60
32-12,19063454,-33
32-13,19067360,-27
32-14,19071266,-28
32-15,19075172,-5
32-16,19079078,21
32-17,19082984,5
32-18,19086890,-40
32-19,19090796,-56
32-20,19094702,-31
32-21,19098608,-18
32-22,19102514,-37
32-23,19106420,-48
32-24,19110326,-30
32-25,19114232,-18
32-26,19118138,-36
32-27,19122044,-48
32-28,19125950,-22
32-29,19129856,11
32-30,19133762,0
32-31,19137668,-37
32-32,19141574,-50
32-1,19145486,-37
32-2,19149392,-42
32-3,19153298,-69
32-4,19157204,-79
32-5,19161110,-54
32-6,19165016,-38
32-7,19168922,-56
32-8,19172828,-75
32-9,19176734,-64
32-10,19180640,-51
32-11,19184546,-63
32-12,19188452,-70
32-13,19192358,-36
32-14,19196264,13
32-15,19200170,20
32-16,19204076,-9
32-17,19207982,-29
32-18,19211888,-28
32-19,19215794,-37
32-20,19219700,-60
32-21,19223606,-59
32-22,19227512,-27
32-23,19231418,-5
32-24,19235324,-19
32-25,19239230,-40
32-26,19243136,-31
32-27,19247042,-15
32-28,19250948,-27
32-29,19254854,-48
32-30,19258760,-48
32-31,19262666,-44
32-32,19266572,-64
32-1,19270483,-90
32-2,19274389,-80
32-3,19278295,-41
32-4,19282201,-27
32-5,19286107,-45
32-6,19290013,-58
32-7,19293919,-48
32-8,19297825,-46
32-9,19301731,-70
32-10,19305637,-86
32-11,19309543,-65
32-12,19313449,-43
32-13,19317355,-62
32-14,19321261,-92
32-15,19325167,-83
32-16,19329073,-46
32-17,19332979,-37
32-18,19336885,-60
32-19,19340791,-64
32-20,19344697,-31
32-21,19348603,-10
32-22,19352509,-19
32-23,19356415,-24
32-24,19360321,-4
32-25,19364227,1
32-26,19368133,-34
32-27,19372039,-70
32-28,19375945,-68
32-29,19379851,-52
32-30,19383757,-70
32-31,19387663,-105
32-32,19391569,-108
32-1,19395481,-77
32-2,19399387,-60
32-3,19403293,-65
32-4,19407199,-53
32-5,19411105,-20
32-6,19415011,-8
32-7,19418917,-34
32-8,19422823,-52
32-9,19426729,-31
32-10,19430635,-8
32-11,19434541,-25
32-12,19438447,-56
32-13,19442353,-56
32-14,19446259,-35
32-15,19450165,-40
32-16,19454071,-67
32-17,19457977,-64
32-18,19461883,-32
32-19,19465789,-17
32-20,19469695,-35
32-21,19473601,-47
32-22,19477507,-34
32-23,19481413,-25
32-24,19485319,-42
32-25,19489225,-51
32-26,19493131,-28
32-27,19497037,0
32-28,19500943,-1
32-29,19504849,-3
32-30,19508755,23
32-31,19512661,55
32-32,19516567,36
32-1,19520540,-18
32-2,19524446,-41
32-3,19528352,-20
32-4,19532258,0
32-5,19536164,-3
32-6,19540070,4
32-7,19543976,35
32-8,19547882,49
32-9,19551788,22
32-10,19555694,-6
32-11,19559600,-1
32-12,19563506,18
32-13,19567412,14
32-14,19571318,0
32-15,19575224,13
32-16,19579130,48
32-17,19583036,48
32-18,19586942,16
