32-1,2628953,125
32-2,2632859,6988
32-3,2636765,5130
32-4,2640671,-4740
32-5,2644577,-3864
32-6,2648483,4912
32-7,2652389,6845
32-8,2656295,5397
32-9,2660201,5686
32-10,2664107,7067
32-11,2668013,2323
32-12,2671919,-4184
32-13,2675825,563
32-14,2679731,6499
32-15,2683637,5999
32-16,2687543,4866
32-17,2691449,5943
32-18,2695355,6358
32-19,2699261,-1485
32-20,2703167,-5791
32-21,2707073,1776
32-22,2710979,6218
32-23,2714885,4616
32-24,2718791,4180
32-25,2722697,6201
32-26,2726603,3067
32-27,2730509,-1829
32-28,2734415,-1919
32-29,2738321,-13534
32-30,2742227,-25226
32-31,2746133,-16426
32-32,2750039,-3749
32-1,2753951,4075
32-2,2757857,1934
32-3,2761763,-6511
32-4,2765669,-2007
32-5,2769575,5698
32-6,2773481,5628
32-7,2777387,4599
32-8,2781293,5645
32-9,2785199,6233
32-10,2789105,111
32-11,2793011,-3221
32-12,2796917,3011
32-13,2800823,6207
32-14,2804729,4898
32-15,2808635,4186
32-16,2812541,5873
32-17,2816447,4372
32-18,2820353,-5128
32-19,2824259,-6040
32-20,2828165,2914
32-21,2832071,5761
32-22,2835977,4282
32-23,2839883,3651
32-24,2843789,6481
32-25,2847695,1773
32-26,2851601,-13512
32-27,2855507,-9983
32-28,2859413,1186
32-29,2863319,-13113
32-30,2867225,-27380
32-31,2871131,-16362
32-32,2875037,-2883
32-1,2878948,-6035
32-2,2882854,-9845
32-3,2886760,-1376
32-4,2890666,5694
32-5,2894572,5425
32-6,2898478,4977
32-7,2902384,6465
32-8,2906290,5352
32-9,2910196,106
32-10,2914102,832
32-11,2918008,5902
32-12,2921914,6251
32-13,2925820,5199
32-14,2929726,5377
32-15,2933632,6409
32-16,2937538,3416
32-17,2941444,-1444
32-18,2945350,1721
32-19,2949256,5834
32-20,2953162,5137
32-21,2957068,4299
32-22,2960974,4990
32-23,2964880,5163
32-24,2968786,841
32-25,2972692,-702
32-26,2976598,2393
32-27,2980504,5744
32-28,2984410,5268
32-29,2988316,-12241
32-30,2992222,-23909
32-31,2996128,-14130
32-32,3000034,-19348
32-1,3003946,-32768
32-2,3007852,-32359
32-3,3011758,-30667
32-4,3015664,-31572
32-5,3019570,-28061
32-6,3023476,-18876
32-7,3027382,-14204
32-8,3031288,-18934
32-9,3035194,-16748
32-10,3039100,-6828
32-11,3043006,1042
32-12,3046912,5261
32-13,3050818,7878
32-14,3054724,12688
32-15,3058630,1591
32-16,3062536,-24356
32-17,3066442,-29938
32-18,3070348,-28253
32-19,3074254,-28763
32-20,3078160,-28263
32-21,3082066,-24695
32-22,3085972,-20765
32-23,3089878,-22369
32-24,3093784,-26616
32-25,3097690,-26164
32-26,3101596,-25094
32-27,3105502,-23582
32-28,3109408,-21330
32-29,3113314,-22147
32-30,3117220,-23142
32-31,3121126,-22265
32-32,3125032,-21688
32-1,3130561,-21377
32-2,3134467,-20798
32-3,3138373,-20310
32-4,3142279,-19725
32-5,3146185,-18891
32-6,3150091,-18198
32-7,3153997,-17821
32-8,3157903,-17494
32-9,3161809,-17048
32-10,3165715,-16457
32-11,3169621,-15888
32-12,3173527,-14753
32-13,3177433,-13261
32-14,3181339,-13263
32-15,3185245,-13936
32-16,3189151,-13632
32-17,3193057,-13068
32-18,3196963,-12669
32-19,3200869,-12085
32-20,3204775,-10755
32-21,3208681,-9673
32-22,3212587,-10196
32-23,3216493,-10706
32-24,3220399,-10218
32-25,3224305,-9830
32-26,3228211,-9502
32-27,3232117,-8564
32-28,3236023,-7722
32-29,3239929,-7806
32-30,3243835,-7867
32-31,3247741,-7433
32-32,3251647,-7215
32-1,3253941,-7046
32-2,3257847,-6708
32-3,3261753,-6422
32-4,3265659,-6133
32-5,3269565,-5735
32-6,3273471,-5388
32-7,3277377,-5211
32-8,3281283,-4995
32-9,3285189,-4734
32-10,3289095,-4463
32-11,3293001,-4087
32-12,3296907,-3730
32-13,3300813,-3468
32-14,3304719,-3284
32-15,3308625,-3141
32-16,3312531,-2914
32-17,3316437,-2667
32-18,3320343,-2414
32-19,3324249,-2053
32-20,3328155,-1776
32-21,3332061,-1652
32-22,3335967,-1532
32-23,3339873,-1401
32-24,3343779,-1237
32-25,3347685,-1038
32-26,3351591,-746
32-27,3355497,-412
32-28,3359403,-228
32-29,3363309,-95
32-30,3367215,34
32-31,3371121,81
32-32,3375027,173
32-1,3378939,329
32-2,3382845,499
32-3,3386751,712
32-4,3390657,941
32-5,3394563,1136
32-6,3398469,1252
32-7,3402375,1329
32-8,3406281,1443
32-9,3410187,1563
32-10,3414093,1680
32-11,3417999,1883
32-12,3421905,2103
32-13,3425811,2179
32-14,3429717,2219
32-15,3433623,2327
32-16,3437529,2428
32-17,3441435,2510
32-18,3445341,2648
32-19,3449247,2879
32-20,3453153,3045
32-21,3457059,3059
32-22,3460965,3064
32-23,3464871,3115
32-24,3468777,3202
32-25,3472683,3297
32-26,3476589,3388
32-27,3480495,3523
32-28,3484401,3656
32-29,3488307,3707
32-30,3492213,3679
32-31,3496119,3676
32-32,3500025,3729
32-1,3503936,3785
32-2,3507842,3919
32-3,3511748,4093
32-4,3515654,4165
32-5,3519560,4162
32-6,3523466,4128
32-7,3527372,4133
32-8,3531278,4179
32-9,3535184,4240
32-10,3539090,4423
32-11,3542996,4534
32-12,3546902,4462
32-13,3550808,4486
32-14,3554714,4554
32-15,3558620,4544
32-16,3562526,4538
32-17,3566432,4566
32-18,3570338,4731
32-19,3574244,4882
32-20,3578150,4832
32-21,3582056,4786
32-22,3585962,4806
32-23,3589868,4791
32-24,3593774,4760
32-25,3597680,4814
32-26,3601586,4942
32-27,3605492,4943
32-28,3609398,4931
32-29,3613304,5036
32-30,3617210,5011
32-31,3621116,4896
32-32,3625022,4906
32-1,3628934,5007
32-2,3632840,5096
32-3,3636746,5132
32-4,3640652,5111
32-5,3644558,5047
32-6,3648464,5040
32-7,3652370,5073
32-8,3656276,5087
32-9,3660182,5163
32-10,3664088,5165
32-11,3667994,5049
32-12,3671900,5034
32-13,3675806,5041
32-14,3679712,4969
32-15,3683618,4921
32-16,3687524,4974
32-17,3691430,5113
32-18,3695336,5148
32-19,3699242,5050
32-20,3703148,5012
32-21,3707054,5026
32-22,3710960,4979
32-23,3714866,4927
32-24,3718772,4998
32-25,3722678,5106
32-26,3726584,5057
32-27,3730490,4938
32-28,3734396,4982
32-29,3738302,5130
32-30,3742208,5072
32-31,3746114,4915
32-32,3750020,5000
32-1,3753932,5112
32-2,3757838,5062
32-3,3761744,4996
32-4,3765650,4927
32-5,3769556,4898
32-6,3773462,4893
32-7,3777368,4887
32-8,3781274,4932
32-9,3785180,4878
32-10,3789086,4757
32-11,3792992,4736
32-12,3796898,4730
32-13,3800804,4678
32-14,3804710,4622
32-15,3808616,4662
32-16,3812522,4783
32-17,3816428,4762
32-18,3820334,4629
32-19,3824240,4591
32-20,3828146,4634
32-21,3832052,4605
32-22,3835958,4559
32-23,3839864,4677
32-24,3843770,4784
32-25,3847676,4706
32-26,3851582,4624
32-27,3855488,4562
32-28,3859394,4550
32-29,3863300,4630
32-30,3867206,4629
32-31,3871112,4634
32-32,3875018,4680
32-1,3880455,4608
32-2,3884361,4488
32-3,3888267,4402
32-4,3892173,4354
32-5,3896079,4323
32-6,3899985,4345
32-7,3903891,4439
32-8,3907797,4409
32-9,3911703,4289
32-10,3915609,4265
32-11,3919515,4268
32-12,3923421,4222
32-13,3927327,4172
32-14,3931233,4239
32-15,3935139,4330
32-16,3939045,4248
32-17,3942951,4124
32-18,3946857,4106
32-19,3950763,4101
32-20,3954669,4051
32-21,3958575,4033
32-22,3962481,4104
32-23,3966387,4123
32-24,3970293,4011
32-25,3974199,3928
32-26,3978105,3914
32-27,3982011,3842
32-28,3985917,3832
32-29,3989823,3969
32-30,3993729,4008
32-31,3997635,3951
32-32,4001541,3937
32-1,4003927,3859
32-2,4007833,3770
32-3,4011739,3734
32-4,4015645,3693
32-5,4019551,3720
32-6,4023457,3768
32-7,4027363,3691
32-8,4031269,3572
32-9,4035175,3537
32-10,4039081,3543
32-11,4042987,3503
32-12,4046893,3493
32-13,4050799,3600
32-14,4054705,3635
32-15,4058611,3504
32-16,4062517,3410
32-17,4066423,3418
32-18,4070329,3419
32-19,4074235,3348
32-20,4078141,3324
32-21,4082047,3390
32-22,4085953,3336
32-23,4089859,3186
32-24,4093765,3134
32-25,4097671,3139
32-26,4101577,3121
32-27,4105483,3097
32-28,4109389,3151
32-29,4113295,3256
32-30,4117201,3220
32-31,4121107,3058
32-32,4125013,2993
32-1,4128986,3037
32-2,4132892,3038
32-3,4136798,3028
32-4,4140704,3090
32-5,4144610,3136
32-6,4148516,3084
32-7,4152422,2976
32-8,4156328,2883
32-9,4160234,2828
32-10,4164140,2794
32-11,4168046,2833
32-12,4171952,2921
32-13,4175858,2881
32-14,4179764,2735
32-15,4183670,2686
32-16,4187576,2733
32-17,4191482,2728
32-18,4195388,2686
32-19,4199294,2723
32-20,4203200,2775
32-21,4207106,2697
32-22,4211012,2565
32-23,4214918,2531
32-24,4218824,2567
32-25,4222730,2552
32-26,4226636,2533
32-27,4230542,2580
32-28,4234448,2628
32-29,4238354,2635
32-30,4242260,2540
32-31,4246166,2397
32-32,4250072,2350
32-1,4253922,2340
32-2,4257828,2375
32-3,4261734,2479
32-4,4265640,2502
32-5,4269546,2455
32-6,4273452,2384
32-7,4277358,2285
32-8,4281264,2238
32-9,4285170,2268
32-10,4289076,2354
32-11,4292982,2413
32-12,4296888,2354
32-13,4300794,2249
32-14,4304700,2203
32-15,4308606,2196
32-16,4312512,2165
32-17,4316418,2153
32-18,4320324,2226
32-19,4324230,2251
32-20,4328136,2130
32-21,4332042,2002
32-22,4335948,1979
32-23,4339854,1994
32-24,4343760,1967
32-25,4347666,2011
32-26,4351572,2136
32-27,4355478,2103
32-28,4359384,2025
32-29,4363290,2062
32-30,4367196,2000
32-31,4371102,1874
32-32,4375008,1838
32-1,4378920,1883
32-2,4382826,1993
32-3,4386732,2003
32-4,4390638,1874
32-5,4394544,1783
32-6,4398450,1718
32-7,4402356,1636
32-8,4406262,1653
32-9,4410168,1783
32-10,4414074,1813
32-11,4417980,1725
32-12,4421886,1669
32-13,4425792,1654
32-14,4429698,1649
32-15,4433604,1620
32-16,4437510,1607
32-17,4441416,1669
32-18,4445322,1678
32-19,4449228,1599
32-20,4453134,1531
32-21,4457040,1490
32-22,4460946,1451
32-23,4464852,1451
32-24,4468758,1519
32-25,4472664,1604
32-26,4476570,1610
32-27,4480476,1494
32-28,4484382,1464
32-29,4488288,1581
32-30,4492194,1518
32-31,4496100,1399
32-32,4500006,1517
32-1,4503887,1606
32-2,4507793,1527
32-3,4511699,1456
32-4,4515605,1403
32-5,4519511,1330
32-6,4523417,1283
32-7,4527323,1325
32-8,4531229,1403
32-9,4535135,1411
32-10,4539041,1361
32-11,4542947,1264
32-12,4546853,1169
32-13,4550759,1152
32-14,4554665,1164
32-15,4558571,1223
32-16,4562477,1310
32-17,4566383,1284
32-18,4570289,1214
32-19,4574195,1173
32-20,4578101,1123
32-21,4582007,1088
32-22,4585913,1066
32-23,4589819,1105
32-24,4593725,1146
32-25,4597631,1068
32-26,4601537,969
32-27,4605443,936
32-28,4609349,1010
32-29,4613255,1109
32-30,4617161,1096
32-31,4621067,1105
32-32,4624973,1158
32-1,4630471,1128
32-2,4634377,1090
32-3,4638283,1088
32-4,4642189,1059
32-5,4646095,988
32-6,4650001,973
32-7,4653907,1017
32-8,4657813,1002
32-9,4661719,956
32-10,4665625,912
32-11,4669531,880
32-12,4673437,873
32-13,4677343,854
32-14,4681249,904
32-15,4685155,972
32-16,4689061,920
32-17,4692967,847
32-18,4696873,800
32-19,4700779,751
32-20,4704685,736
32-21,4708591,797
32-22,4712497,902
32-23,4716403,922
32-24,4720309,849
32-25,4724215,782
32-26,4728121,729
32-27,4732027,697
32-28,4735933,751
32-29,4739839,870
32-30,4743745,934
32-31,4747651,925
32-32,4751557,891
32-1,4754035,854
32-2,4757941,857
32-3,4761847,827
32-4,4765753,752
32-5,4769659,799
32-6,4773565,876
32-7,4777471,833
32-8,4781377,755
32-9,4785283,695
32-10,4789189,656
32-11,4793095,643
32-12,4797001,669
32-13,4800907,758
32-14,4804813,785
32-15,4808719,721
32-16,4812625,672
32-17,4816531,634
32-18,4820437,588
32-19,4824343,548
32-20,4828249,591
32-21,4832155,689
32-22,4836061,685
32-23,4839967,616
32-24,4843873,553
32-25,4847779,505
32-26,4851685,515
32-27,4855591,528
32-28,4859497,585
32-29,4863403,693
32-30,4867309,661
32-31,4871215,565
32-32,4875121,559
32-1,4878910,513
32-2,4882816,423
32-3,4886722,438
32-4,4890628,565
32-5,4894534,633
32-6,4898440,570
32-7,4902346,520
32-8,4906252,521
32-9,4910158,493
32-10,4914064,452
32-11,4917970,478
32-12,4921876,568
32-13,4925782,603
32-14,4929688,549
32-15,4933594,502
32-16,4937500,478
32-17,4941406,437
32-18,4945312,439
32-19,4949218,544
32-20,4953124,628
32-21,4957030,607
32-22,4960936,550
32-23,4964842,494
32-24,4968748,447
32-25,4972654,402
32-26,4976560,405
32-27,4980466,483
32-28,4984372,544
32-29,4988278,561
32-30,4992184,513
32-31,4996090,443
32-32,4999996,424
32-1,5003908,374
32-2,5007814,378
32-3,5011720,486
32-4,5015626,495
32-5,5019532,441
32-6,5023438,434
32-7,5027344,427
32-8,5031250,416
32-9,5035156,416
32-10,5039062,442
32-11,5042968,451
32-12,5046874,413
32-13,5050780,400
32-14,5054686,431
32-15,5058592,426
32-16,5062498,347
32-17,5066404,312
32-18,5070310,412
32-19,5074216,457
32-20,5078122,353
32-21,5082028,293
32-22,5085934,308
32-23,5089840,263
32-24,5093746,203
32-25,5097652,274
32-26,5101558,415
32-27,5105464,423
32-28,5109370,366
32-29,5113276,406
32-30,5117182,427
32-31,5121088,359
32-32,5124994,325
32-1,5128906,389
32-2,5132812,459
32-3,5136718,445
32-4,5140624,422
32-5,5144530,420
32-6,5148436,382
32-7,5152342,346
32-8,5156248,331
32-9,5160154,338
32-10,5164060,334
32-11,5167966,300
32-12,5171872,267
32-13,5175778,241
32-14,5179684,237
32-15,5183590,236
32-16,5187496,249
32-17,5191402,313
32-18,5195308,336
32-19,5199214,284
32-20,5203120,245
32-21,5207026,241
32-22,5210932,178
32-23,5214838,102
32-24,5218744,150
32-25,5222650,241
32-26,5226556,257
32-27,5230462,210
32-28,5234368,197
32-29,5238274,260
32-30,5242180,256
32-31,5246086,203
32-32,5249992,255
32-1,5253873,332
32-2,5257779,320
32-3,5261685,262
32-4,5265591,244
32-5,5269497,231
32-6,5273403,200
32-7,5277309,246
32-8,5281215,314
32-9,5285121,306
32-10,5289027,251
32-11,5292933,193
32-12,5296839,164
32-13,5300745,163
32-14,5304651,170
32-15,5308557,218
32-16,5312463,271
32-17,5316369,276
32-18,5320275,268
32-19,5324181,275
32-20,5328087,268
32-21,5331993,191
32-22,5335899,134
32-23,5339805,208
32-24,5343711,248
32-25,5347617,184
32-26,5351523,146
32-27,5355429,106
32-28,5359335,105
32-29,5363241,163
32-30,5367147,142
32-31,5371053,130
32-32,5374959,182
32-1,5380488,143
32-2,5384394,64
32-3,5388300,67
32-4,5392206,84
32-5,5396112,43
32-6,5400018,32
32-7,5403924,69
32-8,5407830,45
32-9,5411736,16
32-10,5415642,37
32-11,5419548,50
32-12,5423454,66
32-13,5427360,92
32-14,5431266,144
32-15,5435172,194
32-16,5439078,183
32-17,5442984,162
32-18,5446890,151
32-19,5450796,123
32-20,5454702,95
32-21,5458608,114
32-22,5462514,167
32-23,5466420,156
32-24,5470326,109
32-25,5474232,119
32-26,5478138,133
32-27,5482044,77
32-28,5485950,52
32-29,5489856,144
32-30,5493762,213
32-31,5497668,185
32-32,5501574,158
32-1,5503898,160
32-2,5507804,188
32-3,5511710,205
32-4,5515616,187
32-5,5519522,198
32-6,5523428,216
32-7,5527334,198
32-8,5531240,177
32-9,5535146,145
32-10,5539052,122
32-11,5542958,129
32-12,5546864,148
32-13,5550770,189
32-14,5554676,195
32-15,5558582,144
32-16,5562488,131
32-17,5566394,164
32-18,5570300,184
32-19,5574206,161
32-20,5578112,161
32-21,5582018,220
32-22,5585924,245
32-23,5589830,211
32-24,5593736,170
32-25,5597642,133
32-26,5601548,93
32-27,5605454,61
32-28,5609360,106
32-29,5613266,176
32-30,5617172,132
32-31,5621078,52
32-32,5624984,47
32-1,5628896,67
32-2,5632802,93
32-3,5636708,135
32-4,5640614,143
32-5,5644520,117
32-6,5648426,108
32-7,5652332,112
32-8,5656238,120
32-9,5660144,113
32-10,5664050,83
32-11,5667956,105
32-12,5671862,147
32-13,5675768,100
32-14,5679674,48
32-15,5683580,45
32-16,5687486,36
32-17,5691392,10
32-18,5695298,-20
32-19,5699204,5
32-20,5703110,83
32-21,5707016,114
32-22,5710922,74
32-23,5714828,41
32-24,5718734,40
32-25,5722640,16
32-26,5726546,12
32-27,5730452,49
32-28,5734358,69
32-29,5738264,86
32-30,5742170,79
32-31,5746076,42
32-32,5749982,37
32-1,5753894,34
32-2,5757800,35
32-3,5761706,64
32-4,5765612,69
32-5,5769518,45
32-6,5773424,37
32-7,5777330,60
32-8,5781236,54
32-9,5785142,24
32-10,5789048,42
32-11,5792954,60
32-12,5796860,19
32-13,5800766,-16
32-14,5804672,-10
32-15,5808578,15
32-16,5812484,25
32-17,5816390,13
32-18,5820296,55
32-19,5824202,120
32-20,5828108,104
32-21,5832014,59
32-22,5835920,72
32-23,5839826,105
32-24,5843732,93
32-25,5847638,81
32-26,5851544,110
32-27,5855450,91
32-28,5859356,58
32-29,5863262,67
32-30,5867168,23
32-31,5871074,-33
32-32,5874980,-9
32-1,5878891,31
32-2,5882797,32
32-3,5886703,-2
32-4,5890609,-41
32-5,5894515,-44
32-6,5898421,-46
32-7,5902327,-81
32-8,5906233,-74
32-9,5910139,-34
32-10,5914045,-66
32-11,5917951,-116
32-12,5921857,-114
32-13,5925763,-105
32-14,5929669,-109
32-15,5933575,-106
32-16,5937481,-85
32-17,5941387,-74
32-18,5945293,-115
32-19,5949199,-139
32-20,5953105,-113
32-21,5957011,-90
32-22,5960917,-73
32-23,5964823,-38
32-24,5968729,30
32-25,5972635,88
32-26,5976541,67
32-27,5980447,10
32-28,5984353,37
32-29,5988259,101
32-30,5992165,85
32-31,5996071,49
32-32,5999977,71
32-1,6003889,130
32-2,6007795,179
32-3,6011701,140
32-4,6015607,68
32-5,6019513,78
32-6,6023419,79
32-7,6027325,42
32-8,6031231,36
32-9,6035137,27
32-10,6039043,23
32-11,6042949,31
32-12,6046855,19
32-13,6050761,23
32-14,6054667,26
32-15,6058573,26
32-16,6062479,68
32-17,6066385,94
32-18,6070291,80
32-19,6074197,74
32-20,6078103,66
32-21,6082009,24
32-22,6085915,-17
32-23,6089821,16
32-24,6093727,56
32-25,6097633,36
32-26,6101539,32
32-27,6105445,20
32-28,6109351,14
32-29,6113257,69
32-30,6117163,85
32-31,6121069,65
32-32,6124975,70
33-1,6127056,49
33-2,6130962,34
33-3,6134868,50
33-4,6138774,58
33-5,6142680,60
33-6,6146586,60
33-7,6150492,51
33-8,6154398,41
33-9,6158304,26
33-10,6162210,-15
33-11,6166116,-52
33-12,6170022,-55
33-13,6173928,-62
33-14,6177834,-55
33-15,6181740,-9
33-16,6185646,18
33-17,6189552,-8
33-18,6193458,-5
33-19,6197364,37
33-20,6201270,12
33-21,6205176,-16
33-22,6209082,23
33-23,6212988,-3
33-24,6216894,-75
33-25,6220800,-52
33-26,6224706,11
33-27,6228612,10
33-28,6232518,35
33-29,6236424,119
33-30,6240330,120
33-31,6244236,78
33-32,6248142,87
33-33,6252048,76
32-1,6257790,59
32-2,6261696,70
32-3,6265602,83
32-4,6269508,102
32-5,6273414,95
32-6,6277320,50
32-7,6281226,26
32-8,6285132,24
32-9,6289038,12
32-10,6292944,-7
32-11,6296850,-14
32-12,6300756,10
32-13,6304662,29
32-14,6308568,15
32-15,6312474,-5
32-16,6316380,-24
32-17,6320286,-31
32-18,6324192,-36
32-19,6328098,-72
32-20,6332004,-69
32-21,6335910,-2
32-22,6339816,20
32-23,6343722,-28
32-24,6347628,-49
32-25,6351534,-36
32-26,6355440,-60
32-27,6359346,-59
32-28,6363252,8
32-29,6367158,15
32-30,6371064,-38
32-31,6374970,-45
32-32,6378876,-40
32-1,6382788,-34
32-2,6386694,-12
32-3,6390600,-12
32-4,6394506,-5
32-5,6398412,27
32-6,6402318,43
32-7,6406224,48
32-8,6410130,38
32-9,6414036,21
32-10,6417942,32
32-11,6421848,21
32-12,6425754,-37
32-13,6429660,-52
32-14,6433566,-2
32-15,6437472,34
32-16,6441378,38
32-17,6445284,23
32-18,6449190,7
32-19,6453096,20
32-20,6457002,18
32-21,6460908,-13
32-22,6464814,-34
32-23,6468720,-33
32-24,6472626,-23
32-25,6476532,-4
32-26,6480438,20
32-27,6484344,2
32-28,6488250,-32
32-29,6492156,-12
32-30,6496062,-6
32-31,6499968,-35
32-32,6503874,-44
32-1,6507786,-30
32-2,6511692,-19
32-3,6515598,-37
32-4,6519504,-48
32-5,6523410,-41
32-6,6527316,-38
32-7,6531222,-44
32-8,6535128,-58
32-9,6539034,-64
32-10,6542940,-73
32-11,6546846,-88
32-12,6550752,-81
32-13,6554658,-81
32-14,6558564,-83
32-15,6562470,-65
32-16,6566376,-58
32-17,6570282,-48
32-18,6574188,-30
32-19,6578094,-37
32-20,6582000,-38
32-21,6585906,-5
32-22,6589812,45
32-23,6593718,73
32-24,6597624,35
32-25,6601530,8
32-26,6605436,28
32-27,6609342,17
32-28,6613248,12
32-29,6617154,59
32-30,6621060,55
32-31,6624966,-11
32-32,6628872,-15
32-1,6632783,13
32-2,6636689,-35
32-3,6640595,-72
32-4,6644501,-32
32-5,6648407,-4
32-6,6652313,7
32-7,6656219,41
32-8,6660125,56
32-9,6664031,1
32-10,6667937,-73
32-11,6671843,-71
32-12,6675749,-42
32-13,6679655,-56
32-14,6683561,-54
32-15,6687467,-9
32-16,6691373,39
32-17,6695279,42
32-18,6699185,10
32-19,6703091,-10
32-20,6706997,-32
32-21,6710903,-53
32-22,6714809,-56
32-23,6718715,-52
32-24,6722621,-35
32-25,6726527,-15
32-26,6730433,-18
32-27,6734339,-34
32-28,6738245,-4
32-29,6742151,40
32-30,6746057,1
32-31,6749963,-28
32-32,6753869,12
33-1,6755675,8
33-2,6759581,-30
33-3,6763487,-41
33-4,6767393,-34
33-5,6771299,-33
33-6,6775205,-39
33-7,6779111,-15
33-8,6783017,6
33-9,6786923,-17
33-10,6790829,-39
33-11,6794735,-45
33-12,6798641,-50
33-13,6802547,-38
33-14,6806453,-18
33-15,6810359,-40
33-16,6814265,-103
33-17,6818171,-118
33-18,6822077,-73
33-19,6825983,-52
33-20,6829889,-46
33-21,6833795,-25
33-22,6837701,-17
33-23,6841607,-26
33-24,6845513,-54
33-25,6849419,-61
33-26,6853325,-30
33-27,6857231,-40
33-28,6861137,-44
33-29,6865043,3
33-30,6868949,-12
33-31,6872855,-72
33-32,6876761,-64
33-33,6880667,-32
32-1,6886685,-17
32-2,6890591,7
32-3,6894497,17
32-4,6898403,15
32-5,6902309,49
32-6,6906215,81
32-7,6910121,62
32-8,6914027,23
32-9,6917933,14
32-10,6921839,39
32-11,6925745,55
32-12,6929651,33
32-13,6933557,-11
32-14,6937463,-35
32-15,6941369,-16
32-16,6945275,-7
32-17,6949181,-5
32-18,6953087,19
32-19,6956993,44
32-20,6960899,61
32-21,6964805,21
32-22,6968711,-26
32-23,6972617,-6
32-24,6976523,0
32-25,6980429,-32
32-26,6984335,-44
32-27,6988241,-37
32-28,6992147,-32
32-29,6996053,-85
32-30,6999959,-151
32-31,7003865,-125
32-32,7007771,-64
32-1,7011682,-31
32-2,7015588,-17
32-3,7019494,-9
32-4,7023400,7
32-5,7027306,-4
32-6,7031212,-57
32-7,7035118,-76
32-8,7039024,-57
32-9,7042930,-57
32-10,7046836,-52
32-11,7050742,-38
32-12,7054648,-55
32-13,7058554,-70
32-14,7062460,-36
32-15,7066366,7
32-16,7070272,27
32-17,7074178,30
32-18,7078084,21
32-19,7081990,9
32-20,7085896,6
32-21,7089802,-5
32-22,7093708,-27
32-23,7097614,-22
32-24,7101520,-8
32-25,7105426,-26
32-26,7109332,-44
32-27,7113238,-61
32-28,7117144,-78
32-29,7121050,-67
32-30,7124956,-83
32-31,7128862,-107
32-32,7132768,-111
32-1,7136680,-110
32-2,7140586,-50
32-3,7144492,-10
32-4,7148398,-66
32-5,7152304,-83
32-6,7156210,-60
32-7,7160116,-61
32-8,7164022,-34
32-9,7167928,15
32-10,7171834,50
32-11,7175740,55
32-12,7179646,47
32-13,7183552,49
32-14,7187458,57
32-15,7191364,55
32-16,7195270,27
32-17,7199176,11
32-18,7203082,-7
32-19,7206988,-55
32-20,7210894,-63
32-21,7214800,-12
32-22,7218706,42
32-23,7222612,49
32-24,7226518,47
32-25,7230424,98
32-26,7234330,107
32-27,7238236,63
32-28,7242142,69
32-29,7246048,82
32-30,7249954,51
32-31,7253860,24
32-32,7257766,32
32-1,7261678,48
32-2,7265584,53
32-3,7269490,48
32-4,7273396,41
32-5,7277302,32
32-6,7281208,19
32-7,7285114,25
32-8,7289020,31
32-9,7292926,-28
32-10,7296832,-96
32-11,7300738,-84
32-12,7304644,-66
32-13,7308550,-77
32-14,7312456,-75
32-15,7316362,-66
32-16,7320268,-22
32-17,7324174,27
32-18,7328080,13
32-19,7331986,-24
32-20,7335892,-60
32-21,7339798,-74
32-22,7343704,-71
32-23,7347610,-70
32-24,7351516,-28
32-25,7355422,7
32-26,7359328,-8
32-27,7363234,-17
32-28,7367140,-5
32-29,7371046,6
32-30,7374952,-29
32-31,7378858,-88
32-32,7382764,-130
32-1,7386828,-159
32-2,7390734,-133
32-3,7394640,-91
32-4,7398546,-68
32-5,7402452,-34
32-6,7406358,-32
32-7,7410264,-46
32-8,7414170,-37
32-9,7418076,-43
32-10,7421982,-54
32-11,7425888,-66
32-12,7429794,-79
32-13,7433700,-45
32-14,7437606,-2
32-15,7441512,-14
32-16,7445418,-45
32-17,7449324,-53
32-18,7453230,-28
32-19,7457136,-7
32-20,7461042,-40
32-21,7464948,-72
32-22,7468854,-51
32-23,7472760,-51
32-24,7476666,-100
32-25,7480572,-113
32-26,7484478,-72
32-27,7488384,-32
32-28,7492290,-20
32-29,7496196,6
32-30,7500102,25
32-31,7504008,-58
32-32,7507914,-154
32-1,7511673,-139
32-2,7515579,-71
32-3,7519485,-9
32-4,7523391,36
32-5,7527297,48
32-6,7531203,30
32-7,7535109,17
32-8,7539015,12
32-9,7542921,-4
32-10,7546827,-16
32-11,7550733,-6
32-12,7554639,13
32-13,7558545,45
32-14,7562451,76
32-15,7566357,82
32-16,7570263,58
32-17,7574169,21
32-18,7578075,3
32-19,7581981,-5
32-20,7585887,1
32-21,7589793,45
32-22,7593699,0
32-23,7597605,-101
32-24,7601511,-89
32-25,7605417,-47
32-26,7609323,-48
32-27,7613229,-48
32-28,7617135,-9
32-29,7621041,31
32-30,7624947,-29
32-31,7628853,-77
32-32,7632759,-36
32-1,7636671,-31
32-2,7640577,-24
32-3,7644483,11
32-4,7648389,13
32-5,7652295,3
32-6,7656201,-29
32-7,7660107,-61
32-8,7664013,-45
32-9,7667919,-14
32-10,7671825,-10
32-11,7675731,-29
32-12,7679637,-34
32-13,7683543,-60
32-14,7687449,-111
32-15,7691355,-94
32-16,7695261,-43
32-17,7699167,-24
32-18,7703073,9
32-19,7706979,40
32-20,7710885,29
32-21,7714791,4
32-22,7718697,-5
32-23,7722603,-3
32-24,7726509,0
32-25,7730415,25
32-26,7734321,49
32-27,7738227,37
32-28,7742133,35
32-29,7746039,54
32-30,7749945,44
32-31,7753851,4
32-32,7757757,4
32-1,7761668,32
32-2,7765574,46
32-3,7769480,65
32-4,7773386,33
32-5,7777292,-42
32-6,7781198,-61
32-7,7785104,-40
32-8,7789010,-38
32-9,7792916,-59
32-10,7796822,-52
32-11,7800728,-21
32-12,7804634,-61
32-13,7808540,-112
32-14,7812446,-104
32-15,7816352,-91
32-16,7820258,-61
32-17,7824164,-22
32-18,7828070,-17
32-19,7831976,-26
32-20,7835882,-39
32-21,7839788,-37
32-22,7843694,-18
32-23,7847600,9
32-24,7851506,30
32-25,7855412,24
32-26,7859318,32
32-27,7863224,30
32-28,7867130,4
32-29,7871036,19
32-30,7874942,9
32-31,7878848,-33
32-32,7882754,-33
32-1,7886666,1
32-2,7890572,52
32-3,7894478,52
32-4,7898384,-17
32-5,7902290,-58
32-6,7906196,-55
32-7,7910102,-47
32-8,7914008,-28
32-9,7917914,-1
32-10,7921820,-27
32-11,7925726,-97
32-12,7929632,-99
32-13,7933538,-65
32-14,7937444,-70
32-15,7941350,-67
32-16,7945256,-42
32-17,7949162,-2
32-18,7953068,37
32-19,7956974,12
32-20,7960880,-26
32-21,7964786,-3
32-22,7968692,43
32-23,7972598,52
32-24,7976504,12
32-25,7980410,3
32-26,7984316,30
32-27,7988222,13
32-28,7992128,-1
32-29,7996034,32
32-30,7999940,11
32-31,8003846,-40
32-32,8007752,-16
32-1,8011663,-12
32-2,8015569,-83
32-3,8019475,-100
32-4,8023381,-73
32-5,8027287,-65
32-6,8031193,-50
32-7,8035099,-33
32-8,8039005,-31
32-9,8042911,-50
32-10,8046817,-75
32-11,8050723,-66
32-12,8054629,-40
32-13,8058535,-23
32-14,8062441,-17
32-15,8066347,-24
32-16,8070253,-33
32-17,8074159,-39
32-18,8078065,-42
32-19,8081971,-44
32-20,8085877,-32
32-21,8089783,-8
32-22,8093689,-15
32-23,8097595,-5
32-24,8101501,62
32-25,8105407,88
32-26,8109313,44
32-27,8113219,1
32-28,8117125,11
32-29,8121031,55
32-30,8124937,64
32-31,8128843,70
32-32,8132749,53
32-1,8136655,-4623
32-2,8140561,4952
32-3,8144467,5199
32-4,8148373,-3831
32-5,8152279,-2699
32-6,8156185,5175
32-7,8160091,6301
32-8,8163997,4491
32-9,8167903,4586
32-10,8171809,6002
32-11,8175715,-233
32-12,8179621,-9097
32-13,8183527,-5036
32-14,8187433,2712
32-15,8191339,4424
32-16,8195245,3961
32-17,8199151,5231
32-18,8203057,5755
32-19,8206963,-1368
32-20,8210869,-4448
32-21,8214775,2684
32-22,8218681,6591
32-23,8222587,5342
32-24,8226493,4861
32-25,8230399,7036
32-26,8234305,2997
32-27,8238211,-4461
32-28,8242117,-5591
32-29,8246023,-15775
32-30,8249929,-26807
32-31,8253835,-19466
32-32,8257741,-7671
32-1,8261647,990
32-2,8265553,618
32-3,8269459,-5919
32-4,8273365,-1113
32-5,8277271,6194
32-6,8281177,6488
32-7,8285083,5211
32-8,8288989,6253
32-9,8292895,6789
32-10,8296801,-2185
32-11,8300707,-8107
32-12,8304613,-518
32-13,8308519,5717
32-14,8312425,5758
32-15,8316331,4662
32-16,8320237,7041
32-17,8324143,5166
32-18,8328049,-9218
32-19,8331955,-14092
32-20,8335861,-2916
32-21,8339767,4415
32-22,8343673,5083
32-23,8347579,5019
32-24,8351485,6734
32-25,8355391,2191
32-26,8359297,-7754
32-27,8363203,-1870
32-28,8367109,5016
32-29,8371015,-12118
32-30,8374921,-26633
32-31,8378827,-16886
32-32,8382733,-5132
32-1,8386639,-6570
32-2,8390545,-6969
32-3,8394451,821
32-4,8398357,6233
32-5,8402263,6326
32-6,8406169,5854
32-7,8410075,7220
32-8,8413981,5756
32-9,8417887,-531
32-10,8421793,-9
32-11,8425699,5893
32-12,8429605,6726
32-13,8433511,5525
32-14,8437417,5775
32-15,8441323,6944
32-16,8445229,3553
32-17,8449135,-1392
32-18,8453041,2087
32-19,8456947,5949
32-20,8460853,5926
32-21,8464759,4614
32-22,8468665,4778
32-23,8472571,7880
32-24,8476477,-5856
32-25,8480383,-30533
32-26,8484289,-32768
32-27,8488195,-24770
32-28,8492101,-18161
32-29,8496007,-24093
32-30,8499913,-29005
32-31,8503819,-22761
32-32,8507725,-24437
32-1,8511631,-30571
32-2,8515537,-30189
32-3,8519443,-28223
32-4,8523349,-25844
32-5,8527255,-21709
32-6,8531161,-13210
32-7,8535067,-10694
32-8,8538973,-21882
32-9,8542879,-28284
32-10,8546785,-25834
32-11,8550691,-25020
32-12,8554597,-24473
32-13,8558503,-21694
32-14,8562409,-17310
32-15,8566315,-17422
32-16,8570221,-22055
32-17,8574127,-22912
32-18,8578033,-21405
32-19,8581939,-20528
32-20,8585845,-19352
32-21,8589751,-15973
32-22,8593657,-12223
32-23,8597563,-14746
32-24,8601469,-18806
32-25,8605375,-18210
32-26,8609281,-17438
32-27,8613187,-17060
32-28,8617093,-15950
32-29,8620999,-15802
32-30,8624905,-15689
32-31,8628811,-15083
32-32,8632717,-14623
32-1,8636623,-14272
32-2,8640529,-13929
32-3,8644435,-13546
32-4,8648341,-13073
32-5,8652247,-12561
32-6,8656153,-12064
32-7,8660059,-11540
32-8,8663965,-11207
32-9,8667871,-10918
32-10,8671777,-10339
32-11,8675683,-9856
32-12,8679589,-8963
32-13,8683495,-7696
32-14,8687401,-7679
32-15,8691307,-8166
32-16,8695213,-7946
32-17,8699119,-7604
32-18,8703025,-7314
32-19,8706931,-6790
32-20,8710837,-5365
32-21,8714743,-4389
32-22,8718649,-5336
32-23,8722555,-6040
32-24,8726461,-5529
32-25,8730367,-5192
32-26,8734273,-4922
32-27,8738179,-3355
32-28,8742085,-1789
32-29,8745991,-2672
32-30,8749897,-3820
32-31,8753803,-3367
32-32,8757709,-3095
32-1,8761615,-2980
32-2,8765521,-2690
32-3,8769427,-1972
32-4,8773333,-405
32-5,8777239,-271
32-6,8781145,-1050
32-7,8785051,-1144
32-8,8788957,579
32-9,8792863,3856
32-10,8796769,8006
32-11,8800675,21753
32-12,8804581,30866
32-13,8808487,13856
32-14,8812393,-1876
32-15,8816299,315
32-16,8820205,4146
32-17,8824111,8677
32-18,8828017,19976
32-19,8831923,32767
32-20,8835829,29665
32-21,8839735,2884
32-22,8843641,-7416
32-23,8847547,-1277
32-24,8851453,3841
32-25,8855359,13024
32-26,8859265,28815
32-27,8863171,32767
32-28,8867077,17522
32-29,8870983,-10319
32-30,8874889,-14549
32-31,8878795,-9759
32-32,8882701,-5489
32-1,8886607,6110
32-2,8890513,25639
32-3,8894419,31739
32-4,8898325,5589
32-5,8902231,-15870
32-6,8906137,-13357
32-7,8910043,-11051
32-8,8913949,-11335
32-9,8917855,-5495
32-10,8921761,9501
32-11,8925667,13087
32-12,8929573,-4965
32-13,8933479,-14019
32-14,8937385,-9847
32-15,8941291,-4540
32-16,8945197,4288
32-17,8949103,18836
32-18,8953009,31769
32-19,8956915,16467
32-20,8960821,-11796
32-21,8964727,-15583
32-22,8968633,-8717
32-23,8972539,-2632
32-24,8976445,9161
32-25,8980351,26467
32-26,8984257,31761
32-27,8988163,6549
32-28,8992069,-17265
32-29,8995975,-16958
32-30,8999881,-14812
32-31,9003787,-15020
32-32,9007693,-8165
32-1,9011599,9663
32-2,9015505,13615
32-3,9019411,-9150
32-4,9023317,-21617
32-5,9027223,-18412
32-6,9031129,-17885
32-7,9035035,-16770
32-8,9038941,-6162
32-9,9042847,10942
32-10,9046753,2713
32-11,9050659,-23961
32-12,9054565,-29895
32-13,9058471,-23740
32-14,9062377,-17261
32-15,9066283,-5814
32-16,9070189,12111
32-17,9074095,20627
32-18,9078001,-3102
32-19,9081907,-26396
32-20,9085813,-23352
32-21,9089719,-16323
32-22,9093625,-7102
32-23,9097531,11118
32-24,9101437,31500
32-25,9105343,30861
32-26,9109249,5475
32-27,9113155,-5707
32-28,9117061,-937
32-29,9120967,-3341
32-30,9124873,-7710
32-31,9128779,-4460
32-32,9132685,6607
32-1,9136591,6320
32-2,9140497,-7525
32-3,9144403,-12110
32-4,9148309,-10237
32-5,9152215,-10790
32-6,9156121,-10379
32-7,9160027,-1957
32-8,9163933,8480
32-9,9167839,737
32-10,9171745,-11648
32-11,9175651,-10682
32-12,9179557,-6147
32-13,9183463,-759
32-14,9187369,9537
32-15,9191275,26345
32-16,9195181,27192
32-17,9199087,1213
32-18,9202993,-13162
32-19,9206899,-8288
32-20,9210805,-2513
32-21,9214711,7446
32-22,9218617,23076
32-23,9222523,32767
32-24,9226429,21736
32-25,9230335,-7592
32-26,9234241,-16035
32-27,9238147,-9478
32-28,9242053,-5262
32-29,9245959,-7914
32-30,9249865,-9204
32-31,9253771,-1124
32-32,9257677,-3153
32-1,9261583,-12802
32-2,9265489,-13121
32-3,9269395,-11339
32-4,9273301,-11107
32-5,9277207,-8778
32-6,9281113,1835
32-7,9285019,8404
32-8,9288925,-4052
32-9,9292831,-13495
32-10,9296737,-10452
32-11,9300643,-5693
32-12,9304549,1254
32-13,9308455,14487
32-14,9312361,30524
32-15,9316267,21763
32-16,9320173,-6529
32-17,9324079,-14401
32-18,9327985,-8516
32-19,9331891,-3802
32-20,9335797,5607
32-21,9339703,22116
32-22,9343609,32767
32-23,9347515,12725
32-24,9351421,-12890
32-25,9355327,-12773
32-26,9359233,-8581
32-27,9363139,-121
32-28,9367045,12888
32-29,9370951,8008
32-30,9374857,-3433
32-31,9378763,-8647
32-32,9382669,-12232
32-1,9386575,-12969
32-2,9390481,-11122
32-3,9394387,-10191
32-4,9398293,-5052
32-5,9402199,8644
32-6,9406105,9267
32-7,9410011,-7555
32-8,9413917,-13598
32-9,9417823,-8240
32-10,9421729,-1360
32-11,9425635,8413
32-12,9429541,23431
32-13,9433447,32767
32-14,9437353,14586
32-15,9441259,-11872
32-16,9445165,-13519
32-17,9449071,-6259
32-18,9452977,1666
32-19,9456883,14302
32-20,9460789,30338
32-21,9464695,31332
32-22,9468601,4178
32-23,9472507,-15844
32-24,9476413,-12348
32-25,9480319,-6483
32-26,9484225,481
32-27,9488131,17382
32-28,9492037,29135
32-29,9495943,11405
32-30,9499849,-12824
32-31,9503755,-14791
32-32,9507661,-12504
32-1,9511567,-12506
32-2,9515473,-9084
32-3,9519379,769
32-4,9523285,14277
32-5,9527191,6223
32-6,9531097,-12819
32-7,9535003,-13793
32-8,9538909,-5171
32-9,9542815,6177
32-10,9546721,19893
32-11,9550627,31816
32-12,9554533,31409
32-13,9558439,4466
32-14,9562345,-16361
32-15,9566251,-14272
32-16,9570157,-8454
32-17,9574063,-1590
32-18,9577969,11115
32-19,9581875,27900
32-20,9585781,23044
32-21,9589687,-6557
32-22,9593593,-17997
32-23,9597499,-9449
32-24,9601405,2086
32-25,9605311,17056
32-26,9609217,29630
32-27,9613123,30512
32-28,9617029,14477
32-29,9620935,-13628
32-30,9624841,-18626
32-31,9628747,-14289
32-32,9632653,-13541
32-1,9636559,-8868
32-2,9640465,6385
32-3,9644371,16042
32-4,9648277,-1619
32-5,9652183,-18392
32-6,9656089,-16409
32-7,9659995,-14530
32-8,9663901,-14370
32-9,9667807,-9555
32-10,9671713,3175
32-11,9675619,6369
32-12,9679525,-9575
32-13,9683431,-17505
32-14,9687337,-13670
32-15,9691243,-10292
32-16,9695149,-5391
32-17,9699055,6678
32-18,9702961,20800
32-19,9706867,10462
32-20,9710773,-12931
32-21,9714679,-16551
32-22,9718585,-11544
32-23,9722491,-8007
32-24,9726397,-38
32-25,9730303,16101
32-26,9734209,24599
32-27,9738115,3825
32-28,9742021,-16406
32-29,9745927,-15028
32-30,9749833,-12385
32-31,9753739,-11901
32-32,9757645,-4943
32-1,9761551,12284
32-2,9765457,16156
32-3,9769363,-5498
32-4,9773269,-16840
32-5,9777175,-12976
32-6,9781081,-12751
32-7,9784987,-12706
32-8,9788893,-8024
32-9,9792799,789
32-10,9796705,-548
32-11,9800611,-11556
32-12,9804517,-13871
32-13,9808423,-10402
32-14,9812329,-6753
32-15,9816235,-557
32-16,9820141,13767
32-17,9824047,23268
32-18,9827953,5395
32-19,9831859,-13804
32-20,9835765,-12524
32-21,9839671,-8165
32-22,9843577,-4034
32-23,9847483,6033
32-24,9851389,22668
32-25,9855295,23397
32-26,9859201,-1947
32-27,9863107,-15242
32-28,9867013,-10604
32-29,9870919,-10781
32-30,9874825,-12693
32-31,9878731,-8925
32-32,9882637,461
32-1,9886543,703
32-2,9890449,-9774
32-3,9894355,-12503
32-4,9898261,-10303
32-5,9902167,-9986
32-6,9906073,-8982
32-7,9909979,-2582
32-8,9913885,5523
32-9,9917791,-458
32-10,9921697,-10605
32-11,9925603,-10147
32-12,9929509,-6362
32-13,9933415,-1879
32-14,9937321,6811
32-15,9941227,22762
32-16,9945133,24950
32-17,9949039,1196
32-18,9952945,-12873
32-19,9956851,-8721
32-20,9960757,-4754
32-21,9964663,723
32-22,9968569,13237
32-23,9972475,27879
32-24,9976381,19336
32-25,9980287,-6297
32-26,9984193,-13204
32-27,9988099,-7559
32-28,9992005,-5647
32-29,9995911,-7471
32-30,9999817,-8909
32-31,10003723,-5343
32-32,10007629,-5752
32-1,10011535,-9788
32-2,10015441,-9710
32-3,10019347,-8947
32-4,10023253,-8777
32-5,10027159,-7727
32-6,10031065,-2418
32-7,10034971,1207
32-8,10038877,-4693
32-9,10042783,-9393
32-10,10046689,-8017
32-11,10050595,-5379
32-12,10054501,-2526
32-13,10058407,4869
32-14,10062313,17799
32-15,10066219,14169
32-16,10070125,-4780
32-17,10074031,-9978
32-18,10077937,-5559
32-19,10081843,-2146
32-20,10085749,4174
32-21,10089655,18067
32-22,10093561,29307
32-23,10097467,13279
32-24,10101373,-8804
32-25,10105279,-8883
32-26,10109185,-6109
32-27,10113091,-3019
32-28,10116997,4056
32-29,10120903,893
32-30,10124809,-5752
32-31,10128715,-7019
32-32,10132621,-7628
32-1,10136527,-8185
32-2,10140433,-7642
32-3,10144339,-7438
32-4,10148245,-6147
32-5,10152151,-1737
32-6,10156057,-1084
32-7,10159963,-5851
32-8,10163869,-7610
32-9,10167775,-5876
32-10,10171681,-2803
32-11,10175587,1217
32-12,10179493,12323
32-13,10183399,24379
32-14,10187305,12631
32-15,10191211,-6932
32-16,10195117,-8243
32-17,10199023,-4686
32-18,10202929,-3631
32-19,10206835,439
32-20,10210741,11637
32-21,10214647,17278
32-22,10218553,2845
32-23,10222459,-9151
32-24,10226365,-6507
32-25,10230271,-4292
32-26,10234177,-3047
32-27,10238083,6071
32-28,10241989,14760
32-29,10245895,5998
32-30,10249801,-6984
32-31,10253707,-7233
32-32,10257613,-6095
32-1,10261519,-6913
32-2,10265425,-6221
32-3,10269331,-4254
32-4,10273237,-552
32-5,10277143,-1871
32-6,10281049,-6055
32-7,10284955,-6504
32-8,10288861,-5042
32-9,10292767,-3219
32-10,10296673,-691
32-11,10300579,8234
32-12,10304485,14328
32-13,10308391,3042
32-14,10312297,-7295
32-15,10316203,-5727
32-16,10320109,-3417
32-17,10324015,-1838
32-18,10327921,3722
32-19,10331827,15782
32-20,10335733,16051
32-21,10339639,-829
32-22,10343545,-7953
32-23,10347451,-4602
32-24,10351357,-2753
32-25,10355263,-146
32-26,10359169,8746
32-27,10363075,20041
32-28,10366981,12057
32-29,10370887,-5385
32-30,10374793,-7508
32-31,10378699,-4836
32-32,10382605,-4827
32-1,10386511,-2767
32-2,10390417,5135
32-3,10394323,11576
32-4,10398229,2493
32-5,10402135,-7149
32-6,10406041,-5967
32-7,10409947,-5227
32-8,10413853,-5705
32-9,10417759,-4016
32-10,10421665,518
32-11,10425571,1970
32-12,10429477,-3418
32-13,10433383,-6221
32-14,10437289,-4916
32-15,10441195,-2959
32-16,10445101,-796
32-17,10449007,6005
32-18,10452913,16387
32-19,10456819,10810
32-20,10460725,-4315
32-21,10464631,-6700
32-22,10468537,-3847
32-23,10472443,-2875
32-24,10476349,-156
32-25,10480255,8977
32-26,10484161,16485
32-27,10488067,5671
32-28,10491973,-6505
32-29,10495879,-5591
32-30,10499785,-3803
32-31,10503691,-3579
32-32,10507597,155
32-1,10511503,11269
32-2,10515409,14628
32-3,10519315,479
32-4,10523221,-7252
32-5,10527127,-4618
32-6,10531033,-4943
32-7,10534939,-5344
32-8,10538845,-3399
32-9,10542751,-129
32-10,10546657,-509
32-11,10550563,-4473
32-12,10554469,-5375
32-13,10558375,-3848
32-14,10562281,-1594
32-15,10566187,1209
32-16,10570093,10060
32-17,10573999,17652
32-18,10577905,6801
32-19,10581811,-5883
32-20,10585717,-5282
32-21,10589623,-3115
32-22,10593529,-2343
32-23,10597435,1474
32-24,10601341,11616
32-25,10605247,14628
32-26,10609153,1044
32-27,10613059,-6760
32-28,10616965,-4190
32-29,10620871,-4084
32-30,10624777,-4967
32-31,10628683,-2139
32-32,10632589,5209
32-1,10636495,5199
32-2,10640401,-3390
32-3,10644307,-5618
32-4,10648213,-4039
32-5,10652119,-4407
32-6,10656025,-4100
32-7,10659931,-1434
32-8,10663837,1883
32-9,10667743,-430
32-10,10671649,-4437
32-11,10675555,-4367
32-12,10679461,-2400
32-13,10683367,-11
32-14,10687273,4135
32-15,10691179,15139
32-16,10695085,18455
32-17,10698991,3245
32-18,10702897,-6153
32-19,10706803,-3479
32-20,10710709,-1136
32-21,10714615,1449
32-22,10718521,9970
32-23,10722427,23457
32-24,10726333,18977
32-25,10730239,-1409
32-26,10734145,-7143
32-27,10738051,-2837
32-28,10741957,-2183
32-29,10745863,-3514
32-30,10749769,-4162
32-31,10753675,-1805
32-32,10757581,-2068
32-1,10761487,-4691
32-2,10765393,-4669
32-3,10769299,-4302
32-4,10773205,-4287
32-5,10777111,-3667
32-6,10781017,-366
32-7,10784923,1916
32-8,10788829,-1695
32-9,10792735,-4637
32-10,10796641,-4009
32-11,10800547,-2197
32-12,10804453,-425
32-13,10808359,4522
32-14,10812265,15133
32-15,10816171,13522
32-16,10820077,-1263
32-17,10823983,-5910
32-18,10827889,-2841
32-19,10831795,-1214
32-20,10835701,1531
32-21,10839607,10836
32-22,10843513,20938
32-23,10847419,11034
32-24,10851325,-5023
32-25,10855231,-5043
32-26,10859137,-2937
32-27,10863043,-200
32-28,10866949,5689
32-29,10870855,2897
32-30,10874761,-2688
32-31,10878667,-3628
32-32,10882573,-4101
32-1,10886479,-4664
32-2,10890385,-4203
32-3,10894291,-4023
32-4,10898197,-2810
32-5,10902103,1613
32-6,10906009,2352
32-7,10909915,-2706
32-8,10913821,-4815
32-9,10917727,-3416
32-10,10921633,-1272
32-11,10925539,1130
32-12,10929445,9054
32-13,10933351,19253
32-14,10937257,11167
32-15,10941163,-4115
32-16,10945069,-5077
32-17,10948975,-1198
32-18,10952881,2208
32-19,10956787,9201
32-20,10960693,23709
32-21,10964599,29229
32-22,10968505,8835
32-23,10972411,-7570
32-24,10976317,-4245
32-25,10980223,-477
32-26,10984129,2935
32-27,10988035,16027
32-28,10991941,26791
32-29,10995847,13539
32-30,10999753,-5744
32-31,11003659,-6982
32-32,11007565,-5174
32-1,11011471,-6523
32-2,11015377,-5765
32-3,11019283,-3559
32-4,11023189,459
32-5,11027095,-1037
32-6,11031001,-5865
32-7,11034907,-6307
32-8,11038813,-4099
32-9,11042719,-675
32-10,11046625,4620
32-11,11050531,17731
32-12,11054437,24513
32-13,11058343,6893
32-14,11062249,-8248
32-15,11066155,-5953
32-16,11070061,-2419
32-17,11073967,1059
32-18,11077873,10319
32-19,11081779,25254
32-20,11085685,23099
32-21,11089591,-202
32-22,11093497,-9898
32-23,11097403,-5742
32-24,11101309,-3880
32-25,11105215,-916
32-26,11109121,8788
32-27,11113027,20365
32-28,11116933,11707
32-29,11120839,-6792
32-30,11124745,-9181
32-31,11128651,-6322
32-32,11132557,-6131
32-1,11136463,-3545
32-2,11140369,5846
32-3,11144275,12857
32-4,11148181,1729
32-5,11152087,-9446
32-6,11155993,-8012
32-7,11159899,-7168
32-8,11163805,-7685
32-9,11167711,-5699
32-10,11171617,-196
32-11,11175523,1628
32-12,11179429,-4996
32-13,11183335,-8370
32-14,11187241,-6334
32-15,11191147,-2676
32-16,11195053,2418
32-17,11198959,13405
32-18,11202865,26599
32-19,11206771,16535
32-20,11210677,-5988
32-21,11214583,-9750
32-22,11218489,-5535
32-23,11222395,-4127
32-24,11226301,72
32-25,11230207,11720
32-26,11234113,19610
32-27,11238019,5224
32-28,11241925,-9780
32-29,11245831,-8720
32-30,11249737,-6862
32-31,11253643,-6729
32-32,11257549,-2365
32-1,11261455,10018
32-2,11265361,13753
32-3,11269267,-1739
32-4,11273173,-10267
32-5,11277079,-7483
32-6,11280985,-7607
32-7,11284891,-7803
32-8,11288797,-4860
32-9,11292703,327
32-10,11296609,-541
32-11,11300515,-6938
32-12,11304421,-8326
32-13,11308327,-6378
32-14,11312233,-4094
32-15,11316139,-822
32-16,11320045,9223
32-17,11323951,17692
32-18,11327857,5605
32-19,11331763,-8609
32-20,11335669,-7837
32-21,11339575,-4704
32-22,11343481,-2518
32-23,11347387,3693
32-24,11351293,16894
32-25,11355199,19244
32-26,11359105,399
32-27,11363011,-10010
32-28,11366917,-6535
32-29,11370823,-6658
32-30,11374729,-7996
32-31,11378635,-5283
32-32,11382541,1264
32-1,11386447,1373
32-2,11390353,-6058
32-3,11394259,-8053
32-4,11398165,-6755
32-5,11402071,-6814
32-6,11405977,-6233
32-7,11409883,-2288
32-8,11413789,2674
32-9,11417695,-916
32-10,11421601,-7018
32-11,11425507,-6927
32-12,11429413,-4564
32-13,11433319,-1999
32-14,11437225,3012
32-15,11441131,15421
32-16,11445037,18914
32-17,11448943,1864
32-18,11452849,-8738
32-19,11456755,-5976
32-20,11460661,-4006
32-21,11464567,-2127
32-22,11468473,5413
32-23,11472379,17884
32-24,11476285,14301
32-25,11480191,-3956
32-26,11484097,-9217
32-27,11488003,-4176
32-28,11491909,-1457
32-29,11495815,-3638
32-30,11499721,-5271
32-31,11503627,-699
32-32,11507533,-1379
32-1,11511439,-6575
32-2,11515345,-6635
32-3,11519251,-5880
32-4,11523157,-6096
32-5,11527063,-5263
32-6,11530969,-783
32-7,11534875,2344
32-8,11538781,-2645
32-9,11542687,-6713
32-10,11546593,-5409
32-11,11550499,-2378
32-12,11554405,1166
32-13,11558311,9007
32-14,11562217,22003
32-15,11566123,17813
32-16,11570029,-2329
32-17,11573935,-8472
32-18,11577841,-4737
32-19,11581747,-3251
32-20,11585653,-19
32-21,11589559,10459
32-22,11593465,21247
32-23,11597371,10453
32-24,11601277,-6955
32-25,11605183,-6987
32-26,11609089,-4571
32-27,11612995,-1023
32-28,11616901,6275
32-29,11620807,3246
32-30,11624713,-3720
32-31,11628619,-5394
32-32,11632525,-6153
32-1,11636431,-6763
32-2,11640337,-6128
32-3,11644243,-5868
32-4,11648149,-4315
32-5,11652055,1176
32-6,11655961,2055
32-7,11659867,-4364
32-8,11663773,-6859
32-9,11667679,-4552
32-10,11671585,-1030
32-11,11675491,3622
32-12,11679397,14448
32-13,11683303,25420
32-14,11687209,13392
32-15,11691115,-6246
32-16,11695021,-7845
32-17,11698927,-4313
32-18,11702833,-2987
32-19,11706739,1721
32-20,11710645,14160
32-21,11714551,20461
32-22,11718457,4545
32-23,11722363,-9118
32-24,11726269,-6362
32-25,11730175,-3433
32-26,11734081,-1169
32-27,11737987,9936
32-28,11741893,19828
32-29,11745799,8856
32-30,11749705,-7307
32-31,11753611,-8016
32-32,11757517,-6514
32-1,11761423,-7452
32-2,11765329,-6588
32-3,11769235,-3777
32-4,11773141,1472
32-5,11777047,-345
32-6,11780953,-6657
32-7,11784859,-7454
32-8,11788765,-5225
32-9,11792671,-2461
32-10,11796577,1926
32-11,11800483,13888
32-12,11804389,20801
32-13,11808295,5079
32-14,11812201,-9016
32-15,11816107,-6973
32-16,11820013,-3689
32-17,11823919,-745
32-18,11827825,7348
32-19,11831731,21474
32-20,11835637,20476
32-21,11839543,-854
32-22,11843449,-10047
32-23,11847355,-5917
32-24,11851261,-3204
32-25,11855167,1122
32-26,11859073,12394
32-27,11862979,24993
32-28,11866885,14714
32-29,11870791,-6793
32-30,11874697,-9969
32-31,11878603,-6493
32-32,11882509,-5988
32-1,11886415,-2642
32-2,11890321,8517
32-3,11894227,16474
32-4,11898133,3212
32-5,11902039,-10164
32-6,11905945,-8641
32-7,11909851,-7548
32-8,11913757,-8065
32-9,11917663,-5701
32-10,11921569,922
32-11,11925475,3318
32-12,11929381,-4830
32-13,11933287,-9347
32-14,11937193,-7177
32-15,11941099,-4335
32-16,11945005,-743
32-17,11948911,8772
32-18,11952817,21325
32-19,11956723,13117
32-20,11960629,-6757
32-21,11964535,-9752
32-22,11968441,-4978
32-23,11972347,-1029
32-24,11976253,6568
32-25,11980159,21230
32-26,11984065,28908
32-27,11987971,9035
32-28,11991877,-10615
32-29,11995783,-9419
32-30,11999689,-7461
32-31,12003595,-8164
32-32,12007501,-4852
32-1,12011407,4557
32-2,12015313,7911
32-3,12019219,-3716
32-4,12023125,-10380
32-5,12027031,-8271
32-6,12030937,-8189
32-7,12034843,-8141
32-8,12038749,-4958
32-9,12042655,1355
32-10,12046561,368
32-11,12050467,-7366
32-12,12054373,-8874
32-13,12058279,-5946
32-14,12062185,-1760
32-15,12066091,4600
32-16,12069997,18154
32-17,12073903,27119
32-18,12077809,9462
32-19,12081715,-9970
32-20,12085621,-9198
32-21,12089527,-5520
32-22,12093433,-3531
32-23,12097339,3121
32-24,12101245,16702
32-25,12105151,19021
32-26,12109057,-506
32-27,12112963,-11358
32-28,12116869,-7751
32-29,12120775,-7913
32-30,12124681,-9325
32-31,12128587,-6642
32-32,12132493,-101
32-1,12136399,91
32-2,12140305,-7294
32-3,12144211,-9245
32-4,12148117,-7862
32-5,12152023,-7830
32-6,12155929,-7240
32-7,12159835,-3109
32-8,12163741,2276
32-9,12167647,-1478
32-10,12171553,-7943
32-11,12175459,-7620
32-12,12179365,-4316
32-13,12183271,386
32-14,12187177,8404
32-15,12191083,23524
32-16,12194989,25851
32-17,12198895,3098
32-18,12202801,-10790
32-19,12206707,-7229
32-20,12210613,-4641
32-21,12214519,-2080
32-22,12218425,6852
32-23,12222331,19887
32-24,12226237,15110
32-25,12230143,-4909
32-26,12234049,-10615
32-27,12237955,-5990
32-28,12241861,-4119
32-29,12245767,-5772
32-30,12249673,-7108
32-31,12253579,-3568
32-32,12257485,-3943
32-1,12261391,-7952
32-2,12265297,-8075
32-3,12269203,-7421
32-4,12273109,-7241
32-5,12277015,-6216
32-6,12280921,-1156
32-7,12284827,2335
32-8,12288733,-3387
32-9,12292639,-7967
32-10,12296545,-6481
32-11,12300451,-2782
32-12,12304357,2361
32-13,12308263,12403
32-14,12312169,27256
32-15,12316075,21766
32-16,12319981,-2344
32-17,12323887,-9929
32-18,12327793,-5288
32-19,12331699,-3065
32-20,12335605,1330
32-21,12339511,13033
32-22,12343417,23742
32-23,12347323,11069
32-24,12351229,-8258
32-25,12355135,-8662
32-26,12359041,-6369
32-27,12362947,-3934
32-28,12366853,2299
32-29,12370759,-159
32-30,12374665,-5827
32-31,12378571,-6901
32-32,12382477,-7439
32-1,12386383,-8060
32-2,12390289,-7325
32-3,12394195,-6829
32-4,12398101,-4981
32-5,12402007,1257
32-6,12405913,2125
32-7,12409819,-5282
32-8,12413725,-8231
32-9,12417631,-6126
32-10,12421537,-3459
32-11,12425443,-56
32-12,12429349,9587
32-13,12433255,20652
32-14,12437161,10727
32-15,12441067,-7018
32-16,12444973,-8466
32-17,12448879,-5053
32-18,12452785,-3560
32-19,12456691,1090
32-20,12460597,13550
32-21,12464503,20001
32-22,12468409,4092
32-23,12472315,-9630
32-24,12476221,-6633
32-25,12480127,-2920
32-26,12484033,649
32-27,12487939,13129
32-28,12491845,22969
32-29,12495751,10093
32-30,12499657,-7690
32-31,12503563,-8538
32-32,12507469,-6901
32-1,12511375,-8029
32-2,12515281,-7280
32-3,12519187,-4961
32-4,12523093,-404
32-5,12526999,-1796
32-6,12530905,-7200
32-7,12534811,-7820
32-8,12538717,-5401
32-9,12542623,-2076
32-10,12546529,2785
32-11,12550435,14989
32-12,12554341,21550
32-13,12558247,5087
32-14,12562153,-9470
32-15,12566059,-7663
32-16,12569965,-4976
32-17,12573871,-3137
32-18,12577777,3647
32-19,12581683,17078
32-20,12585589,17329
32-21,12589495,-1801
32-22,12593401,-10257
32-23,12597307,-6392
32-24,12601213,-3763
32-25,12605119,337
32-26,12609025,11233
32-27,12612931,23811
32-28,12616837,14126
32-29,12620743,-6776
32-30,12624649,-9924
32-31,12628555,-6213
32-32,12632461,-4704
32-1,12636367,407
32-2,12640273,14483
32-3,12644179,23354
32-4,12648085,6221
32-5,12651991,-10555
32-6,12655897,-8797
32-7,12659803,-7416
32-8,12663709,-8239
32-9,12667615,-5710
32-10,12671521,1142
32-11,12675427,3605
32-12,12679333,-4871
32-13,12683239,-9631
32-14,12687145,-7442
32-15,12691051,-4707
32-16,12694957,-1325
32-17,12698863,7802
32-18,12702769,20272
32-19,12706675,12716
32-20,12710581,-6858
32-21,12714487,-10248
32-22,12718393,-6084
32-23,12722299,-3572
32-24,12726205,1931
32-25,12730111,15081
32-26,12734017,23712
32-27,12737923,7307
32-28,12741829,-10189
32-29,12745735,-9250
32-30,12749641,-7276
32-31,12753547,-7626
32-32,12757453,-4012
32-1,12761359,6661
32-2,12765265,10457
32-3,12769171,-2802
32-4,12773077,-10456
32-5,12776983,-7996
32-6,12780889,-7815
32-7,12784795,-7753
32-8,12788701,-4259
32-9,12792607,2621
32-10,12796513,1718
32-11,12800419,-6904
32-12,12804325,-8954
32-13,12808231,-6342
32-14,12812137,-3472
32-15,12816043,940
32-16,12819949,12608
32-17,12823855,21912
32-18,12827761,7702
32-19,12831667,-9259
32-20,12835573,-8604
32-21,12839479,-4898
32-22,12843385,-2142
32-23,12847291,5242
32-24,12851197,19632
32-25,12855103,21956
32-26,12859009,906
32-27,12862915,-11079
32-28,12866821,-7244
32-29,12870727,-7307
32-30,12874633,-8959
32-31,12878539,-6026
32-32,12882445,1501
32-1,12886351,1943
32-2,12890257,-6608
32-3,12894163,-9135
32-4,12898069,-7518
32-5,12901975,-7441
32-6,12905881,-6815
32-7,12909787,-2172
32-8,12913693,3960
32-9,12917599,-229
32-10,12921505,-7849
32-11,12925411,-7816
32-12,12929317,-5033
32-13,12933223,-2008
32-14,12937129,3903
32-15,12941035,17365
32-16,12944941,20815
32-17,12948847,1830
32-18,12952753,-9832
32-19,12956659,-6190
32-20,12960565,-2025
32-21,12964471,3990
32-22,12968377,16149
32-23,12972283,30489
32-24,12976189,22341
32-25,12980095,-3305
32-26,12984001,-11039
32-27,12987907,-4703
32-28,12991813,-835
32-29,12995719,-3631
32-30,12999625,-5370
32-31,13003531,1668
32-32,13007437,107
32-1,13011343,-8549
32-2,13015249,-8835
32-3,13019155,-7543
32-4,13023061,-7878
32-5,13026967,-6679
32-6,13030873,-1281
32-7,13034779,2411
32-8,13038685,-3711
32-9,13042591,-8631
32-10,13046497,-7029
32-11,13050403,-3316
32-12,13054309,1895
32-13,13058215,11994
32-14,13062121,26784
32-15,13066027,21188
32-16,13069933,-3104
32-17,13073839,-10763
32-18,13077745,-6124
32-19,13081651,-4038
32-20,13085557,170
32-21,13089463,11748
32-22,13093369,22645
32-23,13097275,10344
32-24,13101181,-8752
32-25,13105087,-9003
32-26,13108993,-6371
32-27,13112899,-2565
32-28,13116805,4945
32-29,13120711,1780
32-30,13124617,-5134
32-31,13128523,-6933
32-32,13132429,-8020
32-1,13136335,-8633
32-2,13140241,-7912
32-3,13144147,-7593
32-4,13148053,-5827
32-5,13151959,145
32-6,13155865,1075
32-7,13159771,-5865
32-8,13163677,-8516
32-9,13167583,-6047
32-10,13171489,-1938
32-11,13175395,3945
32-12,13179301,16458
32-13,13183207,28574
32-14,13187113,14820
32-15,13191019,-7649
32-16,13194925,-9613
32-17,13198831,-5353
32-18,13202737,-3592
32-19,13206643,1940
32-20,13210549,15106
32-21,13214455,21129
32-22,13218361,3936
32-23,13222267,-10626
32-24,13226173,-7832
32-25,13230079,-4883
32-26,13233985,-2663
32-27,13237891,8595
32-28,13241797,18381
32-29,13245703,7231
32-30,13249609,-8735
32-31,13253515,-9333
32-32,13257421,-7918
32-1,13261327,-8762
32-2,13265233,-7843
32-3,13269139,-5009
32-4,13273045,402
32-5,13276951,-1476
32-6,13280857,-8045
32-7,13284763,-8852
32-8,13288669,-6533
32-9,13292575,-3849
32-10,13296481,375
32-11,13300387,12176
32-12,13304293,19263
32-13,13308199,4079
32-14,13312105,-9842
32-15,13316011,-8119
32-16,13319917,-5450
32-17,13323823,-3618
32-18,13327729,2964
32-19,13331635,16292
32-20,13335541,16702
32-21,13339447,-2269
32-22,13343353,-10629
32-23,13347259,-6355
32-24,13351165,-2482
32-25,13355071,3307
32-26,13358977,15438
32-27,13362883,28102
32-28,13366789,16448
32-29,13370695,-6996
32-30,13374601,-10697
32-31,13378507,-7172
32-32,13382413,-7154
32-1,13386319,-4543
32-2,13390225,5293
32-3,13394131,13073
32-4,13398037,1811
32-5,13401943,-10316
32-6,13405849,-9057
32-7,13409755,-7784
32-8,13413661,-7930
32-9,13417567,-5195
32-10,13421473,2792
32-11,13425379,5536
32-12,13429285,-4440
32-13,13433191,-9954
32-14,13437097,-7389
32-15,13441003,-4339
32-16,13444909,-410
32-17,13448815,9501
32-18,13452721,22298
32-19,13456627,14029
32-20,13460533,-6697
32-21,13464439,-10473
32-22,13468345,-6539
32-23,13472251,-4825
32-24,13476157,-315
32-25,13480063,12053
32-26,13483969,21139
32-27,13487875,6438
32-28,13491781,-10042
32-29,13495687,-9204
32-30,13499593,-6932
32-31,13503499,-6697
32-32,13507405,-1959
32-1,13511311,11429
32-2,13515217,15625
32-3,13519123,-1245
32-4,13523029,-10939
32-5,13526935,-7989
32-6,13530841,-7941
32-7,13534747,-8080
32-8,13538653,-4688
32-9,13542559,1736
32-10,13546465,990
32-11,13550371,-7103
32-12,13554277,-8993
32-13,13558183,-6146
32-14,13562089,-2569
32-15,13565995,2581
32-16,13569901,14649
32-17,13573807,23617
32-18,13577713,8288
32-19,13581619,-9510
32-20,13585525,-8999
32-21,13589431,-5691
32-22,13593337,-3847
32-23,13597243,2512
32-24,13601149,16370
32-25,13605055,19728
32-26,13608961,513
32-27,13612867,-10946
32-28,13616773,-7406
32-29,13620679,-7212
32-30,13624585,-8624
32-31,13628491,-4313
32-32,13632397,5473
32-1,13636303,4891
32-2,13640209,-6469
32-3,13644115,-9364
32-4,13648021,-7381
32-5,13651927,-7596
32-6,13655833,-6985
32-7,13659739,-2591
32-8,13663645,3244
32-9,13667551,-676
32-10,13671457,-8041
32-11,13675363,-8027
32-12,13679269,-5231
32-13,13683175,-2226
32-14,13687081,3500
32-15,13690987,16774
32-16,13694893,20515
32-17,13698799,1989
32-18,13702705,-9914
32-19,13706611,-6770
32-20,13710517,-3772
32-21,13714423,-351
32-22,13718329,9186
32-23,13722235,23040
32-24,13726141,17910
32-25,13730047,-3972
32-26,13733953,-10558
32-27,13737859,-5346
32-28,13741765,-3090
32-29,13745671,-5151
32-30,13749577,-6504
32-31,13753483,-1885
32-32,13757389,-2400
32-1,13761295,-7686
32-2,13765201,-7933
32-3,13769107,-7036
32-4,13773013,-6856
32-5,13776919,-5670
32-6,13780825,213
32-7,13784731,4563
32-8,13788637,-2141
32-9,13792543,-8010
32-10,13796449,-6545
32-11,13800355,-3568
32-12,13804261,-226
32-13,13808167,7792
32-14,13812073,21559
32-15,13815979,18203
32-16,13819885,-2611
32-17,13823791,-9392
32-18,13827697,-5038
32-19,13831603,-2372
32-20,13835509,2496
32-21,13839415,14615
32-22,13843321,25970
32-23,13847227,12688
32-24,13851133,-7778
32-25,13855039,-7859
32-26,13858945,-4084
32-27,13862851,3169
32-28,13866757,13852
32-29,13870663,9098
32-30,13874569,-619
32-31,13878475,-4639
32-32,13882381,-7774
32-1,13886287,-8459
32-2,13890193,-7377
32-3,13894099,-7266
32-4,13898005,-5333
32-5,13901911,1176
32-6,13905817,2312
32-7,13909723,-5406
32-8,13913629,-8666
32-9,13917535,-6461
32-10,13921441,-3666
32-11,13925347,84
32-12,13929253,10364
32-13,13933159,21984
32-14,13937065,11400
32-15,13940971,-7397
32-16,13944877,-8594
32-17,13948783,-3777
32-18,13952689,945
32-19,13956595,10141
32-20,13960501,25732
32-21,13964407,30405
32-22,13968313,7586
32-23,13972219,-10862
32-24,13976125,-7563
32-25,13980031,-2952
32-26,13983937,1926
32-27,13987843,16783
32-28,13991749,27623
32-29,13995655,12458
32-30,13999561,-8716
32-31,14003467,-10411
32-32,14007373,-8423
32-1,14011279,-9642
32-2,14015185,-8764
32-3,14019091,-6040
32-4,14022997,-827
32-5,14026903,-2449
32-6,14030809,-8695
32-7,14034715,-9352
32-8,14038621,-6493
32-9,14042527,-1996
32-10,14046433,4866
32-11,14050339,19330
32-12,14054245,26231
32-13,14058151,6143
32-14,14062057,-11599
32-15,14065963,-9482
32-16,14069869,-6133
32-17,14073775,-3874
32-18,14077681,3848
32-19,14081587,17757
32-20,14085493,17377
32-21,14089399,-3140
32-22,14093305,-12223
32-23,14097211,-8157
32-24,14101117,-5369
32-25,14105023,-990
32-26,14108929,10351
32-27,14112835,23269
32-28,14116741,13256
32-29,14120647,-8373
32-30,14124553,-11636
32-31,14128459,-7771
32-32,14132365,-6198
32-1,14136271,-970
32-2,14140177,13146
32-3,14144083,22282
32-4,14147989,5213
32-5,14151895,-12062
32-6,14155801,-10512
32-7,14159707,-9032
32-8,14163613,-9861
32-9,14167519,-7290
32-10,14171425,-405
32-11,14175331,2125
32-12,14179237,-6198
32-13,14183143,-10912
32-14,14187049,-8750
32-15,14190955,-5968
32-16,14194861,-2487
32-17,14198767,6731
32-18,14202673,19381
32-19,14206579,11913
32-20,14210485,-7856
32-21,14214391,-11393
32-22,14218297,-7197
32-23,14222203,-4678
32-24,14226109,836
32-25,14230015,14015
32-26,14233921,22713
32-27,14237827,6367
32-28,14241733,-11201
32-29,14245639,-10247
32-30,14249545,-8384
32-31,14253451,-9003
32-32,14257357,-6004
32-1,14261263,3229
32-2,14265169,7030
32-3,14269075,-4040
32-4,14272981,-10769
32-5,14276887,-8754
32-6,14280793,-8333
32-7,14284699,-8056
32-8,14288605,-4270
32-9,14292511,3429
32-10,14296417,2319
32-11,14300323,-7364
32-12,14304229,-9666
32-13,14308135,-6847
32-14,14312041,-3930
32-15,14315947,649
32-16,14319853,12467
32-17,14323759,21840
32-18,14327665,7555
32-19,14331571,-9655
32-20,14335477,-9194
32-21,14339383,-5951
32-22,14343289,-4179
32-23,14347195,1942
32-24,14351101,15676
32-25,14355007,19238
32-26,14358913,189
32-27,14362819,-11028
32-28,14366725,-7103
32-29,14370631,-7095
32-30,14374537,-8945
32-31,14378443,-5566
32-32,14382349,3195
32-1,14386255,3533
32-2,14390161,-6512
32-3,14394067,-9451
32-4,14397973,-7513
32-5,14401879,-7671
32-6,14405785,-7162
32-7,14409691,-2964
32-8,14413597,2596
32-9,14417503,-1049
32-10,14421409,-7932
32-11,14425315,-7736
32-12,14429221,-4532
32-13,14433127,-613
32-14,14437033,6067
32-15,14440939,19844
32-16,14444845,22978
32-17,14448751,2810
32-18,14452657,-10114
32-19,14456563,-7046
32-20,14460469,-4558
32-21,14464375,-2053
32-22,14468281,6724
32-23,14472187,20450
32-24,14476093,16618
32-25,14479999,-3811
32-26,14483905,-10265
32-27,14487811,-5416
32-28,14491717,-3321
32-29,14495623,-5304
32-30,14499529,-6568
32-31,14503435,-2138
32-32,14507341,-2495
32-1,14511247,-7440
32-2,14515153,-7737
32-3,14519059,-6855
32-4,14522965,-6643
32-5,14526871,-5510
32-6,14530777,418
32-7,14534683,4792
32-8,14538589,-2026
32-9,14542495,-7881
32-10,14546401,-6127
32-11,14550307,-2522
32-12,14554213,1846
32-13,14558119,10755
32-14,14562025,24604
32-15,14565931,20148
32-16,14569837,-2216
32-17,14573743,-9655
32-18,14577649,-5521
32-19,14581555,-3595
32-20,14585461,312
32-21,14589367,11731
32-22,14593273,23348
32-23,14597179,11696
32-24,14601085,-7762
32-25,14604991,-8283
32-26,14608897,-5356
32-27,14612803,-1112
32-28,14616709,6643
32-29,14620615,3292
32-30,14624521,-3731
32-31,14628427,-5709
32-32,14632333,-7173
32-1,14636239,-7875
32-2,14640145,-7080
32-3,14644051,-6730
32-4,14647957,-4930
32-5,14651863,1428
32-6,14655769,2691
32-7,14659675,-4832
32-8,14663581,-8090
32-9,14667487,-5920
32-10,14671393,-3070
32-11,14675299,679
32-12,14679205,10864
32-13,14683111,22638
32-14,14687017,12437
32-15,14690923,-6586
32-16,14694829,-8336
32-17,14698735,-4267
32-18,14702641,-1636
32-19,14706547,4570
32-20,14710453,18420
32-21,14714359,24907
32-22,14718265,6441
32-23,14722171,-9755
32-24,14726077,-6941
32-25,14729983,-3395
32-26,14733889,-616
32-27,14737795,11633
32-28,14741701,22235
32-29,14745607,10234
32-30,14749513,-7675
32-31,14753419,-8848
32-32,14757325,-7204
32-1,14761231,-8144
32-2,14765137,-7225
32-3,14769043,-4141
32-4,14772949,2078
32-5,14776855,221
32-6,14780761,-7444
32-7,14784667,-8517
32-8,14788573,-5856
32-9,14792479,-2782
32-10,14796385,2087
32-11,14800291,14612
32-12,14804197,22040
32-13,14808103,5633
32-14,14812009,-9738
32-15,14815915,-7857
32-16,14819821,-4410
32-17,14823727,-1370
32-18,14827633,7028
32-19,14831539,21658
32-20,14835445,21064
32-21,14839351,-902
32-22,14843257,-10815
32-23,14847163,-6516
32-24,14851069,-3410
32-25,14854975,1453
32-26,14858881,13339
32-27,14862787,26379
32-28,14866693,15657
32-29,14870599,-7166
32-30,14874505,-10891
32-31,14878411,-7228
32-32,14882317,-6651
32-1,14886223,-3284
32-2,14890129,8124
32-3,14894035,16654
32-4,14897941,3269
32-5,14901847,-10798
32-6,14905753,-9360
32-7,14909659,-8097
32-8,14913565,-8614
32-9,14917471,-6103
32-10,14921377,1257
32-11,14925283,4060
32-12,14929189,-4980
32-13,14933095,-10119
32-14,14937001,-7772
32-15,14940907,-4770
32-16,14944813,-801
32-17,14948719,9179
32-18,14952625,22312
32-19,14956531,14174
32-20,14960437,-6875
32-21,14964343,-10695
32-22,14968249,-6283
32-23,14972155,-3560
32-24,14976061,2488
32-25,14979967,16178
32-26,14983873,24921
32-27,14987779,7724
32-28,14991685,-10775
32-29,14995591,-9986
32-30,14999497,-7540
32-31,15003403,-7307
32-32,15007309,-2131
32-1,15011215,12143
32-2,15015121,16712
32-3,15019027,-1156
32-4,15022933,-11643
32-5,15026839,-8568
32-6,15030745,-8471
32-7,15034651,-8651
32-8,15038557,-5030
32-9,15042463,1887
32-10,15046369,1099
32-11,15050275,-7543
32-12,15054181,-9503
32-13,15058087,-6337
32-14,15061993,-1666
32-15,15065899,5392
32-16,15069805,19435
32-17,15073711,29009
32-18,15077617,10858
32-19,15081523,-10087
32-20,15085429,-9559
32-21,15089335,-4688
32-22,15093241,-74
32-23,15097147,9856
32-24,15101053,25712
32-25,15104959,26858
32-26,15108865,1764
32-27,15112771,-12904
32-28,15116677,-8882
32-29,15120583,-8841
32-30,15124489,-10472
32-31,15128395,-7499
32-32,15132301,-529
32-1,15136207,-84
32-2,15140113,-8091
32-3,15144019,-10493
32-4,15147925,-8986
32-5,15151831,-8911
32-6,15155737,-8335
32-7,15159643,-3990
32-8,15163549,1935
32-9,15167455,-1855
32-10,15171361,-9082
32-11,15175267,-9151
32-12,15179173,-6502
32-13,15183079,-3664
32-14,15186985,1733
32-15,15190891,14704
32-16,15194797,18645
32-17,15198703,629
32-18,15202609,-11106
32-19,15206515,-8171
32-20,15210421,-5819
32-21,15214327,-3604
32-22,15218233,4508
32-23,15222139,17839
32-24,15226045,14569
32-25,15229951,-4790
32-26,15233857,-10927
32-27,15237763,-5531
32-28,15241669,-2354
32-29,15245575,-4773
32-30,15249481,-6409
32-31,15253387,-932
32-32,15257293,-1756
32-1,15261199,-8086
32-2,15265105,-8242
32-3,15269011,-7205
32-4,15272917,-7397
32-5,15276823,-6494
32-6,15280729,-1556
32-7,15284635,2210
32-8,15288541,-3279
32-9,15292447,-8109
32-10,15296353,-6679
32-11,15300259,-3317
32-12,15304165,747
32-13,15308071,9167
32-14,15311977,23000
32-15,15315883,19128
32-16,15319789,-2569
32-17,15323695,-9843
32-18,15327601,-5790
32-19,15331507,-4073
32-20,15335413,-617
32-21,15339319,10178
32-22,15343225,21646
32-23,15347131,10808
32-24,15351037,-7868
32-25,15354943,-8145
32-26,15358849,-4813
32-27,15362755,879
32-28,15366661,10116
32-29,15370567,6018
32-30,15374473,-2768
32-31,15378379,-5602
32-32,15382285,-7471
32-1,15386191,-8111
32-2,15390097,-7276
32-3,15394003,-7158
32-4,15397909,-5630
32-5,15401815,-12
32-6,15405721,1168
32-7,15409627,-5330
32-8,15413533,-7894
32-9,15417439,-5052
32-10,15421345,398
32-11,15425251,7975
32-12,15429157,20890
32-13,15433063,32551
32-14,15436969,17715
32-15,15440875,-6737
32-16,15444781,-9576
32-17,15448687,-5318
32-18,15452593,-4184
32-19,15456499,531
32-20,15460405,13183
32-21,15464311,20006
32-22,15468217,4069
32-23,15472123,-10469
32-24,15476029,-7870
32-25,15479935,-4756
32-26,15483841,-2530
32-27,15487747,8757
32-28,15491653,18898
32-29,15495559,7972
32-30,15499465,-8330
32-31,15503371,-9117
32-32,15507277,-7630
32-1,15511183,-8551
32-2,15515089,-7638
32-3,15518995,-4851
32-4,15522901,761
32-5,15526807,-832
32-6,15530713,-7657
32-7,15534619,-8564
32-8,15538525,-5788
32-9,15542431,-2119
32-10,15546337,3361
32-11,15550243,16129
32-12,15554149,23168
32-13,15558055,5909
32-14,15561961,-10103
32-15,15565867,-8429
32-16,15569773,-5465
32-17,15573679,-3496
32-18,15577585,3594
32-19,15581491,17507
32-20,15585397,18157
32-21,15589303,-1697
32-22,15593209,-11003
32-23,15597115,-7032
32-24,15601021,-4152
32-25,15604927,199
32-26,15608833,11460
32-27,15612739,24595
32-28,15616645,14925
32-29,15620551,-7017
32-30,15624457,-10632
32-31,15628363,-6973
32-32,15632269,-6300
32-1,15636175,-2882
32-2,15640081,8551
32-3,15643987,17287
32-4,15647893,3952
32-5,15651799,-10482
32-6,15655705,-9148
32-7,15659611,-7858
32-8,15663517,-8455
32-9,15667423,-6125
32-10,15671329,639
32-11,15675235,3489
32-12,15679141,-4732
32-13,15683047,-9714
32-14,15686953,-7635
32-15,15690859,-4710
32-16,15694765,-1001
32-17,15698671,8359
32-18,15702577,21399
32-19,15706483,14184
32-20,15710389,-6328
32-21,15714295,-10371
32-22,15718201,-6007
32-23,15722107,-3317
32-24,15726013,2405
32-25,15729919,15760
32-26,15733825,24801
32-27,15737731,8176
32-28,15741637,-10384
32-29,15745543,-9668
32-30,15749449,-7442
32-31,15753355,-7838
32-32,15757261,-4370
32-1,15761167,6158
32-2,15765073,10348
32-3,15768979,-2594
32-4,15772885,-10524
32-5,15776791,-8174
32-6,15780697,-7935
32-7,15784603,-7941
32-8,15788509,-4565
32-9,15792415,2439
32-10,15796321,1822
32-11,15800227,-6893
32-12,15804133,-9134
32-13,15808039,-6504
32-14,15811945,-3564
32-15,15815851,946
32-16,15819757,12755
32-17,15823663,22411
32-18,15827569,8149
32-19,15831475,-9234
32-20,15835381,-8452
32-21,15839287,-3792
32-22,15843193,1270
32-23,15847099,11292
32-24,15851005,27012
32-25,15854911,28070
32-26,15858817,2832
32-27,15862723,-11704
32-28,15866629,-7143
32-29,15870535,-7188
32-30,15874441,-9481
32-31,15878347,-6365
32-32,15882253,1524
32-1,15886159,2017
32-2,15890065,-7021
32-3,15893971,-9813
32-4,15897877,-8110
32-5,15901783,-8071
32-6,15905689,-7471
32-7,15909595,-2892
32-8,15913501,3406
32-9,15917407,-646
32-10,15921313,-8342
32-11,15925219,-8114
32-12,15929125,-4498
32-13,15933031,613
32-14,15936937,9051
32-15,15940843,24285
32-16,15944749,27091
32-17,15948655,3840
32-18,15952561,-11291
32-19,15956467,-7779
32-20,15960373,-4632
32-21,15964279,-1379
32-22,15968185,8409
32-23,15972091,22365
32-24,15975997,17424
32-25,15979903,-4614
32-26,15983809,-11522
32-27,15987715,-6482
32-28,15991621,-4391
32-29,15995527,-6238
32-30,15999433,-7541
32-31,16003339,-3376
32-32,16007245,-3768
32-1,16011151,-8577
32-2,16015057,-8804
32-3,16018963,-7979
32-4,16022869,-7792
32-5,16026775,-6679
32-6,16030681,-1083
32-7,16034587,3105
32-8,16038493,-3157
32-9,16042399,-8520
32-10,16046305,-6926
32-11,16050211,-3029
32-12,16054117,2538
32-13,16058023,12915
32-14,16061929,28091
32-15,16065835,23002
32-16,16069741,-2079
32-17,16073647,-10745
32-18,16077553,-6012
32-19,16081459,-3773
32-20,16085365,411
32-21,16089271,12020
32-22,16093177,23331
32-23,16097083,11223
32-24,16100989,-8670
32-25,16104895,-9303
32-26,16108801,-6390
32-27,16112707,-2409
32-28,16116613,5314
32-29,16120519,2170
32-30,16124425,-4833
32-31,16128331,-6733
32-32,16132237,-8030
32-1,16136143,-8687
32-2,16140049,-7887
32-3,16143955,-7556
32-4,16147861,-5793
32-5,16151767,479
32-6,16155673,1713
32-7,16159579,-5654
32-8,16163485,-8829
32-9,16167391,-6714
32-10,16171297,-3917
32-11,16175203,-251
32-12,16179109,9789
32-13,16183015,21555
32-14,16186921,11676
32-15,16190827,-7118
32-16,16194733,-8987
32-17,16198639,-5355
32-18,16202545,-3724
32-19,16206451,1144
32-20,16210357,13980
32-21,16214263,21048
32-22,16218169,4726
32-23,16222075,-10197
32-24,16225981,-7254
32-25,16229887,-2993
32-26,16233793,993
32-27,16237699,14063
32-28,16241605,24269
32-29,16245511,10844
32-30,16249417,-7986
32-31,16253323,-9141
32-32,16257229,-7330
32-1,16261135,-8426
32-2,16265041,-7648
32-3,16268947,-5066
32-4,16272853,281
32-5,16276759,-1088
32-6,16280665,-7510
32-7,16284571,-8432
32-8,16288477,-5804
32-9,16292383,-2123
32-10,16296289,3388
32-11,16300195,16238
32-12,16304101,23521
32-13,16308007,6404
32-14,16311913,-9770
32-15,16315819,-8231
32-16,16319725,-5247
32-17,16323631,-3258
32-18,16327537,3857
32-19,16331443,17848
32-20,16335349,18607
32-21,16339255,-1390
32-22,16343161,-10940
32-23,16347067,-6993
32-24,16350973,-4078
32-25,16354879,356
32-26,16358785,11645
32-27,16362691,24808
32-28,16366597,15208
32-29,16370503,-6909
32-30,16374409,-10717
32-31,16378315,-6746
32-32,16382221,-5032
32-1,16386127,408
32-2,16390033,14869
32-3,16393939,24302
32-4,16397845,6886
32-5,16401751,-11131
32-6,16405657,-9722
32-7,16409563,-8182
32-8,16413469,-9052
32-9,16417375,-6582
32-10,16421281,174
32-11,16425187,2949
32-12,16429093,-5360
32-13,16432999,-10282
32-14,16436905,-7808
32-15,16440811,-4040
32-16,16444717,926
32-17,16448623,11358
32-18,16452529,24441
32-19,16456435,15683
32-20,16460341,-6646
32-21,16464247,-11201
32-22,16468153,-7035
32-23,16472059,-5183
32-24,16475965,-406
32-25,16479871,12326
32-26,16483777,21977
32-27,16487683,7091
32-28,16491589,-10507
32-29,16495495,-10030
32-30,16499401,-7625
32-31,16503307,-7313
32-32,16507213,-2327
32-1,16511119,11712
32-2,16515025,16547
32-3,16518931,-1124
32-4,16522837,-11890
32-5,16526743,-8823
32-6,16530649,-8494
32-7,16534555,-8579
32-8,16538461,-4814
32-9,16542367,2522
32-10,16546273,1856
32-11,16550179,-7493
32-12,16554085,-9990
32-13,16557991,-7244
32-14,16561897,-4298
32-15,16565803,242
32-16,16569709,12073
32-17,16573615,21829
32-18,16577521,7656
32-19,16581427,-10003
32-20,16585333,-9567
32-21,16589239,-5716
32-22,16593145,-2884
32-23,16597051,4476
32-24,16600957,19062
32-25,16604863,22236
32-26,16608769,1137
32-27,16612675,-11730
32-28,16616581,-7939
32-29,16620487,-7823
32-30,16624393,-9537
32-31,16628299,-6494
32-32,16632205,1642
32-1,16636111,2485
32-2,16640017,-6832
32-3,16643923,-9915
32-4,16647829,-8139
32-5,16651735,-8043
32-6,16655641,-7444
32-7,16659547,-2837
32-8,16663453,3728
32-9,16667359,-141
32-10,16671265,-8258
32-11,16675171,-8413
32-12,16679077,-5481
32-13,16682983,-2257
32-14,16686889,3804
32-15,16690795,17401
32-16,16694701,21719
32-17,16698607,2700
32-18,16702513,-10330
32-19,16706419,-7263
32-20,16710325,-4055
32-21,16714231,-421
32-22,16718137,9518
32-23,16722043,23894
32-24,16725949,19002
32-25,16729855,-3761
32-26,16733761,-11150
32-27,16737667,-5811
32-28,16741573,-3395
32-29,16745479,-5554
32-30,16749385,-6871
32-31,16753291,-1819
32-32,16757197,-2336
32-1,16761103,-8160
32-2,16765009,-8505
32-3,16768915,-7526
32-4,16772821,-7404
32-5,16776727,-6230
32-6,16780633,-230
32-7,16784539,4308
32-8,16788445,-2494
32-9,16792351,-8501
32-10,16796257,-7008
32-11,16800163,-4031
32-12,16804069,-585
32-13,16807975,7435
32-14,16811881,21287
32-15,16815787,18251
32-16,16819693,-2768
32-17,16823599,-9946
32-18,16827505,-5576
32-19,16831411,-2820
32-20,16835317,2126
32-21,16839223,14409
32-22,16843129,26051
32-23,16847035,12966
32-24,16850941,-8079
32-25,16854847,-8816
32-26,16858753,-5697
32-27,16862659,-1259
32-28,16866565,6994
32-29,16870471,3596
32-30,16874377,-3766
32-31,16878283,-5883
32-32,16882189,-7480
33-1,16886095,-8172
33-2,16890001,-7312
33-3,16893907,-6985
33-4,16897813,-5104
33-5,16901719,1734
33-6,16905625,3121
33-7,16909531,-5017
33-8,16913437,-8368
33-9,16917343,-5595
33-10,16921249,-1189
33-11,16925155,5239
33-12,16929061,18004
33-13,16932967,30613
33-14,16936873,17042
33-15,16940779,-6735
33-16,16944685,-9410
33-17,16948591,-4790
33-18,16952497,-2591
33-19,16956403,3570
33-20,16960309,17483
33-21,16964215,24019
33-22,16968121,5658
33-23,16972027,-10758
33-24,16975933,-8080
33-25,16979839,-4599
33-26,16983745,-1922
33-27,16987651,10314
33-28,16991557,20829
33-29,16995463,9040
33-30,16999369,-8396
33-31,17003275,-9525
33-32,17007181,-7987
33-33,17011087,-8936
32-1,17014993,-8008
32-2,17018899,-5103
32-3,17022805,732
32-4,17026711,-869
32-5,17030617,-7841
32-6,17034523,-8755
32-7,17038429,-5794
32-8,17042335,-1072
32-9,17046241,6165
32-10,17050147,20780
32-11,17054053,28231
32-12,17057959,8111
32-13,17061865,-10743
32-14,17065771,-8933
32-15,17069677,-5272
32-16,17073583,-2822
32-17,17077489,5092
32-18,17081395,19313
32-19,17085301,19351
32-20,17089207,-1795
32-21,17093113,-11828
32-22,17097019,-7733
32-23,17100925,-4844
32-24,17104831,-526
32-25,17108737,10777
32-26,17112643,24034
32-27,17116549,14550
32-28,17120455,-7533
32-29,17124361,-11450
32-30,17128267,-7835
32-31,17132173,-6948
32-32,17136079,-2839
32-1,17139985,10419
32-2,17143891,20297
32-3,17147797,5051
32-4,17151703,-11559
32-5,17155609,-10273
32-6,17159515,-8658
32-7,17163421,-9178
32-8,17167327,-6402
32-9,17171233,1345
32-10,17175139,4462
32-11,17179045,-5028
32-12,17182951,-10733
32-13,17186857,-8381
32-14,17190763,-5451
32-15,17194669,-1794
32-16,17198575,7602
32-17,17202481,20720
32-18,17206387,13592
32-19,17210293,-7104
32-20,17214199,-11393
32-21,17218105,-7388
32-22,17222011,-5607
32-23,17225917,-1189
32-24,17229823,11138
32-25,17233729,20849
32-26,17237635,6459
32-27,17241541,-10588
32-28,17245447,-9491
32-29,17249353,-7762
32-30,17253259,-9378
32-31,17257165,-7360
32-32,17261071,1475
32-1,17264977,6375
32-2,17268883,-3558
32-3,17272789,-10524
32-4,17276695,-8571
32-5,17280601,-8186
32-6,17284507,-8279
32-7,17288413,-5361
32-8,17292319,1184
32-9,17296225,963
32-10,17300131,-6971
32-11,17304037,-9057
32-12,17307943,-6153
32-13,17311849,-2271
32-14,17315755,3274
32-15,17319661,15644
32-16,17323567,25120
32-17,17327473,9666
32-18,17331379,-9242
32-19,17335285,-9157
32-20,17339191,-5632
32-21,17343097,-3712
32-22,17347003,2896
32-23,17350909,17011
32-24,17354815,20743
32-25,17358721,1363
32-26,17362627,-11500
32-27,17366533,-7405
32-28,17370439,-4618
32-29,17374345,-6740
32-30,17378251,-7995
32-31,17382157,-3087
32-32,17386063,-1268
32-1,17389969,-6860
32-2,17393875,-8765
32-3,17397781,-7587
32-4,17401687,-6752
32-5,17405593,-5715
32-6,17409499,1147
32-7,17413405,10927
32-8,17417311,4583
32-9,17421217,-7942
32-10,17425123,-8060
32-11,17429029,-3931
32-12,17432935,-60
32-13,17436841,7158
32-14,17440747,21150
32-15,17444653,24574
32-16,17448559,3730
32-17,17452465,-10481
32-18,17456371,-7460
32-19,17460277,-4803
32-20,17464183,-2074
32-21,17468089,6948
32-22,17471995,21220
32-23,17475901,17495
32-24,17479807,-4066
32-25,17483713,-10396
32-26,17487619,-6751
32-27,17491525,-3088
32-28,17495431,3302
32-29,17499337,853
32-30,17503243,-4021
32-31,17507149,-4781
32-32,17511055,-7546
33-1,17514961,-8706
33-2,17518867,-7733
33-3,17522773,-7543
33-4,17526679,-6826
33-5,17530585,-1885
33-6,17534491,2122
33-7,17538397,-3252
33-8,17542303,-8349
33-9,17546209,-7152
33-10,17550115,-4365
33-11,17554021,-1199
33-12,17557927,6178
33-13,17561833,19808
33-14,17565739,17570
33-15,17569645,-2607
33-16,17573551,-9785
33-17,17577457,-5646
33-18,17581363,-2899
33-19,17585269,1760
33-20,17589175,13701
33-21,17593081,25545
33-22,17596987,13637
33-23,17600893,-7602
33-24,17604799,-8989
33-25,17608705,-4267
33-26,17612611,-2782
33-27,17616517,8108
33-28,17620423,19129
33-29,17624329,9562
33-30,17628235,-6839
33-31,17632141,-8879
33-32,17636047,-7383
33-33,17639953,-8301
32-1,17643859,-7506
32-2,17647765,-5823
32-3,17651671,197
32-4,17655577,1840
32-5,17659483,-5459
32-6,17663389,-8834
32-7,17667295,-6804
32-8,17671201,-3925
32-9,17675107,-331
32-10,17679013,9619
32-11,17682919,21615
32-12,17686825,11995
32-13,17690731,-7263
32-14,17694637,-9375
32-15,17698543,-5200
32-16,17702449,-2618
32-17,17706355,3546
32-18,17710261,17406
32-19,17714167,24320
32-20,17718073,5931
32-21,17721979,-10384
32-22,17725885,-8170
32-23,17729791,-4375
32-24,17733697,-698
32-25,17737603,8740
32-26,17741509,23870
32-27,17745415,21805
32-28,17749321,-1706
32-29,17753227,-11533
32-30,17757133,-7899
32-31,17761039,-7633
32-32,17764945,-6856
32-1,17768851,-466
32-2,17772757,9538
32-3,17776663,5371
32-4,17780569,-8120
32-5,17784475,-10094
32-6,17788381,-7787
32-7,17792287,-7495
32-8,17796193,-5564
32-9,17800099,2497
32-10,17804005,9656
32-11,17807911,547
32-12,17811817,-9788
32-13,17815723,-8431
32-14,17819629,-4959
32-15,17823535,-1171
32-16,17827441,7083
32-17,17831347,21747
32-18,17835253,21373
32-19,17839159,-914
32-20,17843065,-11403
32-21,17846971,-7215
32-22,17850877,-4182
32-23,17854783,486
32-24,17858689,12136
32-25,17862595,25543
32-26,17866501,15779
32-27,17870407,-7105
32-28,17874313,-11001
32-29,17878219,-7660
32-30,17882125,-8751
32-31,17886031,-7665
32-32,17889937,305
32-1,17893843,8522
32-2,17897749,735
32-3,17901655,-9925
32-4,17905561,-9266
32-5,17909467,-7994
32-6,17913373,-8205
32-7,17917279,-6039
32-8,17921185,1224
32-9,17925091,4347
32-10,17928997,-4420
32-11,17932903,-9512
32-12,17936809,-6843
32-13,17940715,-2278
32-14,17944621,4491
32-15,17948527,16676
32-16,17952433,30640
32-17,17956339,20322
32-18,17960245,-5384
32-19,17964151,-11060
32-20,17968057,-6117
32-21,17971963,-3885
32-22,17975869,1465
32-23,17979775,14673
32-24,17983681,23762
32-25,17987587,7684
32-26,17991493,-10778
32-27,17995399,-10038
32-28,17999305,-7799
32-29,18003211,-9138
32-30,18007117,-8849
32-31,18011023,-3603
32-32,18014929,699
32-1,18018835,-5219
32-2,18022741,-9886
32-3,18026647,-8707
32-4,18030553,-8156
32-5,18034459,-7877
32-6,18038365,-4709
32-7,18042271,2788
32-8,18046177,2387
32-9,18050083,-6709
32-10,18053989,-9184
32-11,18057895,-6443
32-12,18061801,-3469
32-13,18065707,1012
32-14,18069613,12797
32-15,18073519,22803
32-16,18077425,9008
32-17,18081331,-8838
32-18,18085237,-8837
32-19,18089143,-5433
32-20,18093049,-3520
32-21,18096955,2832
32-22,18100861,16684
32-23,18104767,20642
32-24,18108673,1427
32-25,18112579,-11140
32-26,18116485,-6556
32-27,18120391,-3433
32-28,18124297,-3355
32-29,18128203,-3111
32-30,18132109,-428
32-31,18136015,-305
32-32,18139921,-6356
32-1,18143827,-8854
32-2,18147733,-7592
32-3,18151639,-7328
32-4,18155545,-7049
32-5,18159451,-2946
32-6,18163357,3172
32-7,18167263,-231
32-8,18171169,-7606
32-9,18175075,-7672
32-10,18178981,-4323
32-11,18182887,-168
32-12,18186793,6719
32-13,18190699,20862
32-14,18194605,24804
32-15,18198511,4147
32-16,18202417,-10066
32-17,18206323,-7085
32-18,18210229,-4435
32-19,18214135,-1912
32-20,18218041,6798
32-21,18221947,20995
32-22,18225853,17565
32-23,18229759,-3492
32-24,18233665,-10104
32-25,18237571,-5575
32-26,18241477,-575
32-27,18245383,5775
32-28,18249289,7914
32-29,18253195,5895
32-30,18257101,-1829
32-31,18261007,-8631
32-32,18264913,-8073
32-1,18268819,-7542
32-2,18272725,-7712
32-3,18276631,-6721
32-4,18280537,-2059
32-5,18284443,1964
32-6,18288349,-3426
32-7,18292255,-8491
32-8,18296161,-7135
32-9,18300067,-3757
32-10,18303973,362
32-11,18307879,8670
32-12,18311785,22676
32-13,18315691,19412
32-14,18319597,-2467
32-15,18323503,-10336
32-16,18327409,-6256
32-17,18331315,-4182
32-18,18335221,-480
32-19,18339127,10771
32-20,18343033,22864
32-21,18346939,12218
32-22,18350845,-7920
32-23,18354751,-9228
32-24,18358657,-4905
32-25,18362563,-3149
32-26,18366469,6740
32-27,18370375,17270
32-28,18374281,11408
32-29,18378187,-3850
32-30,18382093,-9063
32-31,18385999,-7959
32-32,18389905,-8203
32-1,18393811,-7901
32-2,18397717,-6249
32-3,18401623,-683
32-4,18405529,846
32-5,18409435,-5810
32-6,18413341,-8941
32-7,18417247,-7025
32-8,18421153,-4224
32-9,18425059,-740
32-10,18428965,8985
32-11,18432871,21059
32-12,18436777,11904
32-13,18440683,-7117
32-14,18444589,-9346
32-15,18448495,-5262
32-16,18452401,-2752
32-17,18456307,3178
32-18,18460213,16828
32-19,18464119,24011
32-20,18468025,6032
32-21,18471931,-10266
32-22,18475837,-8116
32-23,18479743,-4390
32-24,18483649,-877
32-25,18487555,8315
32-26,18491461,23369
32-27,18495367,21674
32-28,18499273,-1664
32-29,18503179,-11570
32-30,18507085,-7930
32-31,18510991,-7893
32-32,18514897,-7372
32-1,18518803,-1542
32-2,18522709,8058
32-3,18526615,4799
32-4,18530521,-7827
32-5,18534427,-9966
32-6,18538333,-7587
32-7,18542239,-6742
32-8,18546145,-4237
32-9,18550051,5195
32-10,18553957,13346
32-11,18557863,2490
32-12,18561769,-9948
32-13,18565675,-8734
32-14,18569581,-5554
32-15,18573487,-2772
32-16,18577393,4603
32-17,18581299,19065
32-18,18585205,20024
32-19,18589111,-879
32-20,18593017,-11270
32-21,18596923,-7170
32-22,18600829,-3979
32-23,18604735,593
32-24,18608641,11961
32-25,18612547,25507
32-26,18616453,16157
32-27,18620359,-6912
32-28,18624265,-11096
32-29,18628171,-7590
32-30,18632077,-8638
32-31,18635983,-7752
32-32,18639889,21
32-1,18643795,8426
32-2,18647701,947
32-3,18651607,-9813
32-4,18655513,-9179
32-5,18659419,-7989
32-6,18663325,-8462
32-7,18667231,-6648
32-8,18671137,-440
32-9,18675043,2600
32-10,18678949,-4593
32-11,18682855,-9235
32-12,18686761,-7371
32-13,18690667,-4458
32-14,18694573,-788
32-15,18698479,8487
32-16,18702385,21810
32-17,18706291,14973
32-18,18710197,-5644
32-19,18714103,-9724
32-20,18718009,-4751
32-21,18721915,-240
32-22,18725821,8240
32-23,18729727,23402
32-24,18733633,31759
32-25,18737539,11765
32-26,18741445,-9882
32-27,18745351,-9158
32-28,18749257,-6808
32-29,18753163,-8744
32-30,18757069,-8488
32-31,18760975,-3560
32-32,18764881,450
32-1,18768787,-5147
32-2,18772693,-9609
32-3,18776599,-8476
32-4,18780505,-7981
32-5,18784411,-7736
32-6,18788317,-4717
32-7,18792223,2588
32-8,18796129,2213
32-9,18800035,-6634
32-10,18803941,-8885
32-11,18807847,-5653
32-12,18811753,-900
32-13,18815659,6195
32-14,18819565,20207
32-15,18823471,30258
32-16,18827377,12476
32-17,18831283,-9336
32-18,18835189,-9436
32-19,18839095,-5245
32-20,18843001,-2812
32-21,18846907,4667
32-22,18850813,19134
32-23,18854719,22451
32-24,18858625,1806
32-25,18862531,-11609
32-26,18866437,-7499
32-27,18870343,-5340
32-28,18874249,-5634
32-29,18878155,-5237
32-30,18882061,-2988
32-31,18885967,-2593
32-32,18889873,-7195
32-1,18893779,-9208
32-2,18897685,-8335
32-3,18901591,-7918
32-4,18905497,-7404
32-5,18909403,-3007
32-6,18913309,3482
32-7,18917215,-261
32-8,18921121,-8033
32-9,18925027,-8014
32-10,18928933,-4333
32-11,18932839,1066
32-12,18936745,9793
32-13,18940651,25286
32-14,18944557,28769
32-15,18948463,5269
32-16,18952369,-10986
32-17,18956275,-7632
32-18,18960181,-4427
32-19,18964087,-1438
32-20,18967993,7902
32-21,18971899,21931
32-22,18975805,17772
32-23,18979711,-4014
32-24,18983617,-10969
32-25,18987523,-6906
32-26,18991429,-3580
32-27,18995335,1323
32-28,18999241,3215
32-29,19003147,1689
32-30,19007053,-4020
32-31,19010959,-8988
32-32,19014865,-8610
32-1,19018771,-8224
32-2,19022677,-8047
32-3,19026583,-6939
32-4,19030489,-1636
32-5,19034395,2777
32-6,19038301,-3359
32-7,19042207,-9092
32-8,19046113,-7840
32-9,19050019,-4946
32-10,19053925,-1653
32-11,19057831,5948
32-12,19061737,19715
32-13,19065643,17450
32-14,19069549,-2923
32-15,19073455,-10366
32-16,19077361,-6592
32-17,19081267,-4728
32-18,19085173,-1387
32-19,19089079,9263
32-20,19092985,21262
32-21,19096891,11405
32-22,19100797,-8028
32-23,19104703,-9148
32-24,19108609,-4225
32-25,19112515,-1084
32-26,19116421,10164
32-27,19120327,21101
32-28,19124233,14155
32-29,19128139,-3161
32-30,19132045,-9570
32-31,19135951,-8425
32-32,19139857,-8493
32-1,19143763,-8113
32-2,19147669,-6090
32-3,19151575,507
32-4,19155481,2254
32-5,19159387,-5732
32-6,19163293,-9477
32-7,19167199,-7230
32-8,19171105,-4169
32-9,19175011,-112
32-10,19178917,10298
32-11,19182823,22556
32-12,19186729,12618
32-13,19190635,-7502
32-14,19194541,-10044
32-15,19198447,-6175
32-16,19202353,-4333
32-17,19206259,884
32-18,19210165,14054
32-19,19214071,21856
32-20,19217977,5304
32-21,19221883,-10457
32-22,19225789,-8536
32-23,19229695,-4860
32-24,19233601,-1381
32-25,19237507,7613
32-26,19241413,22638
32-27,19245319,21355
32-28,19249225,-1679
32-29,19253131,-11760
32-30,19257037,-8157
32-31,19260943,-7919
32-32,19264849,-7318
32-1,19268755,-1254
32-2,19272661,8729
32-3,19276567,5310
32-4,19280473,-7876
32-5,19284379,-10184
32-6,19288285,-7691
32-7,19292191,-6806
32-8,19296097,-4249
32-9,19300003,5287
32-10,19303909,13474
32-11,19307815,2470
32-12,19311721,-10109
32-13,19315627,-8859
32-14,19319533,-5592
32-15,19323439,-2709
32-16,19327345,4766
32-17,19331251,19245
32-18,19335157,20140
32-19,19339063,-934
32-20,19342969,-11444
32-21,19346875,-7326
32-22,19350781,-4123
32-23,19354687,504
32-24,19358593,11908
32-25,19362499,25475
32-26,19366405,16196
32-27,19370311,-6986
32-28,19374217,-11344
32-29,19378123,-7876
32-30,19382029,-8921
32-31,19385935,-8133
32-32,19389841,-685
32-1,19393747,7694
32-2,19397653,639
32-3,19401559,-9972
32-4,19405465,-9411
32-5,19409371,-8159
32-6,19413277,-8567
32-7,19417183,-6758
32-8,19421089,-550
32-9,19424995,2599
32-10,19428901,-4590
32-11,19432807,-9366
32-12,19436713,-7509
32-13,19440619,-4532
32-14,19444525,-879
32-15,19448431,8255
32-16,19452337,21621
32-17,19456243,15064
32-18,19460149,-5724
32-19,19464055,-10247
32-20,19467961,-5800
32-21,19471867,-3089
32-22,19475773,2622
32-23,19479679,15879
32-24,19483585,25554
32-25,19487491,9650
32-26,19491397,-10107
32-27,19495303,-9011
32-28,19499209,-4951
32-29,19503115,-7254
32-30,19507021,-8651
32-31,19510927,-3302
32-32,19514833,1288
32-1,19518739,-4611
32-2,19522645,-9286
32-3,19526551,-8114
32-4,19530457,-7680
32-5,19534363,-7627
32-6,19538269,-5027
32-7,19542175,1663
32-8,19546081,1795
32-9,19549987,-6176
32-10,19553893,-8633
32-11,19557799,-6110
32-12,19561705,-3006
32-13,19565611,1451
32-14,19569517,13004
32-15,19573423,23311
32-16,19577329,9829
32-17,19581235,-8434
32-18,19585141,-8450
32-19,19589047,-4388
32-20,19592953,-1271
32-21,19596859,6446
32-22,19600765,21449
32-23,19604671,24641
32-24,19608577,3156
32-25,19612483,-10167
32-26,19616389,-7147
32-27,19620295,-1093
32-28,19624201,6192
32-29,19628107,2930
32-30,19632013,-446
32-31,19635919,1311
32-32,19639825,-5395
33-1,19643731,-9579
33-2,19647637,-7625
33-3,19651543,-7457
33-4,19655449,-7144
33-5,19659355,-2580
33-6,19663261,4043
33-7,19667167,282
33-8,19671073,-7948
33-9,19674979,-8175
33-10,19678885,-5253
33-11,19682791,-2072
33-12,19686697,3866
33-13,19690603,17591
33-14,19694509,22323
33-15,19698415,3262
33-16,19702321,-10187
33-17,19706227,-7219
33-18,19710133,-3903
33-19,19714039,-197
33-20,19717945,9715
33-21,19721851,24301
33-22,19725757,20060
33-23,19729663,-3315
33-24,19733569,-10642
33-25,19737475,-5400
33-26,19741381,-4367
33-27,19745287,4717
33-28,19749193,15702
33-29,19753099,8071
33-30,19757005,-6423
33-31,19760911,-9067
33-32,19764817,-7980
33-33,19768723,-8761
32-1,19772629,-7856
32-2,19776535,-6943
32-3,19780441,-1754
32-4,19784347,2748
32-5,19788253,-3269
32-6,19792159,-8824
32-7,19796065,-7338
32-8,19799971,-3321
32-9,19803877,2349
32-10,19807783,12622
32-11,19811689,27895
32-12,19815595,23418
32-13,19819501,-2033
32-14,19823407,-11434
32-15,19827313,-6629
32-16,19831219,-4087
32-17,19835125,412
32-18,19839031,12419
32-19,19842937,24443
32-20,19846843,12573
32-21,19850749,-8509
32-22,19854655,-10497
32-23,19858561,-5967
32-24,19862467,-3260
32-25,19866373,3900
32-26,19870279,18924
32-27,19874185,23656
32-28,19878091,2912
32-29,19881997,-11964
32-30,19885903,-9229
32-31,19889809,-8802
32-32,19893715,-9583
32-1,19897621,-7174
32-2,19901527,-1372
32-3,19905433,271
32-4,19909339,-6805
32-5,19913245,-10046
32-6,19917151,-7649
32-7,19921057,-3302
32-8,19924963,3009
32-9,19928869,15681
32-10,19932775,28973
32-11,19936681,16200
32-12,19940587,-8003
32-13,19944493,-11255
32-14,19948399,-6582
32-15,19952305,-4473
32-16,19956211,1481
32-17,19960117,15246
32-18,19964023,22580
32-19,19967929,4860
32-20,19971835,-11654
32-21,19975741,-9725
32-22,19979647,-5961
32-23,19983553,-2314
32-24,19987459,6887
32-25,19991365,21979
32-26,19995271,20713
32-27,19999177,-2652
32-28,20003083,-13105
32-29,20006989,-9499
32-30,20010895,-9564
32-31,20014801,-9448
32-32,20018707,-3782
32-1,20022613,5700
32-2,20026519,2808
32-3,20030425,-9164
32-4,20034331,-11093
32-5,20038237,-9099
32-6,20042143,-9059
32-7,20046049,-7749
32-8,20049955,-1192
32-9,20053861,5614
32-10,20057767,-1313
32-11,20061673,-10320
32-12,20065579,-9387
32-13,20069485,-6095
32-14,20073391,-2532
32-15,20077297,5006
32-16,20081203,19431
32-17,20085109,20113
32-18,20089015,-1197
32-19,20092921,-11900
32-20,20096827,-8083
32-21,20100733,-5631
32-22,20104639,-2272
32-23,20108545,8127
32-24,20112451,21914
32-25,20116357,14443
32-26,20120263,-6873
32-27,20124169,-10763
32-28,20128075,-7141
32-29,20131981,-8279
32-30,20135887,-8952
32-31,20139793,-3099
32-32,20143699,5485
32-1,20147605,64
32-2,20151511,-9638
32-3,20155417,-9267
32-4,20159323,-7948
32-5,20163229,-8229
32-6,20167135,-6411
32-7,20171041,383
32-8,20174947,3758
32-9,20178853,-4254
32-10,20182759,-9446
32-11,20186665,-7069
32-12,20190571,-3055
32-13,20194477,2248
32-14,20198383,12877
32-15,20202289,26433
32-16,20206195,17991
32-17,20210101,-5383
32-18,20214007,-10700
32-19,20217913,-6257
32-20,20221819,-4328
32-21,20225725,590
32-22,20229631,13562
32-23,20233537,23709
32-24,20237443,8693
32-25,20241349,-10237
32-26,20245255,-9125
32-27,20249161,-5684
32-28,20253067,-6365
32-29,20256973,-6453
32-30,20260879,-3904
32-31,20264785,-864
32-32,20268691,-5055
32-1,20272597,-9186
32-2,20276503,-8312
32-3,20280409,-7739
32-4,20284315,-7692
32-5,20288221,-5093
32-6,20292127,1634
32-7,20296033,1744
32-8,20299939,-6266
32-9,20303845,-8574
32-10,20307751,-5588
32-11,20311657,-1545
32-12,20315563,4123
32-13,20319469,16541
32-14,20323375,26585
32-15,20327281,11346
32-16,20331187,-8487
32-17,20335093,-8814
32-18,20338999,-5058
32-19,20342905,-2888
32-20,20346811,3923
32-21,20350717,18487
32-22,20354623,22580
32-23,20358529,2633
32-24,20362435,-10883
32-25,20366341,-7583
32-26,20370247,-3621
32-27,20374153,12
32-28,20378059,2038
32-29,20381965,1957
32-30,20385871,-1756
32-31,20389777,-7469
32-32,20393683,-8329
32-1,20397589,-7754
32-2,20401495,-7460
32-3,20405401,-6740
32-4,20409307,-2520
32-5,20413213,4364
32-6,20417119,711
32-7,20421025,-7657
32-8,20424931,-8066
32-9,20428837,-5072
32-10,20432743,-1760
32-11,20436649,4234
32-12,20440555,17948
32-13,20444461,22988
32-14,20448367,3960
32-15,20452273,-10004
32-16,20456179,-7046
32-17,20460085,-3515
32-18,20463991,430
32-19,20467897,10507
32-20,20471803,25248
32-21,20475709,21075
32-22,20479615,-2892
32-23,20483521,-10713
32-24,20487427,-5732
32-25,20491333,-3853
32-26,20495239,4855
32-27,20499145,15090
32-28,20503051,12960
32-29,20506957,701
32-30,20510863,-8283
32-31,20514769,-9127
32-32,20518675,-8307
32-1,20522581,-8031
32-2,20526487,-6982
32-3,20530393,-899
32-4,20534299,4232
32-5,20538205,-2492
32-6,20542111,-9244
32-7,20546017,-7910
32-8,20549923,-4744
32-9,20553829,-1020
32-10,20557735,7277
32-11,20561641,21677
32-12,20565547,19251
32-13,20569453,-2725
32-14,20573359,-10935
32-15,20577265,-6448
32-16,20581171,-3460
32-17,20585077,1625
32-18,20588983,14036
32-19,20592889,26408
32-20,20596795,13879
32-21,20600701,-8235
32-22,20604607,-10052
32-23,20608513,-4302
32-24,20612419,1308
32-25,20616325,12107
32-26,20620231,27976
32-27,20624137,30194
32-28,20628043,5333
32-29,20631949,-12329
32-30,20635855,-9804
32-31,20639761,-8750
32-32,20643667,-9190
32-1,20647573,-5572
32-2,20651479,3275
32-3,20655385,5005
32-4,20659291,-6363
32-5,20663197,-11526
32-6,20667103,-9150
32-7,20671009,-7547
32-8,20674915,-5376
32-9,20678821,2916
32-10,20682727,14820
32-11,20686633,8028
32-12,20690539,-8922
32-13,20694445,-10863
32-14,20698351,-6312
32-15,20702257,-1536
32-16,20706163,7304
32-17,20710069,23043
32-18,20713975,29933
32-19,20717881,7917
32-20,20721787,-12186
32-21,20725693,-10230
32-22,20729599,-6176
32-23,20733505,-2960
32-24,20737411,6200
32-25,20741317,21469
32-26,20745223,20548
32-27,20749129,-2763
32-28,20753035,-13326
32-29,20756941,-9736
32-30,20760847,-9720
32-31,20764753,-9441
32-32,20768659,-2716
32-1,20772565,8687
32-2,20776471,5204
32-3,20780377,-9329
32-4,20784283,-11747
32-5,20788189,-9353
32-6,20792095,-9642
32-7,20796001,-8393
32-8,20799907,-2081
32-9,20803813,4453
32-10,20807719,-2012
32-11,20811625,-10405
32-12,20815531,-9181
32-13,20819437,-4793
32-14,20823343,1407
32-15,20827249,11653
32-16,20831155,27488
32-17,20835061,26283
32-18,20838967,123
32-19,20842873,-13097
32-20,20846779,-8633
32-21,20850685,-5707
32-22,20854591,-1724
32-23,20858497,9487
32-24,20862403,22922
32-25,20866309,14305
32-26,20870215,-8196
32-27,20874121,-12596
32-28,20878027,-8855
32-29,20881933,-9817
32-30,20885839,-10318
32-31,20889745,-5422
32-32,20893651,1778
32-1,20897557,-2505
32-2,20901463,-10387
32-3,20905369,-10182
32-4,20909275,-9012
32-5,20913181,-8908
32-6,20917087,-6937
32-7,20920993,496
32-8,20924899,4125
32-9,20928805,-4684
32-10,20932711,-10435
32-11,20936617,-8226
32-12,20940523,-5081
32-13,20944429,-1115
32-14,20948335,8559
32-15,20952241,22160
32-16,20956147,15416
32-17,20960053,-6027
32-18,20963959,-11016
32-19,20967865,-6873
32-20,20971771,-4991
32-21,20975677,-366
32-22,20979583,12169
32-23,20983489,22501
32-24,20987395,8282
32-25,20991301,-10210
32-26,20995207,-8851
32-27,20999113,-4701
32-28,21003019,-5055
32-29,21006925,-5466
32-30,21010831,-2215
32-31,21014737,1510
32-32,21018643,-4192
32-1,21022549,-9653
32-2,21026455,-8559
32-3,21030361,-7534
32-4,21034267,-7293
32-5,21038173,-3321
32-6,21042079,6959
32-7,21045985,6869
32-8,21049891,-5843
32-9,21053797,-9331
32-10,21057703,-4599
32-11,21061609,1659
32-12,21065515,10804
32-13,21069421,24826
32-14,21073327,32396
32-15,21077233,14443
32-16,21081139,-8909
32-17,21085045,-9932
32-18,21088951,-5889
32-19,21092857,-4208
32-20,21096763,2123
32-21,21100669,16373
32-22,21104575,20794
32-23,21108481,1652
32-24,21112387,-11679
32-25,21116293,-8617
32-26,21120199,-4913
32-27,21124105,-1543
32-28,21128011,270
32-29,21131917,-61
32-30,21135823,-3547
32-31,21139729,-8639
32-32,21143635,-9301
32-1,21147541,-8762
32-2,21151447,-8542
32-3,21155353,-7955
32-4,21159259,-4430
32-5,21163165,1547
32-6,21167071,-1325
32-7,21170977,-8314
32-8,21174883,-8545
32-9,21178789,-5291
32-10,21182695,-1209
32-11,21186601,5360
32-12,21190507,19288
32-13,21194413,23794
32-14,21198319,3836
32-15,21202225,-10639
32-16,21206131,-7878
32-17,21210037,-5050
32-18,21213943,-2423
32-19,21217849,6483
32-20,21221755,20957
32-21,21225661,18166
32-22,21229567,-3778
32-23,21233473,-11010
32-24,21237379,-6251
32-25,21241285,-4597
32-26,21245191,3454
32-27,21249097,13690
32-28,21253003,12278
32-29,21256909,413
32-30,21260815,-8319
32-31,21264721,-9148
32-32,21268627,-8350
32-1,21272533,-7812
32-2,21276439,-6527
32-3,21280345,235
32-4,21284251,5752
32-5,21288157,-2008
32-6,21292063,-9669
32-7,21295969,-8396
32-8,21299875,-5760
32-9,21303781,-3029
32-10,21307687,4237
32-11,21311593,18194
32-12,21315499,17151
32-13,21319405,-2980
32-14,21323311,-10838
32-15,21327217,-6617
32-16,21331123,-3691
32-17,21335029,1185
32-18,21338935,13230
32-19,21342841,25618
32-20,21346747,13831
32-21,21350653,-7900
32-22,21354559,-10197
32-23,21358465,-5361
32-24,21362371,-2207
32-25,21366277,5313
32-26,21370183,20525
32-27,21374089,25492
32-28,21377995,4217
32-29,21381901,-11588
32-30,21385807,-9079
32-31,21389713,-7936
32-32,21393619,-7863
32-1,21397525,-3490
32-2,21401431,7295
32-3,21405337,9358
32-4,21409243,-4685
32-5,21413149,-11264
32-6,21417055,-8572
32-7,21420961,-7278
32-8,21424867,-5519
32-9,21428773,2190
32-10,21432679,13928
32-11,21436585,8303
32-12,21440491,-8070
32-13,21444397,-10466
32-14,21448303,-6615
32-15,21452209,-3877
32-16,21456115,1965
32-17,21460021,15683
32-18,21463927,23682
32-19,21467833,5977
32-20,21471739,-11118
32-21,21475645,-9203
32-22,21479551,-5095
32-23,21483457,-1042
32-24,21487363,8498
32-25,21491269,23924
32-26,21495175,22874
32-27,21499081,-1310
32-28,21502987,-12432
32-29,21506893,-8650
32-30,21510799,-8647
32-31,21514705,-8386
32-32,21518611,-1338
32-1,21522517,10506
32-2,21526423,6962
32-3,21530329,-8292
32-4,21534235,-11038
32-5,21538141,-8536
32-6,21542047,-8801
32-7,21545953,-7554
32-8,21549859,-1042
32-9,21553765,5836
32-10,21557671,-888
32-11,21561577,-9990
32-12,21565483,-9098
32-13,21569389,-5647
32-14,21573295,-1732
32-15,21577201,6255
32-16,21581107,21118
32-17,21585013,21655
32-18,21588919,-659
32-19,21592825,-11753
32-20,21596731,-7057
32-21,21600637,-2150
32-22,21604543,5727
32-23,21608449,19718
32-24,21612355,31798
32-25,21616261,20240
32-26,21620167,-6377
32-27,21624073,-11878
32-28,21627979,-7893
32-29,21631885,-9220
32-30,21635791,-9817
32-31,21639697,-4778
32-32,21643603,2455
32-1,21647509,-1987
32-2,21651415,-10140
32-3,21655321,-9919
32-4,21659227,-8739
32-5,21663133,-8677
32-6,21667039,-6708
32-7,21670945,805
32-8,21674851,4555
32-9,21678757,-4343
32-10,21682663,-9995
32-11,21686569,-7338
32-12,21690475,-2662
32-13,21694381,4210
32-14,21698287,16414
32-15,21702193,30689
32-16,21706099,20909
32-17,21710005,-5434
32-18,21713911,-11845
32-19,21717817,-6727
32-20,21721723,-4172
32-21,21725629,1648
32-22,21729535,15161
32-23,21733441,25083
32-24,21737347,9080
32-25,21741253,-10889
32-26,21745159,-9703
32-27,21749065,-5198
32-28,21752971,-5071
32-29,21756877,-5364
32-30,21760783,-782
32-31,21764689,4359
32-32,21768595,-3461
32-1,21772501,-11036
32-2,21776407,-9513
32-3,21780313,-8757
32-4,21784219,-8917
32-5,21788125,-5736
32-6,21792031,1793
32-7,21795937,1821
32-8,21799843,-7281
32-9,21803749,-9795
32-10,21807655,-6447
32-11,21811561,-1401
32-12,21815467,6188
32-13,21819373,20316
32-14,21823279,30954
32-15,21827185,13413
32-16,21831091,-9597
32-17,21834997,-10287
32-18,21838903,-5829
32-19,21842809,-3343
32-20,21846715,3966
32-21,21850621,18601
32-22,21854527,22225
32-23,21858433,1793
32-24,21862339,-12072
32-25,21866245,-8675
32-26,21870151,-2758
32-27,21874057,3312
32-28,21877963,6556
32-29,21881869,7086
32-30,21885775,900
32-31,21889681,-8951
32-32,21893587,-10552
32-1,21897493,-9394
32-2,21901399,-9401
32-3,21905305,-8653
32-4,21909211,-4643
32-5,21913117,1803
32-6,21917023,-1531
32-7,21920929,-9310
32-8,21924835,-9693
32-9,21928741,-6855
32-10,21932647,-3731
32-11,21936553,1878
32-12,21940459,15362
32-13,21944365,20613
32-14,21948271,2208
32-15,21952177,-11453
32-16,21956083,-8794
32-17,21959989,-6010
32-18,21963895,-3486
32-19,21967801,4938
32-20,21971707,19253
32-21,21975613,17023
32-22,21979519,-4379
32-23,21983425,-11455
32-24,21987331,-6262
32-25,21991237,-3185
32-26,21995143,6601
32-27,21999049,17314
32-28,22002955,14976
32-29,22006861,1360
32-30,22010767,-8919
32-31,22014673,-9758
32-32,22018579,-8824
32-1,22022485,-8904
32-2,22026391,-8096
32-3,22030297,-2972
32-4,22034203,1457
32-5,22038109,-4127
32-6,22042015,-9822
32-7,22045921,-8449
32-8,22049827,-4806
32-9,22053733,-105
32-10,22057639,8785
32-11,22061545,23211
32-12,22065451,20370
32-13,22069357,-2573
32-14,22073263,-11637
32-15,22077169,-7492
32-16,22081075,-5288
32-17,22084981,-1464
32-18,22088887,9824
32-19,22092793,22477
32-20,22096699,12208
32-21,22100605,-8457
32-22,22104511,-10779
32-23,22108417,-6032
32-24,22112323,-2848
32-25,22116229,4668
32-26,22120135,19933
32-27,22124041,24846
32-28,22127947,3560
32-29,22131853,-12146
32-30,22135759,-9589
32-31,22139665,-8403
32-32,22143571,-8298
32-1,22147477,-3941
32-2,22151383,6735
32-3,22155289,8798
32-4,22159195,-5033
32-5,22163101,-11521
32-6,22167007,-8881
32-7,22170913,-7663
32-8,22174819,-6068
32-9,22178725,1258
32-10,22182631,12618
32-11,22186537,7329
32-12,22190443,-8397
32-13,22194349,-10692
32-14,22198255,-6971
32-15,22202161,-4285
32-16,22206067,1401
32-17,22209973,14861
32-18,22213879,23003
32-19,22217785,5864
32-20,22221691,-11079
32-21,22225597,-9325
32-22,22229503,-5245
32-23,22233409,-1294
32-24,22237315,8041
32-25,22241221,23313
32-26,22245127,22551
32-27,22249033,-1195
32-28,22252939,-12575
32-29,22256845,-8977
32-30,22260751,-8166
32-31,22264657,-6920
32-32,22268563,2415
32-1,22272469,17261
32-2,22276375,11806
32-3,22280281,-8132
32-4,22284187,-11804
32-5,22288093,-8505
32-6,22291999,-8673
32-7,22295905,-6818
32-8,22299811,2244
32-9,22303717,11429
32-10,22307623,1972
32-11,22311529,-10788
32-12,22315435,-9777
32-13,22319341,-6142
32-14,22323247,-2859
32-15,22327153,4799
32-16,22331059,19279
32-17,22334965,20404
32-18,22338871,-1014
32-19,22342777,-12248
32-20,22346683,-8211
32-21,22350589,-4923
32-22,22354495,-280
32-23,22358401,11119
32-24,22362307,25031
32-25,22366213,16475
32-26,22370119,-7075
32-27,22374025,-12114
32-28,22377931,-8256
32-29,22381837,-9303
32-30,22385743,-9907
32-31,22389649,-5114
32-32,22393555,2251
32-1,22397461,-1838
32-2,22401367,-10002
32-3,22405273,-9862
32-4,22409179,-8619
32-5,22413085,-8540
32-6,22416991,-6592
32-7,22420897,893
32-8,22424803,4935
32-9,22428709,-3838
32-10,22432615,-9952
32-11,22436521,-7736
32-12,22440427,-4395
32-13,22444333,-170
32-14,22448239,9717
32-15,22452145,23711
32-16,22456051,17027
32-17,22459957,-5393
32-18,22463863,-10853
32-19,22467769,-6067
32-20,22471675,-2935
32-21,22475581,3412
32-22,22479487,17253
32-23,22483393,27330
32-24,22487299,10546
32-25,22491205,-10318
32-26,22495111,-9026
32-27,22499017,-4280
32-28,22502923,-4188
32-29,22506829,-4395
32-30,22510735,71
32-31,22514641,5100
32-32,22518547,-2718
32-1,22522453,-10424
32-2,22526359,-8941
32-3,22530265,-8054
32-4,22534171,-8139
32-5,22538077,-4950
32-6,22541983,2719
32-7,22545889,2806
32-8,22549795,-6700
32-9,22553701,-9643
32-10,22557607,-6752
32-11,22561513,-3448
32-12,22565419,1505
32-13,22569325,13595
32-14,22573231,24407
32-15,22577137,10512
32-16,22581043,-8859
32-17,22584949,-9225
32-18,22588855,-5058
32-19,22592761,-1869
32-20,22596667,6022
32-21,22600573,21202
32-22,22604479,24767
32-23,22608385,3247
32-24,22612291,-11365
32-25,22616197,-7847
32-26,22620103,-1634
32-27,22624009,4673
32-28,22627915,7982
32-29,22631821,8598
32-30,22635727,2370
32-31,22639633,-7989
32-32,22643539,-9839
32-1,22647445,-8628
32-2,22651351,-8675
32-3,22655257,-7950
32-4,22659163,-3695
32-5,22663069,3280
32-6,22666975,-282
32-7,22670881,-8646
32-8,22674787,-8801
32-9,22678693,-5033
32-10,22682599,381
32-11,22686505,9048
32-12,22690411,24649
32-13,22694317,28984
32-14,22698223,5759
32-15,22702129,-11436
32-16,22706035,-8414
32-17,22709941,-4962
32-18,22713847,-1739
32-19,22717753,7945
32-20,22721659,22517
32-21,22725565,18938
32-22,22729471,-4245
32-23,22733377,-11856
32-24,22737283,-6507
32-25,22741189,-2458
32-26,22745095,9159
32-27,22749001,21127
32-28,22752907,19102
32-29,22756813,3561
32-30,22760719,-9613
32-31,22764625,-11022
32-32,22768531,-9676
32-1,22772437,-9774
32-2,22776343,-8714
32-3,22780249,-3159
32-4,22784155,1449
32-5,22788061,-4598
32-6,22791967,-10624
32-7,22795873,-9142
32-8,22799779,-5082
32-9,22803685,789
32-10,22807591,11212
32-11,22811497,26892
32-12,22815403,23159
32-13,22819309,-2724
32-14,22823215,-12984
32-15,22827121,-8176
32-16,22831027,-5626
32-17,22834933,-1349
32-18,22838839,10368
32-19,22842745,22754
32-20,22846651,11796
32-21,22850557,-9360
32-22,22854463,-11606
32-23,22858369,-6054
32-24,22862275,-564
32-25,22866181,9927
32-26,22870087,26398
32-27,22873993,29480
32-28,22877899,4424
32-29,22881805,-13606
32-30,22885711,-10947
32-31,22889617,-9894
32-32,22893523,-10339
32-1,22897429,-6811
32-2,22901335,1966
32-3,22905241,4197
32-4,22909147,-6926
32-5,22913053,-12320
32-6,22916959,-9912
32-7,22920865,-7962
32-8,22924771,-5209
32-9,22928677,4441
32-10,22932583,18106
32-11,22936489,10571
32-12,22940395,-9345
32-13,22944301,-12255
32-14,22948207,-7581
32-15,22952113,-4516
32-16,22956019,1859
32-17,22959925,15611
32-18,22963831,23122
32-19,22967737,4983
32-20,22971643,-12583
32-21,22975549,-11027
32-22,22979455,-7629
32-23,22983361,-5114
32-24,22987267,2767
32-25,22991173,17608
32-26,22995079,18261
32-27,22998985,-3222
32-28,23002891,-13523
32-29,23006797,-10006
32-30,23010703,-9645
32-31,23014609,-9149
32-32,23018515,-2133
32-1,23022421,9895
32-2,23026327,6449
32-3,23030233,-9074
32-4,23034139,-11878
32-5,23038045,-9269
32-6,23041951,-9807
32-7,23045857,-8810
32-8,23049763,-3161
32-9,23053669,3024
32-10,23057575,-2434
32-11,23061481,-10351
32-12,23065387,-9533
32-13,23069293,-5751
32-14,23073199,-1086
32-15,23077105,7161
32-16,23081011,21921
32-17,23084917,22418
32-18,23088823,-319
32-19,23092729,-12317
32-20,23096635,-8512
32-21,23100541,-6028
32-22,23104447,-2737
32-23,23108353,7612
32-24,23112259,21457
32-25,23116165,14422
32-26,23120071,-7339
32-27,23123977,-11979
32-28,23127883,-8285
32-29,23131789,-9225
32-30,23135695,-9761
32-31,23139601,-5126
32-32,23143507,1962
32-1,23147413,-1949
32-2,23151319,-9738
32-3,23155225,-9521
32-4,23159131,-8403
32-5,23163037,-8537
32-6,23166943,-7044
32-7,23170849,-928
32-8,23174755,2625
32-9,23178661,-4377
32-10,23182567,-9348
32-11,23186473,-7247
32-12,23190379,-3393
32-13,23194285,1491
32-14,23198191,11515
32-15,23202097,25326
32-16,23206003,18222
32-17,23209909,-4702
32-18,23213815,-10539
32-19,23217721,-6193
32-20,23221627,-4209
32-21,23225533,524
32-22,23229439,13216
32-23,23233345,23852
32-24,23237251,9617
32-25,23241157,-9665
32-26,23245063,-8997
32-27,23248969,-5481
32-28,23252875,-6200
32-29,23256781,-6375
32-30,23260687,-3902
32-31,23264593,-670
32-32,23268499,-4684
32-1,23272405,-8966
32-2,23276311,-8126
32-3,23280217,-7348
32-4,23284123,-7137
32-5,23288029,-4235
32-6,23291935,3379
32-7,23295841,3649
32-8,23299747,-5645
32-9,23303653,-8703
32-10,23307559,-5898
32-11,23311465,-2670
32-12,23315371,2005
32-13,23319277,13799
32-14,23323183,24701
32-15,23327089,11223
32-16,23330995,-8105
32-17,23334901,-8567
32-18,23338807,-4291
32-19,23342713,-1070
32-20,23346619,6607
32-21,23350525,21521
32-22,23354431,25443
32-23,23358337,4051
32-24,23362243,-10982
32-25,23366149,-7690
32-26,23370055,-3585
32-27,23373961,-130
32-28,23377867,1958
32-29,23381773,2022
32-30,23385679,-1566
32-31,23389585,-7411
32-32,23393491,-8356
32-1,23397397,-7676
32-2,23401303,-7338
32-3,23405209,-6648
32-4,23409115,-2475
32-5,23413021,4709
32-6,23416927,1254
32-7,23420833,-7466
32-8,23424739,-8043
32-9,23428645,-4949
32-10,23432551,-1500
32-11,23436457,4663
32-12,23440363,18578
32-13,23444269,23990
32-14,23448175,4751
32-15,23452081,-9901
32-16,23455987,-7095
32-17,23459893,-3490
32-18,23463799,508
32-19,23467705,10570
32-20,23471611,25457
32-21,23475517,21605
32-22,23479423,-2578
32-23,23483329,-10585
32-24,23487235,-4998
32-25,23491141,-1001
32-26,23495047,10563
32-27,23498953,22196
32-28,23502859,19625
32-29,23506765,4351
32-30,23510671,-8312
32-31,23514577,-9751
32-32,23518483,-8520
32-1,23522389,-8617
32-2,23526295,-7610
32-3,23530201,-1869
32-4,23534107,3041
32-5,23538013,-3239
32-6,23541919,-9799
32-7,23545825,-8594
32-8,23549731,-5644
32-9,23553637,-2259
32-10,23557543,5542
32-11,23561449,19856
32-12,23565355,18349
32-13,23569261,-2936
32-14,23573167,-11376
32-15,23577073,-7067
32-16,23580979,-4142
32-17,23584885,756
32-18,23588791,12896
32-19,23592697,25582
32-20,23596603,14018
32-21,23600509,-8086
32-22,23604415,-10540
32-23,23608321,-4892
32-24,23612227,753
32-25,23616133,11542
32-26,23620039,27706
32-27,23623945,30585
32-28,23627851,5820
32-29,23631757,-12462
32-30,23635663,-10128
32-31,23639569,-8740
32-32,23643475,-8868
32-1,23647381,-4780
32-2,23651287,5390
32-3,23655193,7608
32-4,23659099,-5515
32-5,23663005,-11805
32-6,23666911,-9204
32-7,23670817,-7717
32-8,23674723,-5612
32-9,23678629,3362
32-10,23682535,16850
32-11,23686441,10228
32-12,23690347,-8666
32-13,23694253,-11190
32-14,23698159,-5866
32-15,23702065,-535
32-16,23705971,8634
32-17,23709877,23846
32-18,23713783,30354
32-19,23717689,8303
32-20,23721595,-12470
32-21,23725501,-10881
32-22,23729407,-6911
32-23,23733313,-4038
32-24,23737219,4637
32-25,23741125,19631
32-26,23745031,19633
32-27,23748937,-2775
32-28,23752843,-13624
32-29,23756749,-10214
32-30,23760655,-10083
32-31,23764561,-9881
32-32,23768467,-3633
32-1,23772373,7511
32-2,23776279,4792
32-3,23780185,-9306
32-4,23784091,-12015
32-5,23787997,-9655
32-6,23791903,-9931
32-7,23795809,-8827
32-8,23799715,-2822
32-9,23803621,3817
32-10,23807527,-2031
32-11,23811433,-10536
32-12,23815339,-9914
32-13,23819245,-6732
32-14,23823151,-3240
32-15,23827057,3892
32-16,23830963,18149
32-17,23834869,19616
32-18,23838775,-1259
32-19,23842681,-12485
32-20,23846587,-8868
32-21,23850493,-6413
32-22,23854399,-3269
32-23,23858305,6719
32-24,23862211,20497
32-25,23866117,13911
32-26,23870023,-7305
32-27,23873929,-11846
32-28,23877835,-8064
32-29,23881741,-8799
32-30,23885647,-9501
32-31,23889553,-4198
32-32,23893459,4177
32-1,23897365,-436
32-2,23901271,-9698
32-3,23905177,-9471
32-4,23909083,-8307
32-5,23912989,-8812
32-6,23916895,-7483
32-7,23920801,-2027
32-8,23924707,1196
32-9,23928613,-4923
32-10,23932519,-9297
32-11,23936425,-7429
32-12,23940331,-3720
32-13,23944237,1102
32-14,23948143,10970
32-15,23952049,24697
32-16,23955955,17757
32-17,23959861,-4855
32-18,23963767,-10611
32-19,23967673,-6320
32-20,23971579,-4424
32-21,23975485,43
32-22,23979391,12338
32-23,23983297,22890
32-24,23987203,9132
32-25,23991109,-9761
32-26,23995015,-9161
32-27,23998921,-5778
32-28,24002827,-6541
32-29,24006733,-6656
32-30,24010639,-4271
32-31,24014545,-1165
32-32,24018451,-4846
32-1,24022357,-8841
32-2,24026263,-8076
32-3,24030169,-7461
32-4,24034075,-7382
32-5,24037981,-5008
32-6,24041887,1444
32-7,24045793,1839
32-8,24049699,-5853
32-9,24053605,-8302
32-10,24057511,-5557
32-11,24061417,-1942
32-12,24065323,2971
32-13,24069229,14536
32-14,24073135,24973
32-15,24077041,11410
32-16,24080947,-7813
32-17,24084853,-8521
32-18,24088759,-4830
32-19,24092665,-2785
32-20,24096571,3460
32-21,24100477,17655
32-22,24104383,22657
32-23,24108289,3653
32-24,24112195,-10202
32-25,24116101,-7208
32-26,24120007,-3303
32-27,24123913,93
32-28,24127819,1932
32-29,24131725,1728
32-30,24135631,-1665
32-31,24139537,-7015
32-32,24143443,-7863
32-1,24147349,-7263
32-2,24151255,-6986
32-3,24155161,-6351
32-4,24159067,-2372
32-5,24162973,4439
32-6,24166879,1153
32-7,24170785,-7145
32-8,24174691,-7738
32-9,24178597,-4806
32-10,24182503,-1638
32-11,24186409,3969
32-12,24190315,17358
32-13,24194221,23049
32-14,24198127,4816
32-15,24202033,-9386
32-16,24205939,-6722
32-17,24209845,-3286
32-18,24213751,246
32-19,24217657,9688
32-20,24221563,24347
32-21,24225469,21218
32-22,24229375,-2096
32-23,24233281,-10255
32-24,24237187,-5304
32-25,24241093,-3516
32-26,24244999,4714
32-27,24248905,15089
32-28,24252811,13570
32-29,24256717,1548
32-30,24260623,-7584
32-31,24264529,-8503
32-32,24268435,-7709
32-1,24272341,-7492
32-2,24276247,-6600
32-3,24280153,-1081
32-4,24284059,3912
32-5,24287965,-2231
32-6,24291871,-8846
32-7,24295777,-7725
32-8,24299683,-4653
32-9,24303589,-1088
32-10,24307495,6679
32-11,24311401,20983
32-12,24315307,19817
32-13,24319213,-1608
32-14,24323119,-10492
32-15,24327025,-6161
32-16,24330931,-3101
32-17,24334837,1865
32-18,24338743,13908
32-19,24342649,26575
32-20,24346555,15106
32-21,24350461,-7403
32-22,24354367,-10287
32-23,24358273,-5351
32-24,24362179,-2386
32-25,24366085,4910
32-26,24369991,20127
32-27,24373897,25553
32-28,24377803,4687
32-29,24381709,-11356
32-30,24385615,-8989
32-31,24389521,-7712
32-32,24393427,-7588
32-1,24397333,-3283
32-2,24401239,7581
32-3,24405145,9998
32-4,24409051,-4120
32-5,24412957,-11027
32-6,24416863,-8460
32-7,24420769,-7569
32-8,24424675,-6400
32-9,24428581,43
32-10,24432487,10789
32-11,24436393,6758
32-12,24440299,-7587
32-13,24444205,-9807
32-14,24448111,-5878
32-15,24452017,-2306
32-16,24455923,4218
32-17,24459829,18043
32-18,24463735,25773
32-19,24467641,7319
32-20,24471547,-10719
32-21,24475453,-9048
32-22,24479359,-4988
32-23,24483265,-1170
32-24,24487171,8257
32-25,24491077,23706
32-26,24494983,23157
32-27,24498889,-787
32-28,24502795,-12361
32-29,24506701,-8726
32-30,24510607,-8551
32-31,24514513,-8359
32-32,24518419,-1769
32-1,24522325,9902
32-2,24526231,6984
32-3,24530137,-7941
32-4,24534043,-10847
32-5,24537949,-8350
32-6,24541855,-8706
32-7,24545761,-7654
32-8,24549667,-1443
32-9,24553573,5432
32-10,24557479,-839
32-11,24561385,-9646
32-12,24565291,-8587
32-13,24569197,-4243
32-14,24573103,1922
32-15,24577009,12020
32-16,24580915,27680
32-17,24584821,27234
32-18,24588727,1409
32-19,24592633,-12538
32-20,24596539,-8262
32-21,24600445,-5089
32-22,24604351,-1008
32-23,24608257,10215
32-24,24612163,24213
32-25,24616069,16223
32-26,24619975,-6979
32-27,24623881,-12051
32-28,24627787,-8185
32-29,24631693,-9205
32-30,24635599,-9822
32-31,24639505,-4909
32-32,24643411,2699
32-1,24647317,-1429
32-2,24651223,-9872
32-3,24655129,-9854
32-4,24659035,-8640
32-5,24662941,-8613
32-6,24666847,-6751
32-7,24670753,545
32-8,24674659,4541
32-9,24678565,-4028
32-10,24682471,-9887
32-11,24686377,-7417
32-12,24690283,-2813
32-13,24694189,4010
32-14,24698095,16102
32-15,24702001,30705
32-16,24705907,21814
32-17,24709813,-4656
32-18,24713719,-11730
32-19,24717625,-6618
32-20,24721531,-4178
32-21,24725437,1193
32-22,24729343,14186
32-23,24733249,24360
32-24,24737155,9295
32-25,24741061,-10598
32-26,24744967,-9737
32-27,24748873,-5201
32-28,24752779,-5017
32-29,24756685,-5309
32-30,24760591,-836
32-31,24764497,4604
32-32,24768403,-2916
32-1,24772309,-10718
32-2,24776215,-9140
32-3,24780121,-8504
32-4,24784027,-9003
32-5,24787933,-6773
32-6,24791839,-1390
32-7,24795745,-940
32-8,24799651,-7289
32-9,24803557,-9363
32-10,24807463,-6907
32-11,24811369,-3084
32-12,24815275,2111
32-13,24819181,13987
32-14,24823087,24730
32-15,24826993,10835
32-16,24830899,-8916
32-17,24834805,-9681
32-18,24838711,-5998
32-19,24842617,-4195
32-20,24846523,1709
32-21,24850429,15565
32-22,24854335,20698
32-23,24858241,2276
32-24,24862147,-11256
32-25,24866053,-8108
32-26,24869959,-3111
32-27,24873865,1687
32-28,24877771,3754
32-29,24881677,3120
32-30,24885583,-1181
32-31,24889489,-7830
32-32,24893395,-9028
32-1,24897301,-8231
32-2,24901207,-8154
32-3,24905113,-7668
32-4,24909019,-4147
32-5,24912925,2072
32-6,24916831,-620
32-7,24920737,-7915
32-8,24924643,-8345
32-9,24928549,-5185
32-10,24932455,-1173
32-11,24936361,5242
32-12,24940267,19033
32-13,24944173,24240
32-14,24948079,4666
32-15,24951985,-10453
32-16,24955891,-7920
32-17,24959797,-5013
32-18,24963703,-2575
32-19,24967609,5857
32-20,24971515,20243
32-21,24975421,18466
32-22,24979327,-3046
32-23,24983233,-10836
32-24,24987139,-6226
32-25,24991045,-4668
32-26,24994951,2961
32-27,24998857,12751
32-28,25002763,11490
32-29,25006669,414
32-30,25010575,-8063
32-31,25014481,-9068
32-32,25018387,-8239
32-1,25022293,-7654
32-2,25026199,-6418
32-3,25030105,227
32-4,25034011,6014
32-5,25037917,-1423
32-6,25041823,-9282
32-7,25045729,-8131
32-8,25049635,-5478
32-9,25053541,-2783
32-10,25057447,4275
32-11,25061353,18185
32-12,25065259,17816
32-13,25069165,-2214
32-14,25073071,-10669
32-15,25076977,-6528
32-16,25080883,-3584
32-17,25084789,1042
32-18,25088695,12731
32-19,25092601,25492
32-20,25096507,14542
32-21,25100413,-7559
32-22,25104319,-10430
32-23,25108225,-5496
32-24,25112131,-2470
32-25,25116037,4811
32-26,25119943,19946
32-27,25123849,25334
32-28,25127755,4532
32-29,25131661,-11458
32-30,25135567,-9070
32-31,25139473,-7813
32-32,25143379,-7682
32-1,25147285,-3424
32-2,25151191,7341
32-3,25155097,9906
32-4,25159003,-4065
32-5,25162909,-11074
32-6,25166815,-8450
32-7,25170721,-7182
32-8,25174627,-5571
32-9,25178533,1732
32-10,25182439,13416
32-11,25186345,8568
32-12,25190251,-7581
32-13,25194157,-10297
32-14,25198063,-6538
32-15,25201969,-3932
32-16,25205875,1573
32-17,25209781,14963
32-18,25213687,23643
32-19,25217593,6785
32-20,25221499,-10738
32-21,25225405,-9228
32-22,25229311,-5131
32-23,25233217,-1265
32-24,25237123,7887
32-25,25241029,23227
32-26,25244935,23352
32-27,25248841,-152
32-28,25252747,-12183
32-29,25256653,-8684
32-30,25260559,-7774
32-31,25264465,-6626
32-32,25268371,2606
32-1,25272277,17796
32-2,25276183,12928
32-3,25280089,-7468
32-4,25283995,-11605
32-5,25287901,-8331
32-6,25291807,-9081
32-7,25295713,-8045
32-8,25299619,-2068
32-9,25303525,4642
32-10,25307431,-1024
32-11,25311337,-9826
32-12,25315243,-9346
32-13,25319149,-6104
32-14,25323055,-2476
32-15,25326961,4744
32-16,25330867,19237
32-17,25334773,21145
32-18,25338679,-54
32-19,25342585,-11829
32-20,25346491,-7957
32-21,25350397,-4669
32-22,25354303,-241
32-23,25358209,10922
32-24,25362115,24980
32-25,25366021,16955
32-26,25369927,-6518
32-27,25373833,-11697
32-28,25377739,-7862
32-29,25381645,-9027
32-30,25385551,-9648
32-31,25389457,-4763
32-32,25393363,2811
32-1,25397269,-1211
32-2,25401175,-9618
32-3,25405081,-9575
32-4,25408987,-8311
32-5,25412893,-8295
32-6,25416799,-6518
32-7,25420705,675
32-8,25424611,4744
32-9,25428517,-3724
32-10,25432423,-9804
32-11,25436329,-7739
32-12,25440235,-4467
32-13,25444141,-348
32-14,25448047,9232
32-15,25451953,23260
32-16,25455859,17261
32-17,25459765,-4886
32-18,25463671,-10631
32-19,25467577,-6036
32-20,25471483,-3153
32-21,25475389,2779
32-22,25479295,16143
32-23,25483201,26603
32-24,25487107,10996
32-25,25491013,-9746
32-26,25494919,-9106
32-27,25498825,-4379
32-28,25502731,-4081
32-29,25506637,-4391
32-30,25510543,302
32-31,25514449,5955
32-32,25518355,-2030
32-1,25522261,-10328
32-2,25526167,-8833
32-3,25530073,-7926
32-4,25533979,-8107
32-5,25537885,-5021
32-6,25541791,2561
32-7,25545697,2946
32-8,25549603,-6326
32-9,25553509,-9213
32-10,25557415,-5915
32-11,25561321,-985
32-12,25565227,6455
32-13,25569133,20333
32-14,25573039,31380
32-15,25576945,14618
32-16,25580851,-8794
32-17,25584757,-10047
32-18,25588663,-5519
32-19,25592569,-3038
32-20,25596475,4101
32-21,25600381,18758
32-22,25604287,23098
32-23,25608193,2887
32-24,25612099,-11696
32-25,25616005,-8490
32-26,25619911,-2543
32-27,25623817,3305
32-28,25627723,6269
32-29,25631629,6846
32-30,25635535,1365
32-31,25639441,-8243
32-32,25643347,-10126
32-1,25647253,-8980
32-2,25651159,-9035
32-3,25655065,-8421
32-4,25658971,-4519
32-5,25662877,2160
32-6,25666783,-833
32-7,25670689,-8811
32-8,25674595,-9381
32-9,25678501,-6590
32-10,25682407,-3541
32-11,25686313,1904
32-12,25690219,15194
32-13,25694125,21172
32-14,25698031,3330
32-15,25701937,-10880
32-16,25705843,-8341
32-17,25709749,-4964
32-18,25713655,-1556
32-19,25717561,7680
32-20,25721467,22235
32-21,25725373,19557
32-22,25729279,-3247
32-23,25733185,-11590
32-24,25737091,-7140
32-25,25740997,-6162
32-26,25744903,590
32-27,25748809,9847
32-28,25752715,9084
32-29,25756621,-822
32-30,25760527,-8592
32-31,25764433,-9503
32-32,25768339,-8744
32-1,25772245,-8184
32-2,25776151,-7013
32-3,25780057,-669
32-4,25783963,4982
32-5,25787869,-2107
32-6,25791775,-9720
32-7,25795681,-8500
32-8,25799587,-5351
32-9,25803493,-1856
32-10,25807399,5964
32-11,25811305,20322
32-12,25815211,19296
32-13,25819117,-2126
32-14,25823023,-11224
32-15,25826929,-7234
32-16,25830835,-5042
32-17,25834741,-1467
32-18,25838647,9419
32-19,25842553,22398
32-20,25846459,13002
32-21,25850365,-7748
32-22,25854271,-10025
32-23,25858177,-3504
32-24,25862083,3680
32-25,25865989,15222
32-26,25869895,30000
32-27,25873801,31187
32-28,25877707,6373
32-29,25881613,-11844
32-30,25885519,-9780
32-31,25889425,-8593
32-32,25893331,-9047
32-1,25897237,-5608
32-2,25901143,3511
32-3,25905049,6163
32-4,25908955,-5416
32-5,25912861,-11502
32-6,25916767,-9322
32-7,25920673,-8127
32-8,25924579,-6679
32-9,25928485,-18
32-10,25932391,11009
32-11,25936297,6759
32-12,25940203,-8230
32-13,25944109,-10867
32-14,25948015,-7319
32-15,25951921,-4794
32-16,25955827,313
32-17,25959733,13222
32-18,25963639,21896
32-19,25967545,5746
32-20,25971451,-11286
32-21,25975357,-9874
32-22,25979263,-5917
32-23,25983169,-2410
32-24,25987075,6284
32-25,25990981,21540
32-26,25994887,21985
32-27,25998793,-1011
32-28,26002699,-12557
32-29,26006605,-8942
32-30,26010511,-8674
32-31,26014417,-8447
32-32,26018323,-1871
32-1,26022229,9710
32-2,26026135,6889
32-3,26030041,-8027
32-4,26033947,-11063
32-5,26037853,-8620
32-6,26041759,-8994
32-7,26045665,-7936
32-8,26049571,-2106
32-9,26053477,4609
32-10,26057383,-966
32-11,26061289,-9628
32-12,26065195,-9159
32-13,26069101,-5914
32-14,26073007,-2296
32-15,26076913,4879
32-16,26080819,19376
32-17,26084725,21481
32-18,26088631,380
32-19,26092537,-11569
32-20,26096443,-7733
32-21,26100349,-4409
32-22,26104255,-8
32-23,26108161,11113
32-24,26112067,25163
32-25,26115973,17250
32-26,26119879,-6422
32-27,26123785,-11938
32-28,26127691,-7952
32-29,26131597,-8872
32-30,26135503,-9586
32-31,26139409,-4735
32-32,26143315,3187
32-1,26147221,-693
32-2,26151127,-9419
32-3,26155033,-9462
32-4,26158939,-8047
32-5,26162845,-7950
32-6,26166751,-6138
32-7,26170657,1133
32-8,26174563,5382
32-9,26178469,-3253
32-10,26182375,-9652
32-11,26186281,-7568
32-12,26190187,-4250
32-13,26194093,-73
32-14,26197999,9439
32-15,26201905,23446
32-16,26205811,17698
32-17,26209717,-4638
32-18,26213623,-10702
