32-1,4508983,5
32-2,4512889,487
32-3,4516795,883
32-4,4520701,941
32-5,4524607,700
32-6,4528513,332
32-7,4532419,58
32-8,4536325,81
32-9,4540231,278
32-10,4544137,436
32-11,4548043,366
32-12,4551949,70
32-13,4555855,-166
32-14,4559761,-203
32-15,4563667,9
32-16,4567573,322
32-17,4571479,461
32-18,4575385,465
32-19,4579291,487
32-20,4583197,546
32-21,4587103,593
32-22,4591009,490
32-23,4594915,192
32-24,4598821,-158
32-25,4602727,-464
32-26,4606633,-554
32-27,4610539,-410
32-28,4614445,-224
32-29,4618351,-21
32-30,4622257,85
32-31,4626163,55
32-32,4630069,66
32-1,4633462,204
32-2,4637368,406
32-3,4641274,436
32-4,4645180,178
32-5,4649086,-191
32-6,4652992,-418
32-7,4656898,-381
32-8,4660804,-142
32-9,4664710,73
32-10,4668616,110
32-11,4672522,-26
32-12,4676428,-240
32-13,4680334,-406
32-14,4684240,-461
32-15,4688146,-356
32-16,4692052,-200
32-17,4695958,-110
32-18,4699864,-99
32-19,4703770,-225
32-20,4707676,-498
32-21,4711582,-893
32-22,4715488,-1286
32-23,4719394,-1490
32-24,4723300,-1471
32-25,4727206,-1156
32-26,4731112,-632
32-27,4735018,-177
32-28,4738924,99
32-29,4742830,169
32-30,4746736,199
32-31,4750642,384
32-32,4754548,653
32-1,4758582,730
32-2,4762488,420
32-3,4766394,-156
32-4,4770300,-558
32-5,4774206,-576
32-6,4778112,-371
32-7,4782018,-126
32-8,4785924,-39
32-9,4789830,-106
32-10,4793736,-230
32-11,4797642,-281
32-12,4801548,-249
32-13,4805454,-210
32-14,4809360,-132
32-15,4813266,14
32-16,4817172,224
32-17,4821078,391
32-18,4824984,421
32-19,4828890,258
32-20,4832796,0
32-21,4836702,-137
32-22,4840608,-102
32-23,4844514,93
32-24,4848420,290
32-25,4852326,385
32-26,4856232,470
32-27,4860138,545
32-28,4864044,571
32-29,4867950,560
32-30,4871856,448
32-31,4875762,321
32-32,4879668,293
32-1,4883579,297
32-2,4887485,265
32-3,4891391,179
32-4,4895297,148
32-5,4899203,291
32-6,4903109,454
32-7,4907015,264
32-8,4910921,87
32-9,4914827,275
32-10,4918733,345
32-11,4922639,-266
32-12,4926545,-1779
32-13,4930451,-3409
32-14,4934357,-3835
32-15,4938263,-2720
32-16,4942169,-1084
32-17,4946075,-13
32-18,4949981,90
32-19,4953887,-8
32-20,4957793,375
32-21,4961699,961
32-22,4965605,1414
32-23,4969511,1380
32-24,4973417,1226
32-25,4977323,1229
32-26,4981229,761
32-27,4985135,-716
32-28,4989041,-3010
32-29,4992947,-4828
32-30,4996853,-5066
32-31,5000759,-3918
32-32,5004665,-1968
32-1,5008577,-313
32-2,5012483,-214
32-3,5016389,-1690
32-4,5020295,-3996
32-5,5024201,-5855
32-6,5028107,-5771
32-7,5032013,-3511
32-8,5035919,-754
32-9,5039825,486
32-10,5043731,-381
32-11,5047637,-2082
32-12,5051543,-3041
32-13,5055449,-2906
32-14,5059355,-1834
32-15,5063261,-184
32-16,5067167,981
32-17,5071073,924
32-18,5074979,-101
32-19,5078885,-1504
32-20,5082791,-2304
32-21,5086697,-1965
32-22,5090603,-771
32-23,5094509,632
32-24,5098415,1235
32-25,5102321,749
32-26,5106227,-368
32-27,5110133,-1657
32-28,5114039,-2241
32-29,5117945,-1873
32-30,5121851,-1022
32-31,5125757,230
32-32,5129663,1114
32-1,5133453,875
32-2,5137359,-713
32-3,5141265,-3070
32-4,5145171,-4485
32-5,5149077,-3772
32-6,5152983,-1371
32-7,5156889,845
32-8,5160795,1327
32-9,5164701,113
32-10,5168607,-1338
32-11,5172513,-1913
32-12,5176419,-1593
32-13,5180325,-584
32-14,5184231,689
32-15,5188137,1275
32-16,5192043,751
32-17,5195949,-472
32-18,5199855,-1752
32-19,5203761,-2192
32-20,5207667,-1465
32-21,5211573,43
32-22,5215479,1444
32-23,5219385,1690
32-24,5223291,732
32-25,5227197,-631
32-26,5231103,-1583
32-27,5235009,-1457
32-28,5238915,-647
32-29,5242821,276
32-30,5246727,1239
32-31,5250633,1658
32-32,5254539,1120
33-1,5255643,-580
33-2,5259549,-2771
33-3,5263455,-3907
33-4,5267361,-2943
33-5,5271267,-518
33-6,5275173,1486
33-7,5279079,1735
33-8,5282985,524
33-9,5286891,-642
33-10,5290797,-895
33-11,5294703,-179
33-12,5298609,1280
33-13,5302515,2645
33-14,5306421,2846
33-15,5310327,1838
33-16,5314233,223
33-17,5318139,-1064
33-18,5322045,-1195
33-19,5325951,-261
33-20,5329857,1211
33-21,5333763,2302
33-22,5337669,2197
33-23,5341575,1073
33-24,5345481,-455
33-25,5349387,-1464
33-26,5353293,-1062
33-27,5357199,231
33-28,5361105,1807
33-29,5365011,2966
33-30,5368917,2827
33-31,5372823,1468
33-32,5376729,-780
33-33,5380635,-2897
32-1,5387324,-3486
32-2,5391230,-2051
32-3,5395136,269
32-4,5399042,1685
32-5,5402948,1266
32-6,5406854,-210
32-7,5410760,-1136
32-8,5414666,-974
32-9,5418572,122
32-10,5422478,1619
32-11,5426384,2507
32-12,5430290,2142
32-13,5434196,893
32-14,5438102,-532
32-15,5442008,-1241
32-16,5445914,-792
32-17,5449820,410
32-18,5453726,1774
32-19,5457632,2333
32-20,5461538,1689
32-21,5465444,397
32-22,5469350,-927
32-23,5473256,-1479
32-24,5477162,-929
32-25,5481068,156
32-26,5484974,1718
32-27,5488880,3262
32-28,5492786,3536
32-29,5496692,1547
32-30,5500598,-2919
32-31,5504504,-7983
32-32,5508410,-10876
32-1,5512321,-10502
32-2,5516227,-8367
32-3,5520133,-6900
32-4,5524039,-7167
32-5,5527945,-8144
32-6,5531851,-8339
32-7,5535757,-7536
32-8,5539663,-6086
32-9,5543569,-4374
32-10,5547475,-3264
32-11,5551381,-3320
32-12,5555287,-4382
32-13,5559193,-5902
32-14,5563099,-6776
32-15,5567005,-6164
32-16,5570911,-4221
32-17,5574817,-2036
32-18,5578723,-973
32-19,5582629,-1432
32-20,5586535,-2596
32-21,5590441,-3445
32-22,5594347,-3172
32-23,5598253,-1909
32-24,5602159,-193
32-25,5606065,1409
32-26,5609971,1919
32-27,5613877,1080
32-28,5617783,-815
32-29,5621689,-2822
32-30,5625595,-3499
32-31,5629501,-2628
32-32,5633407,-730
32-1,5637319,1439
32-2,5641225,2484
32-3,5645131,1837
32-4,5649037,-147
32-5,5652943,-2563
32-6,5656849,-3693
32-7,5660755,-2540
32-8,5664661,-112
32-9,5668567,1758
32-10,5672473,1963
32-11,5676379,966
32-12,5680285,336
32-13,5684191,725
32-14,5688097,1820
32-15,5692003,3270
32-16,5695909,4215
32-17,5699815,3967
32-18,5703721,2807
32-19,5707627,1143
32-20,5711533,-140
32-21,5715439,-241
32-22,5719345,851
32-23,5723251,2702
32-24,5727157,4075
32-25,5731063,3900
32-26,5734969,2490
32-27,5738875,752
32-28,5742781,-166
32-29,5746687,374
32-30,5750593,1682
32-31,5754499,3318
32-32,5758405,4627
32-1,5762316,4707
32-2,5766222,3327
32-3,5770128,727
32-4,5774034,-1638
32-5,5777940,-1998
32-6,5781846,-123
32-7,5785752,2352
32-8,5789658,3535
32-9,5793564,2912
32-10,5797470,1635
32-11,5801376,1038
32-12,5805282,1286
32-13,5809188,2109
32-14,5813094,3396
32-15,5817000,4398
32-16,5820906,4439
32-17,5824812,3466
32-18,5828718,1760
32-19,5832624,403
32-20,5836530,248
32-21,5840436,1349
32-22,5844342,3014
32-23,5848248,3978
32-24,5852154,3590
32-25,5856060,2406
32-26,5859966,1256
32-27,5863872,1073
32-28,5867778,1949
32-29,5871684,3040
32-30,5875590,4094
32-31,5879496,4495
32-32,5883402,3773
32-1,5887375,1884
32-2,5891281,-673
32-3,5895187,-2345
32-4,5899093,-1881
32-5,5902999,346
32-6,5906905,2425
32-7,5910811,2812
32-8,5914717,1570
32-9,5918623,308
32-10,5922529,155
32-11,5926435,947
32-12,5930341,2290
32-13,5934247,3609
32-14,5938153,3978
32-15,5942059,3152
32-16,5945965,1711
32-17,5949871,476
32-18,5953777,317
32-19,5957683,1238
32-20,5961589,2676
32-21,5965495,3795
32-22,5969401,3769
32-23,5973307,2710
32-24,5977213,1301
32-25,5981119,260
32-26,5985025,340
32-27,5988931,1237
32-28,5992837,2309
32-29,5996743,3283
32-30,6000649,3450
32-31,6004555,2574
32-32,6008461,725
32-1,6012525,-1460
32-2,6016431,-2605
32-3,6020337,-1790
32-4,6024243,345
32-5,6028149,2074
32-6,6032055,2254
32-7,6035961,1177
32-8,6039867,205
32-9,6043773,-6
32-10,6047679,442
32-11,6051585,1511
32-12,6055491,2628
32-13,6059397,2837
32-14,6063303,2091
32-15,6067209,788
32-16,6071115,-360
32-17,6075021,-446
32-18,6078927,567
32-19,6082833,2204
32-20,6086739,3448
32-21,6090645,3394
32-22,6094551,2273
32-23,6098457,727
32-24,6102363,-397
32-25,6106269,-325
32-26,6110175,553
32-27,6114081,1863
32-28,6117987,3183
32-29,6121893,3524
32-30,6125799,2445
32-31,6129705,-42
32-32,6133611,-2767
32-1,6137309,-3823
32-2,6141215,-2407
32-3,6145121,316
32-4,6149027,2225
32-5,6152933,2101
32-6,6156839,641
32-7,6160745,-490
32-8,6164651,-579
32-9,6168557,315
32-10,6172463,1812
32-11,6176369,2902
32-12,6180275,2849
32-13,6184181,1822
32-14,6188087,349
32-15,6191993,-626
32-16,6195899,-481
32-17,6199805,586
32-18,6203711,1989
32-19,6207617,2658
32-20,6211523,2052
32-21,6215429,768
32-22,6219335,-473
32-23,6223241,-834
32-24,6227147,-201
32-25,6231053,680
32-26,6234959,1727
32-27,6238865,2395
32-28,6242771,2086
32-29,6246677,737
32-30,6250583,-1488
32-31,6254489,-3238
32-32,6258395,-3362
32-1,6262307,-1759
32-2,6266213,483
32-3,6270119,1553
32-4,6274025,730
32-5,6277931,-1028
32-6,6281837,-2366
32-7,6285743,-2423
32-8,6289649,-900
32-9,6293555,1283
32-10,6297461,2584
32-11,6301367,2235
32-12,6305273,918
32-13,6309179,-166
32-14,6313085,-400
32-15,6316991,170
32-16,6320897,1217
32-17,6324803,2267
32-18,6328709,2463
32-19,6332615,1685
32-20,6336521,380
32-21,6340427,-823
32-22,6344333,-994
32-23,6348239,-50
32-24,6352145,1559
32-25,6356051,2969
32-26,6359957,3094
32-27,6363863,1929
32-28,6367769,22
32-29,6371675,-1683
32-30,6375581,-2010
32-31,6379487,-1044
32-32,6383393,649
32-1,6387305,2305
32-2,6391211,2726
32-3,6395117,1576
32-4,6399023,-770
32-5,6402929,-3141
32-6,6406835,-3939
32-7,6410741,-2497
32-8,6414647,150
32-9,6418553,2007
32-10,6422459,1897
32-11,6426365,432
32-12,6430271,-803
32-13,6434177,-894
32-14,6438083,52
32-15,6441989,1588
32-16,6445895,2828
32-17,6449801,2761
32-18,6453707,1485
32-19,6457613,-338
32-20,6461519,-1810
32-21,6465425,-2009
32-22,6469331,-787
32-23,6473237,1094
32-24,6477143,2287
32-25,6481049,1940
32-26,6484955,585
32-27,6488861,-704
32-28,6492767,-1127
32-29,6496673,-498
32-30,6500579,363
32-31,6504485,1147
32-32,6508391,1850
32-1,6512424,1986
32-2,6516330,1026
32-3,6520236,-1264
32-4,6524142,-3823
32-5,6528048,-4827
32-6,6531954,-3451
32-7,6535860,-924
32-8,6539766,819
32-9,6543672,844
32-10,6547578,-142
32-11,6551484,-675
32-12,6555390,-371
32-13,6559296,545
32-14,6563202,1825
32-15,6567108,2533
32-16,6571014,2041
32-17,6574920,624
32-18,6578826,-1108
32-19,6582732,-2164
32-20,6586638,-1930
32-21,6590544,-656
32-22,6594450,755
32-23,6598356,1327
32-24,6602262,801
32-25,6606168,-150
32-26,6610074,-836
32-27,6613980,-767
32-28,6617886,-44
32-29,6621792,714
32-30,6625698,1544
32-31,6629604,2152
32-32,6633510,1932
32-1,6637300,436
32-2,6641206,-2055
32-3,6645112,-4099
32-4,6649018,-4213
32-5,6652924,-2425
32-6,6656830,-385
32-7,6660736,427
32-8,6664642,-174
32-9,6668548,-983
32-10,6672454,-910
32-11,6676360,-154
32-12,6680266,930
32-13,6684172,2002
32-14,6688078,2144
32-15,6691984,1185
32-16,6695890,-398
32-17,6699796,-1852
32-18,6703702,-2173
32-19,6707608,-1225
32-20,6711514,464
32-21,6715420,1962
32-22,6719326,2195
32-23,6723232,1111
32-24,6727138,-440
32-25,6731044,-1680
32-26,6734950,-1746
32-27,6738856,-793
32-28,6742762,485
32-29,6746668,1810
32-30,6750574,2343
32-31,6754480,1593
32-32,6758386,-420
32-1,6762511,-2886
32-2,6766417,-4031
32-3,6770323,-2825
32-4,6774229,-292
32-5,6778135,1535
32-6,6782041,1487
32-7,6785947,178
32-8,6789853,-660
32-9,6793759,-377
32-10,6797665,456
32-11,6801571,1456
32-12,6805477,2224
32-13,6809383,2196
32-14,6813289,1307
32-15,6817195,-320
32-16,6821101,-1889
32-17,6825007,-2282
32-18,6828913,-1256
32-19,6832819,618
32-20,6836725,2014
32-21,6840631,1900
32-22,6844537,528
32-23,6848443,-1099
32-24,6852349,-2073
32-25,6856255,-1884
32-26,6860161,-710
32-27,6864067,593
32-28,6867973,1079
32-29,6871879,492
32-30,6875785,-503
32-31,6879691,-1084
32-32,6883597,-730
32-1,6887295,341
32-2,6891201,1428
32-3,6895107,2016
32-4,6899013,2416
32-5,6902919,2888
32-6,6906825,2247
32-7,6910731,-653
32-8,6914637,-5429
32-9,6918543,-9794
32-10,6922449,-11464
32-11,6926355,-10482
32-12,6930261,-8651
32-13,6934167,-7675
32-14,6938073,-7765
32-15,6941979,-7678
32-16,6945885,-6886
32-17,6949791,-5785
32-18,6953697,-4481
32-19,6957603,-3698
32-20,6961509,-3893
32-21,6965415,-4942
32-22,6969321,-6309
32-23,6973227,-6729
32-24,6977133,-5919
32-25,6981039,-4397
32-26,6984945,-2492
32-27,6988851,-1206
32-28,6992757,-1289
32-29,6996663,-2637
32-30,7000569,-4751
32-31,7004475,-6149
32-32,7008381,-5756
32-1,7012293,-3666
32-2,7016199,-1065
32-3,7020105,174
32-4,7024011,-544
32-5,7027917,-2328
32-6,7031823,-3827
32-7,7035729,-3899
32-8,7039635,-2175
32-9,7043541,473
32-10,7047447,2339
32-11,7051353,2336
32-12,7055259,884
32-13,7059165,-730
32-14,7063071,-1387
32-15,7066977,-697
32-16,7070883,841
32-17,7074789,2275
32-18,7078695,2493
32-19,7082601,1428
32-20,7086507,-107
32-21,7090413,-1270
32-22,7094319,-1223
32-23,7098225,-147
32-24,7102131,1432
32-25,7106037,2725
32-26,7109943,2753
32-27,7113849,1714
32-28,7117755,328
32-29,7121661,-631
32-30,7125567,-485
32-31,7129473,389
32-32,7133379,1638
32-1,7137443,2992
32-2,7141349,3493
32-3,7145255,2693
32-4,7149161,631
32-5,7153067,-1786
32-6,7156973,-2890
32-7,7160879,-1778
32-8,7164785,629
32-9,7168691,2433
32-10,7172597,2519
32-11,7176503,1397
32-12,7180409,598
32-13,7184315,814
32-14,7188221,1858
32-15,7192127,3347
32-16,7196033,4323
32-17,7199939,3982
32-18,7203845,2719
32-19,7207751,1209
32-20,7211657,235
32-21,7215563,306
32-22,7219469,1213
32-23,7223375,2645
32-24,7227281,3746
32-25,7231187,3745
32-26,7235093,2735
32-27,7238999,1110
32-28,7242905,-92
32-29,7246811,13
32-30,7250717,1029
32-31,7254623,2575
32-32,7258529,3839
32-1,7262288,3893
32-2,7266194,2554
32-3,7270100,92
32-4,7274006,-2054
32-5,7277912,-2298
32-6,7281818,-365
32-7,7285724,2211
32-8,7289630,3390
32-9,7293536,2556
32-10,7297442,1010
32-11,7301348,286
32-12,7305254,665
32-13,7309160,1806
32-14,7313066,3152
32-15,7316972,3837
32-16,7320878,3367
32-17,7324784,2016
32-18,7328690,407
32-19,7332596,-494
32-20,7336502,-138
32-21,7340408,1273
32-22,7344314,3015
32-23,7348220,3871
32-24,7352126,3339
32-25,7356032,1919
32-26,7359938,349
32-27,7363844,-308
32-28,7367750,103
32-29,7371656,975
32-30,7375562,2174
32-31,7379468,2960
32-32,7383374,2711
32-1,7387286,1236
32-2,7391192,-1092
32-3,7395098,-2750
32-4,7399004,-2401
32-5,7402910,-254
32-6,7406816,1958
32-7,7410722,2592
32-8,7414628,1490
32-9,7418534,84
32-10,7422440,-391
32-11,7426346,170
32-12,7430252,1489
32-13,7434158,3090
32-14,7438064,3944
32-15,7441970,3493
32-16,7445876,1955
32-17,7449782,31
32-18,7453688,-1075
32-19,7457594,-645
32-20,7461500,1054
32-21,7465406,2813
32-22,7469312,3186
32-23,7473218,2060
32-24,7477124,582
32-25,7481030,-286
32-26,7484936,49
32-27,7488842,1015
32-28,7492748,1805
32-29,7496654,2496
32-30,7500560,2862
32-31,7504466,2393
32-32,7508372,563
32-1,7512466,-2106
32-2,7516372,-3758
32-3,7520278,-2926
32-4,7524184,-356
32-5,7528090,1731
32-6,7531996,1927
32-7,7535902,599
32-8,7539808,-444
32-9,7543714,-226
32-10,7547620,738
32-11,7551526,2034
32-12,7555432,3182
32-13,7559338,3382
32-14,7563244,2567
32-15,7567150,1006
32-16,7571056,-541
32-17,7574962,-1027
32-18,7578868,-244
32-19,7582774,1384
32-20,7586680,2682
32-21,7590586,2542
32-22,7594492,1252
32-23,7598398,-236
32-24,7602304,-1006
32-25,7606210,-499
32-26,7610116,629
32-27,7614022,1846
32-28,7617928,2921
32-29,7621834,3126
32-30,7625740,2005
32-31,7629646,-537
32-32,7633552,-3378
32-1,7637281,-4525
32-2,7641187,-3118
32-3,7645093,-447
32-4,7648999,1323
32-5,7652905,1203
32-6,7656811,93
32-7,7660717,-363
32-8,7664623,158
32-9,7668529,997
32-10,7672435,1867
32-11,7676341,2261
32-12,7680247,1843
32-13,7684153,902
32-14,7688059,-372
32-15,7691965,-1304
32-16,7695871,-1170
32-17,7699777,57
32-18,7703683,1829
32-19,7707589,2872
32-20,7711495,2312
32-21,7715401,681
32-22,7719307,-1066
32-23,7723213,-1792
32-24,7727119,-1126
32-25,7731025,260
32-26,7734931,1917
32-27,7738837,2805
32-28,7742743,2260
32-29,7746649,468
32-30,7750555,-1875
32-31,7754461,-3217
32-32,7758367,-2814
32-1,7762279,-1023
32-2,7766185,967
32-3,7770091,1608
32-4,7773997,609
32-5,7777903,-1153
32-6,7781809,-2742
32-7,7785715,-3235
32-8,7789621,-2127
32-9,7793527,63
32-10,7797433,1863
32-11,7801339,2029
32-12,7805245,780
32-13,7809151,-860
32-14,7813057,-1823
32-15,7816963,-1542
32-16,7820869,-192
32-17,7824775,1398
32-18,7828681,2026
32-19,7832587,1397
32-20,7836493,115
32-21,7840399,-1020
32-22,7844305,-1237
32-23,7848211,-579
32-24,7852117,514
32-25,7856023,1462
32-26,7859929,1443
32-27,7863835,517
32-28,7867741,-819
32-29,7871647,-1819
32-30,7875553,-1619
32-31,7879459,-478
32-32,7883365,1136
32-1,7887276,2457
32-2,7891182,2440
32-3,7895088,1055
32-4,7898994,-1229
32-5,7902900,-3257
32-6,7906806,-3724
32-7,7910712,-2325
32-8,7914618,109
32-9,7918524,1772
32-10,7922430,1576
32-11,7926336,60
32-12,7930242,-1509
32-13,7934148,-2129
32-14,7938054,-1400
32-15,7941960,296
32-16,7945866,1802
32-17,7949772,1937
32-18,7953678,706
32-19,7957584,-879
32-20,7961490,-1848
32-21,7965396,-1603
32-22,7969302,-324
32-23,7973208,1296
32-24,7977114,2282
32-25,7981020,1969
32-26,7984926,687
32-27,7988832,-945
32-28,7992738,-1974
32-29,7996644,-1768
32-30,8000550,-758
32-31,8004456,724
32-32,8008362,1966
32-1,8012274,2085
32-2,8016180,796
32-3,8020086,-1638
32-4,8023992,-3831
32-5,8027898,-4095
32-6,8031804,-2071
32-7,8035710,670
32-8,8039616,2066
32-9,8043522,1275
32-10,8047428,-597
32-11,8051334,-1902
32-12,8055240,-1992
32-13,8059146,-911
32-14,8063052,826
32-15,8066958,1991
32-16,8070864,1760
32-17,8074770,542
32-18,8078676,-846
32-19,8082582,-1432
32-20,8086488,-938
32-21,8090394,205
32-22,8094300,1420
32-23,8098206,1851
32-24,8102112,1183
32-25,8106018,-62
32-26,8109924,-1315
32-27,8113830,-1805
32-28,8117736,-1291
32-29,8121642,-338
32-30,8125548,843
32-31,8129454,1552
32-32,8133360,1245
32-1,8137271,-218
32-2,8141177,-2458
32-3,8145083,-3972
32-4,8148989,-3515
32-5,8152895,-1414
32-6,8156801,594
32-7,8160707,1062
32-8,8164613,-1
32-9,8168519,-1134
32-10,8172425,-1346
32-11,8176331,-667
32-12,8180237,592
32-13,8184143,1785
32-14,8188049,2155
32-15,8191955,1555
32-16,8195861,443
32-17,8199767,-532
32-18,8203673,-713
32-19,8207579,-57
32-20,8211485,1151
32-21,8215391,2250
32-22,8219297,2367
32-23,8223203,1506
32-24,8227109,125
32-25,8231015,-1091
32-26,8234921,-1240
32-27,8238827,-498
32-28,8242733,652
32-29,8246639,1871
32-30,8250545,2244
32-31,8254451,1353
32-32,8258357,-808
32-1,8262483,-3325
32-2,8266389,-4462
32-3,8270295,-3341
32-4,8274201,-859
32-5,8278107,1006
32-6,8282013,996
32-7,8285919,-381
32-8,8289825,-1466
32-9,8293731,-1500
32-10,8297637,-711
32-11,8301543,557
32-12,8305449,1631
32-13,8309355,1796
32-14,8313261,1065
32-15,8317167,-200
32-16,8321073,-1315
32-17,8324979,-1475
32-18,8328885,-599
32-19,8332791,909
32-20,8336697,1989
32-21,8340603,1689
32-22,8344509,278
32-23,8348415,-1439
32-24,8352321,-2506
32-25,8356227,-2182
32-26,8360133,-993
32-27,8364039,458
32-28,8367945,1842
32-29,8371851,2282
32-30,8375757,1200
32-31,8379663,-1354
32-32,8383569,-4140
32-1,8387267,-5164
32-2,8391173,-3738
32-3,8395079,-1336
32-4,8398985,46
32-5,8402891,-342
32-6,8406797,-1566
32-7,8410703,-1998
32-8,8414609,-1356
32-9,8418515,-229
32-10,8422421,1192
32-11,8426327,2207
32-12,8430233,2085
32-13,8434139,860
32-14,8438045,-931
32-15,8441951,-2093
32-16,8445857,-1870
32-17,8449763,-400
32-18,8453669,1451
32-19,8457575,2389
32-20,8461481,1805
32-21,8465387,375
32-22,8469293,-936
32-23,8473199,-1232
32-24,8477105,-364
32-25,8481011,874
32-26,8484917,2198
32-27,8488823,2853
32-28,8492729,2308
32-29,8496635,517
32-30,8500541,-2164
32-31,8504447,-4068
32-32,8508353,-4017
32-1,8512264,-1974
32-2,8516170,676
32-3,8520076,1865
32-4,8523982,940
32-5,8527888,-1028
32-6,8531794,-2590
32-7,8535700,-2848
32-8,8539606,-1691
32-9,8543512,49
32-10,8547418,1124
32-11,8551324,787
32-12,8555230,-411
32-13,8559136,-1465
32-14,8563042,-1731
32-15,8566948,-1035
32-16,8570854,285
32-17,8574760,1600
32-18,8578666,1997
32-19,8582572,1313
32-20,8586478,23
32-21,8590384,-1294
32-22,8594290,-1815
32-23,8598196,-1303
32-24,8602102,95
32-25,8606008,1685
32-26,8609914,2213
32-27,8613820,1386
32-28,8617726,-329
32-29,8621632,-1879
32-30,8625538,-1996
32-31,8629444,-925
32-32,8633350,562
32-1,8637262,1760
32-2,8641168,1759
32-3,8645074,541
32-4,8648980,-1503
32-5,8652886,-3536
32-6,8656792,-4168
32-7,8660698,-2805
32-8,8664604,-554
32-9,8668510,908
32-10,8672416,720
32-11,8676322,-363
32-12,8680228,-957
32-13,8684134,-744
32-14,8688040,-20
32-15,8691946,1061
32-16,8695852,2036
32-17,8699758,2186
32-18,8703664,1315
32-19,8707570,-397
32-20,8711476,-1939
32-21,8715382,-2191
32-22,8719288,-964
32-23,8723194,1048
32-24,8727100,2444
32-25,8731006,2302
32-26,8734912,937
32-27,8738818,-777
32-28,8742724,-1793
32-29,8746630,-1514
32-30,8750536,-371
32-31,8754442,1266
32-32,8758348,2598
32-1,8762260,2628
32-2,8766166,1108
32-3,8770072,-1456
32-4,8773978,-3497
32-5,8777884,-3570
32-6,8781790,-1614
32-7,8785696,670
32-8,8789602,1406
32-9,8793508,264
32-10,8797414,-1435
32-11,8801320,-2157
32-12,8805226,-1731
32-13,8809132,-622
32-14,8813038,764
32-15,8816944,1589
32-16,8820850,1318
32-17,8824756,224
32-18,8828662,-1172
32-19,8832568,-1957
32-20,8836474,-1549
32-21,8840380,-128
32-22,8844286,1631
32-23,8848192,2455
32-24,8852098,1829
32-25,8856004,398
32-26,8859910,-1021
32-27,8863816,-1353
32-28,8867722,-552
32-29,8871628,542
32-30,8875534,1653
32-31,8879440,2120
32-32,8883346,1508
32-1,8887257,-158
32-2,8891163,-2492
32-3,8895069,-4033
32-4,8898975,-3469
32-5,8902881,-1202
32-6,8906787,900
32-7,8910693,1345
32-8,8914599,166
32-9,8918505,-1117
32-10,8922411,-1407
32-11,8926317,-862
32-12,8930223,230
32-13,8934129,1485
32-14,8938035,2024
32-15,8941941,1472
32-16,8945847,173
32-17,8949753,-1269
32-18,8953659,-1782
32-19,8957565,-964
32-20,8961471,757
32-21,8965377,2362
32-22,8969283,2627
32-23,8973189,1514
32-24,8977095,-101
32-25,8981001,-1243
32-26,8984907,-1080
32-27,8988813,-114
32-28,8992719,852
32-29,8996625,1580
32-30,9000531,1557
32-31,9004437,679
32-32,9008343,-1157
32-1,9012255,-3387
32-2,9016161,-4466
32-3,9020067,-3418
32-4,9023973,-892
32-5,9027879,1191
32-6,9031785,1379
32-7,9035691,43
32-8,9039597,-1098
32-9,9043503,-1090
32-10,9047409,-18
32-11,9051315,1628
32-12,9055221,2973
32-13,9059127,3143
32-14,9063033,2138
32-15,9066939,592
32-16,9070845,-665
32-17,9074751,-816
32-18,9078657,66
32-19,9082563,1416
32-20,9086469,2313
32-21,9090375,1945
32-22,9094281,647
32-23,9098187,-863
32-24,9102093,-1813
32-25,9105999,-1757
32-26,9109905,-848
32-27,9113811,657
32-28,9117717,1835
32-29,9121623,1756
32-30,9125529,398
32-31,9129435,-1639
32-32,9133341,-3030
32-1,9137253,-2832
32-2,9141159,-1489
32-3,9145065,344
32-4,9148971,1680
32-5,9152877,1680
32-6,9156783,337
32-7,9160689,-1983
32-8,9164595,-3902
32-9,9168501,-3893
32-10,9172407,-1885
32-11,9176313,466
32-12,9180219,1341
32-13,9184125,405
32-14,9188031,-966
32-15,9191937,-1459
32-16,9195843,-978
32-17,9199749,127
32-18,9203655,1282
32-19,9207561,1768
32-20,9211467,1251
32-21,9215373,87
32-22,9219279,-1106
32-23,9223185,-1517
32-24,9227091,-938
32-25,9230997,133
32-26,9234903,1554
32-27,9238809,2526
32-28,9242715,2263
32-29,9246621,647
32-30,9250527,-1918
32-31,9254433,-3844
32-32,9258339,-3944
32-1,9262250,-2203
32-2,9266156,109
32-3,9270062,1101
32-4,9273968,185
32-5,9277874,-1463
32-6,9281780,-2486
32-7,9285686,-2211
32-8,9289592,-560
32-9,9293498,1437
32-10,9297404,2401
32-11,9301310,1781
32-12,9305216,315
32-13,9309122,-861
32-14,9313028,-1028
32-15,9316934,-224
32-16,9320840,1096
32-17,9324746,2364
32-18,9328652,2579
32-19,9332558,1666
32-20,9336464,125
32-21,9340370,-1372
32-22,9344276,-1870
32-23,9348182,-1201
32-24,9352088,214
32-25,9355994,1502
32-26,9359900,1651
32-27,9363806,661
32-28,9367712,-769
32-29,9371618,-1896
32-30,9375524,-1877
32-31,9379430,-982
32-32,9383336,227
32-1,9387248,1418
32-2,9391154,1798
32-3,9395060,1006
32-4,9398966,-1002
32-5,9402872,-3407
32-6,9406778,-4574
32-7,9410684,-3559
32-8,9414590,-1250
32-9,9418496,503
32-10,9422402,643
32-11,9426308,-246
32-12,9430214,-688
32-13,9434120,-232
32-14,9438026,633
32-15,9441932,1641
32-16,9445838,2404
32-17,9449744,2325
32-18,9453650,1379
32-19,9457556,-207
32-20,9461462,-1636
32-21,9465368,-1939
32-22,9469274,-906
32-23,9473180,836
32-24,9477086,2035
32-25,9480992,1896
32-26,9484898,851
32-27,9488804,-319
32-28,9492710,-890
32-29,9496616,-397
32-30,9500522,683
32-31,9504428,2076
32-32,9508334,3295
32-1,9512245,3427
32-2,9516151,2037
32-3,9520057,-706
32-4,9523963,-3361
32-5,9527869,-4072
32-6,9531775,-2432
32-7,9535681,101
32-8,9539587,1677
32-9,9543493,1457
32-10,9547399,300
32-11,9551305,-368
32-12,9555211,-237
32-13,9559117,503
32-14,9563023,1692
32-15,9566929,2499
32-16,9570835,2274
32-17,9574741,1091
32-18,9578647,-567
32-19,9582553,-1641
32-20,9586459,-1474
32-21,9590365,-190
32-22,9594271,1417
32-23,9598177,2166
32-24,9602083,1598
32-25,9605989,331
32-26,9609895,-900
32-27,9613801,-1324
32-28,9617707,-801
32-29,9621613,158
32-30,9625519,1443
32-31,9629425,2310
32-32,9633331,2046
32-1,9637243,450
32-2,9641149,-2002
32-3,9645055,-3696
32-4,9648961,-3334
32-5,9652867,-1346
32-6,9656773,549
32-7,9660679,1043
32-8,9664585,189
32-9,9668491,-665
32-10,9672397,-720
32-11,9676303,-291
32-12,9680209,441
32-13,9684115,1369
32-14,9688021,1854
32-15,9691927,1512
32-16,9695833,314
32-17,9699739,-1195
32-18,9703645,-1832
32-19,9707551,-1150
32-20,9711457,502
32-21,9715363,2023
32-22,9719269,2273
32-23,9723175,1303
32-24,9727081,-114
32-25,9730987,-1267
32-26,9734893,-1433
32-27,9738799,-775
32-28,9742705,359
32-29,9746611,1707
32-30,9750517,2282
32-31,9754423,1657
32-32,9758329,-220
32-1,9762241,-2597
32-2,9766147,-3887
32-3,9770053,-3136
32-4,9773959,-925
32-5,9777865,943
32-6,9781771,1084
32-7,9785677,-122
32-8,9789583,-1114
32-9,9793489,-1109
32-10,9797395,-245
32-11,9801301,1074
32-12,9805207,2071
32-13,9809113,2020
32-14,9813019,1143
32-15,9816925,-116
32-16,9820831,-1173
32-17,9824737,-1406
32-18,9828643,-708
32-19,9832549,650
32-20,9836455,1703
32-21,9840361,1635
32-22,9844267,672
32-23,9848173,-566
32-24,9852079,-1279
32-25,9855985,-849
32-26,9859891,83
32-27,9863797,1125
32-28,9867703,2042
32-29,9871609,2102
32-30,9875515,997
32-31,9879421,-1367
32-32,9883327,-3895
32-1,9887238,-4875
32-2,9891144,-3618
32-3,9895050,-1267
32-4,9898956,280
32-5,9902862,120
32-6,9906768,-976
32-7,9910674,-1573
32-8,9914580,-1319
32-9,9918486,-392
32-10,9922392,962
32-11,9926298,1973
32-12,9930204,1955
32-13,9934110,941
32-14,9938016,-573
32-15,9941922,-1567
32-16,9945828,-1327
32-17,9949734,-33
32-18,9953640,1585
32-19,9957546,2269
32-20,9961452,1551
32-21,9965358,221
32-22,9969264,-960
32-23,9973170,-1200
32-24,9977076,-509
32-25,9980982,348
32-26,9984888,1361
32-27,9988794,1975
32-28,9992700,1594
32-29,9996606,107
32-30,10000512,-2303
32-31,10004418,-4151
32-32,10008324,-4067
32-1,10012236,-1981
32-2,10016142,626
32-3,10020048,1718
32-4,10023954,755
32-5,10027860,-1009
32-6,10031766,-2115
32-7,10035672,-1930
32-8,10039578,-636
32-9,10043484,924
32-10,10047390,1714
32-11,10051296,1193
32-12,10055202,-64
32-13,10059108,-1189
32-14,10063014,-1497
32-15,10066920,-613
32-16,10070826,1059
32-17,10074732,2612
32-18,10078638,2891
32-19,10082544,1714
32-20,10086450,-90
32-21,10090356,-1522
32-22,10094262,-1739
32-23,10098168,-895
32-24,10102074,521
32-25,10105980,1781
32-26,10109886,2022
32-27,10113792,1262
32-28,10117698,-144
32-29,10121604,-1524
32-30,10125510,-1846
32-31,10129416,-1067
32-32,10133322,460
32-1,10137234,2138
32-2,10141140,2687
32-3,10145046,1626
32-4,10148952,-685
32-5,10152858,-3062
32-6,10156764,-3822
32-7,10160670,-2334
32-8,10164576,194
32-9,10168482,1829
32-10,10172388,1576
32-11,10176294,99
32-12,10180200,-1089
32-13,10184106,-1300
32-14,10188012,-605
32-15,10191918,691
32-16,10195824,1688
32-17,10199730,1581
32-18,10203636,648
32-19,10207542,-476
32-20,10211448,-1012
32-21,10215354,-555
32-22,10219260,541
32-23,10223166,1808
32-24,10227072,2420
32-25,10230978,1822
32-26,10234884,442
32-27,10238790,-1074
32-28,10242696,-1735
32-29,10246602,-1029
32-30,10250508,265
32-31,10254414,1644
32-32,10258320,2473
32-1,10262231,2115
32-2,10266137,683
32-3,10270043,-1541
32-4,10273949,-3546
32-5,10277855,-3953
32-6,10281761,-2440
32-7,10285667,-240
32-8,10289573,1036
32-9,10293479,733
32-10,10297385,-253
32-11,10301291,-603
32-12,10305197,-45
32-13,10309103,1104
32-14,10313009,2415
32-15,10316915,2995
32-16,10320821,2362
32-17,10324727,914
32-18,10328633,-729
32-19,10332539,-1683
32-20,10336445,-1404
32-21,10340351,-137
32-22,10344257,1290
32-23,10348163,1812
32-24,10352069,1082
32-25,10355975,-162
32-26,10359881,-1096
32-27,10363787,-1063
32-28,10367693,-132
32-29,10371599,896
32-30,10375505,1831
32-31,10379411,2414
32-32,10383317,2108
32-1,10387229,537
32-2,10391135,-2020
32-3,10395041,-4084
32-4,10398947,-3999
32-5,10402853,-1793
32-6,10406759,615
32-7,10410665,1510
32-8,10414571,600
32-9,10418477,-727
32-10,10422383,-1071
32-11,10426289,-547
32-12,10430195,486
32-13,10434101,1647
32-14,10438007,2042
32-15,10441913,1389
32-16,10445819,48
32-17,10449725,-1313
32-18,10453631,-1798
32-19,10457537,-1229
32-20,10461443,35
32-21,10465349,1300
32-22,10469255,1739
32-23,10473161,1205
32-24,10477067,97
32-25,10480973,-975
32-26,10484879,-1201
32-27,10488785,-661
32-28,10492691,320
32-29,10496597,1376
32-30,10500503,1552
32-31,10504409,606
32-32,10508315,-1346
32-1,10512226,-3405
32-2,10516132,-4075
32-3,10520038,-2728
32-4,10523944,-236
32-5,10527850,1481
32-6,10531756,1267
32-7,10535662,-235
32-8,10539568,-1380
32-9,10543474,-1369
32-10,10547380,-342
32-11,10551286,1231
32-12,10555192,2464
32-13,10559098,2488
32-14,10563004,1421
32-15,10566910,-54
32-16,10570816,-1105
32-17,10574722,-1038
32-18,10578628,-46
32-19,10582534,1262
32-20,10586440,2028
32-21,10590346,1668
32-22,10594252,474
32-23,10598158,-990
32-24,10602064,-1950
32-25,10605970,-1726
32-26,10609876,-715
32-27,10613782,723
32-28,10617688,2116
32-29,10621594,2434
32-30,10625500,1238
32-31,10629406,-1305
32-32,10633312,-3872
32-1,10637224,-4710
32-2,10641130,-3153
32-3,10645036,-484
32-4,10648942,1152
32-5,10652848,792
32-6,10656754,-677
32-7,10660660,-1507
32-8,10664566,-1160
32-9,10668472,27
32-10,10672378,1516
32-11,10676284,2275
32-12,10680190,1761
32-13,10684096,473
32-14,10688002,-925
32-15,10691908,-1652
32-16,10695814,-1260
32-17,10699720,-44
32-18,10703626,1475
32-19,10707532,2307
32-20,10711438,1886
32-21,10715344,658
32-22,10719250,-803
32-23,10723156,-1541
32-24,10727062,-1214
32-25,10730968,-305
32-26,10734874,1050
32-27,10738780,1999
32-28,10742686,1734
32-29,10746592,215
32-30,10750498,-2055
32-31,10754404,-3586
32-32,10758310,-3361
32-1,10762222,-1536
32-2,10766128,708
32-3,10770034,1671
32-4,10773940,785
32-5,10777846,-1075
32-6,10781752,-2677
32-7,10785658,-3101
32-8,10789564,-1943
32-9,10793470,225
32-10,10797376,1942
32-11,10801282,2117
32-12,10805188,892
32-13,10809094,-765
32-14,10813000,-1759
32-15,10816906,-1516
32-16,10820812,-184
32-17,10824718,1437
32-18,10828624,2041
32-19,10832530,1268
32-20,10836436,-221
32-21,10840342,-1528
32-22,10844248,-1713
32-23,10848154,-804
32-24,10852060,747
32-25,10855966,2147
32-26,10859872,2333
32-27,10863778,1326
32-28,10867684,-355
32-29,10871590,-1770
32-30,10875496,-1810
32-31,10879402,-758
32-32,10883308,712
32-1,10887219,1946
32-2,10891125,2048
32-3,10895031,943
32-4,10898937,-1129
32-5,10902843,-3317
32-6,10906749,-4124
32-7,10910655,-2789
32-8,10914561,-208
32-9,10918467,1731
32-10,10922373,1736
32-11,10926279,304
32-12,10930185,-973
32-13,10934091,-1239
32-14,10937997,-463
32-15,10941903,1003
32-16,10945809,2226
32-17,10949715,2290
32-18,10953621,1293
32-19,10957527,-114
32-20,10961433,-957
32-21,10965339,-591
32-22,10969245,709
32-23,10973151,2262
32-24,10977057,3018
32-25,10980963,2431
32-26,10984869,1021
32-27,10988775,-412
32-28,10992681,-1089
32-29,10996587,-752
32-30,11000493,20
32-31,11004399,1120
32-32,11008305,2169
32-1,11012217,2354
32-2,11016123,1229
32-3,11020029,-1175
32-4,11023935,-3497
32-5,11027841,-4056
32-6,11031747,-2363
32-7,11035653,72
32-8,11039559,1263
32-9,11043465,617
32-10,11047371,-751
32-11,11051277,-1445
32-12,11055183,-1015
32-13,11059089,173
32-14,11062995,1227
32-15,11066901,1547
32-16,11070807,1207
32-17,11074713,925
32-18,11078619,1016
32-19,11082525,1313
32-20,11086431,1653
32-21,11090337,1774
32-22,11094243,1691
32-23,11098149,1926
32-24,11102055,2300
32-25,11105961,1723
32-26,11109867,-414
32-27,11113773,-3395
32-28,11117679,-5622
32-29,11121585,-5598
32-30,11125491,-3192
32-31,11129397,-437
32-32,11133303,564
32-1,11137215,-690
32-2,11141121,-2717
32-3,11145027,-3587
32-4,11148933,-2520
32-5,11152839,-52
32-6,11156745,2089
32-7,11160651,2416
32-8,11164557,1005
32-9,11168463,-653
32-10,11172369,-1410
32-11,11176275,-1005
32-12,11180181,368
32-13,11184087,1980
32-14,11187993,2761
32-15,11191899,2285
32-16,11195805,871
32-17,11199711,-706
32-18,11203617,-1436
32-19,11207523,-945
32-20,11211429,440
32-21,11215335,1834
32-22,11219241,2189
32-23,11223147,1407
32-24,11227053,64
32-25,11230959,-1091
32-26,11234865,-1156
32-27,11238771,-249
32-28,11242677,1004
32-29,11246583,2309
32-30,11250489,2940
32-31,11254395,2271
32-32,11258301,142
32-1,11262212,-2651
32-2,11266118,-4251
32-3,11270024,-3377
32-4,11273930,-829
32-5,11277836,1259
32-6,11281742,1474
32-7,11285648,166
32-8,11289554,-875
32-9,11293460,-671
32-10,11297366,229
32-11,11301272,1333
32-12,11305178,2145
32-13,11309084,2022
32-14,11312990,1000
32-15,11316896,-550
32-16,11320802,-1881
32-17,11324708,-2142
32-18,11328614,-1153
32-19,11332520,601
32-20,11336426,2058
32-21,11340332,2257
32-22,11344238,1316
32-23,11348144,60
32-24,11352050,-664
32-25,11355956,-295
32-26,11359862,627
32-27,11363768,1643
32-28,11367674,2482
32-29,11371580,2513
32-30,11375486,1381
32-31,11379392,-943
32-32,11383298,-3457
32-1,11387210,-4504
32-2,11391116,-3302
32-3,11395022,-942
32-4,11398928,698
32-5,11402834,675
32-6,11406740,-294
32-7,11410646,-725
32-8,11414552,-307
32-9,11418458,516
32-10,11422364,1475
32-11,11426270,1974
32-12,11430176,1635
32-13,11434082,706
32-14,11437988,-532
32-15,11441894,-1489
32-16,11445800,-1611
32-17,11449706,-806
32-18,11453612,596
32-19,11457518,1603
32-20,11461424,1379
32-21,11465330,199
32-22,11469236,-1202
32-23,11473142,-1786
32-24,11477048,-1115
32-25,11480954,273
32-26,11484860,1903
32-27,11488766,2742
32-28,11492672,2185
32-29,11496578,375
32-30,11500484,-2076
32-31,11504390,-3691
32-32,11508296,-3483
32-1,11512208,-1534
32-2,11516114,909
32-3,11520020,2029
32-4,11523926,1262
32-5,11527832,-475
32-6,11531738,-1951
32-7,11535644,-2140
32-8,11539550,-761
32-9,11543456,1309
32-10,11547362,2610
32-11,11551268,2281
32-12,11555174,877
32-13,11559080,-463
32-14,11562986,-919
32-15,11566892,-236
32-16,11570798,1234
32-17,11574704,2696
32-18,11578610,3107
32-19,11582516,2179
32-20,11586422,422
32-21,11590328,-1205
32-22,11594234,-1575
32-23,11598140,-575
32-24,11602046,1150
32-25,11605952,2466
32-26,11609858,2300
32-27,11613764,973
32-28,11617670,-660
32-29,11621576,-1688
32-30,11625482,-1373
32-31,11629388,-217
32-32,11633294,1187
32-1,11637205,2346
32-2,11641111,2361
32-3,11645017,1094
32-4,11648923,-1134
32-5,11652829,-3367
32-6,11656735,-4040
32-7,11660641,-2562
32-8,11664547,-49
32-9,11668453,1622
32-10,11672359,1440
32-11,11676265,117
32-12,11680171,-795
32-13,11684077,-657
32-14,11687983,326
32-15,11691889,1685
32-16,11695795,2510
32-17,11699701,2206
32-18,11703607,1120
32-19,11707513,-136
32-20,11711419,-895
32-21,11715325,-748
32-22,11719231,122
32-23,11723137,1286
32-24,11727043,1931
32-25,11730949,1527
32-26,11734855,411
32-27,11738761,-968
32-28,11742667,-1821
32-29,11746573,-1624
32-30,11750479,-796
32-31,11754385,500
32-32,11758291,1603
32-1,11762203,1631
32-2,11766109,396
32-3,11770015,-1805
32-4,11773921,-3675
32-5,11777827,-3899
32-6,11781733,-2433
32-7,11785639,-611
32-8,11789545,185
32-9,11793451,-323
32-10,11797357,-1153
32-11,11801263,-1321
32-12,11805169,-860
32-13,11809075,-27
32-14,11812981,937
32-15,11816887,1414
32-16,11820793,1024
32-17,11824699,59
32-18,11828605,-1042
32-19,11832511,-1557
32-20,11836417,-1072
32-21,11840323,197
32-22,11844229,1677
32-23,11848135,2347
32-24,11852041,1737
32-25,11855947,285
32-26,11859853,-1323
32-27,11863759,-2059
32-28,11867665,-1639
32-29,11871571,-619
32-30,11875477,748
32-31,11879383,1622
32-32,11883289,1288
32-1,11887200,-327
32-2,11891106,-2684
32-3,11895012,-4176
32-4,11898918,-3463
32-5,11902824,-920
32-6,11906730,1607
32-7,11910636,2407
32-8,11914542,1327
32-9,11918448,-113
32-10,11922354,-735
32-11,11926260,-452
32-12,11930166,523
32-13,11934072,1551
32-14,11937978,1770
32-15,11941884,1044
32-16,11945790,-167
32-17,11949696,-1192
32-18,11953602,-1322
32-19,11957508,-538
32-20,11961414,749
32-21,11965320,1763
32-22,11969226,1689
32-23,11973132,687
32-24,11977038,-575
32-25,11980944,-1379
32-26,11984850,-1069
32-27,11988756,-187
32-28,11992662,624
32-29,11996568,1316
32-30,12000474,1396
32-31,12004380,636
32-32,12008286,-1014
32-1,12012290,-2966
32-2,12016196,-3899
32-3,12020102,-2975
32-4,12024008,-820
32-5,12027914,906
32-6,12031820,1097
32-7,12035726,44
32-8,12039632,-922
32-9,12043538,-1085
32-10,12047444,-507
32-11,12051350,669
32-12,12055256,1784
32-13,12059162,1830
32-14,12063068,719
32-15,12066974,-915
32-16,12070880,-2087
32-17,12074786,-1938
32-18,12078692,-611
32-19,12082598,1175
32-20,12086504,2350
32-21,12090410,2217
32-22,12094316,1051
32-23,12098222,-501
32-24,12102128,-1508
32-25,12106034,-1310
32-26,12109940,-378
32-27,12113846,885
32-28,12117752,1913
32-29,12121658,1877
32-30,12125564,626
32-31,12129470,-1676
32-32,12133376,-3844
32-1,12137196,-4469
32-2,12141102,-3093
32-3,12145008,-816
32-4,12148914,474
32-5,12152820,-16
32-6,12156726,-1338
32-7,12160632,-1961
32-8,12164538,-1521
32-9,12168444,-345
32-10,12172350,1096
32-11,12176256,2088
32-12,12180162,2034
32-13,12184068,1053
32-14,12187974,-383
32-15,12191880,-1567
32-16,12195786,-1776
32-17,12199692,-919
32-18,12203598,629
32-19,12207504,1765
32-20,12211410,1644
32-21,12215316,474
32-22,12219222,-1107
32-23,12223128,-2009
32-24,12227034,-1732
32-25,12230940,-536
32-26,12234846,1259
32-27,12238752,2478
32-28,12242658,2223
32-29,12246564,519
32-30,12250470,-1864
32-31,12254376,-3245
32-32,12258282,-2725
32-1,12262193,-739
32-2,12266099,1272
32-3,12270005,1685
32-4,12273911,375
32-5,12277817,-1483
32-6,12281723,-2798
32-7,12285629,-2921
32-8,12289535,-1687
32-9,12293441,219
32-10,12297347,1542
32-11,12301253,1522
32-12,12305159,643
32-13,12309065,-281
32-14,12312971,-607
32-15,12316877,-144
32-16,12320783,741
32-17,12324689,1551
32-18,12328595,1475
32-19,12332501,465
32-20,12336407,-987
32-21,12340313,-2339
32-22,12344219,-2716
32-23,12348125,-1856
32-24,12352031,-202
32-25,12355937,1317
32-26,12359843,1673
32-27,12363749,778
32-28,12367655,-679
32-29,12371561,-1782
32-30,12375467,-1700
32-31,12379373,-709
32-32,12383279,646
32-1,12387191,1960
32-2,12391097,2354
32-3,12395003,1406
32-4,12398909,-757
32-5,12402815,-3142
32-6,12406721,-4085
32-7,12410627,-2827
32-8,12414533,-450
32-9,12418439,1221
32-10,12422345,1268
32-11,12426251,306
32-12,12430157,-311
32-13,12434063,-140
32-14,12437969,487
32-15,12441875,1440
32-16,12445781,2243
32-17,12449687,2186
32-18,12453593,1220
32-19,12457499,-328
32-20,12461405,-1524
32-21,12465311,-1453
32-22,12469217,-195
32-23,12473123,1487
32-24,12477029,2443
32-25,12480935,2030
32-26,12484841,819
32-27,12488747,-407
32-28,12492653,-948
32-29,12496559,-482
32-30,12500465,464
32-31,12504371,1651
32-32,12508277,2521
32-1,12512189,2334
32-2,12516095,884
32-3,12520001,-1561
32-4,12523907,-3628
32-5,12527813,-3824
32-6,12531719,-2035
32-7,12535625,283
32-8,12539531,1407
32-9,12543437,802
32-10,12547343,-423
32-11,12551249,-997
32-12,12555155,-657
32-13,12559061,384
32-14,12562967,1735
32-15,12566873,2572
32-16,12570779,2266
32-17,12574685,1042
32-18,12578591,-469
32-19,12582497,-1321
32-20,12586403,-990
32-21,12590309,364
32-22,12594215,2055
32-23,12598121,2957
32-24,12602027,2527
32-25,12605933,1106
32-26,12609839,-499
32-27,12613745,-1085
32-28,12617651,-372
32-29,12621557,907
32-30,12625463,2194
32-31,12629369,2654
32-32,12633275,1948
32-1,12637339,155
32-2,12641245,-2226
32-3,12645151,-3744
32-4,12649057,-3291
32-5,12652963,-1215
32-6,12656869,784
32-7,12660775,1147
32-8,12664681,-96
32-9,12668587,-1416
32-10,12672493,-1750
32-11,12676399,-1105
32-12,12680305,178
32-13,12684211,1435
32-14,12688117,1817
32-15,12692023,1122
32-16,12695929,-200
32-17,12699835,-1365
32-18,12703741,-1575
32-19,12707647,-791
32-20,12711553,533
32-21,12715459,1631
32-22,12719365,1691
32-23,12723271,785
32-24,12727177,-553
32-25,12731083,-1739
32-26,12734989,-1879
32-27,12738895,-1078
32-28,12742801,230
32-29,12746707,1601
32-30,12750613,2026
32-31,12754519,1203
32-32,12758425,-685
32-1,12762214,-2738
32-2,12766120,-3500
32-3,12770026,-2371
32-4,12773932,-299
32-5,12777838,1159
32-6,12781744,1011
32-7,12785650,-288
32-8,12789556,-1313
32-9,12793462,-1464
32-10,12797368,-813
32-11,12801274,373
32-12,12805180,1417
32-13,12809086,1590
32-14,12812992,929
32-15,12816898,-125
32-16,12820804,-908
32-17,12824710,-800
32-18,12828616,127
32-19,12832522,1455
32-20,12836428,2305
32-21,12840334,1926
32-22,12844240,621
32-23,12848146,-837
32-24,12852052,-1606
32-25,12855958,-1101
32-26,12859864,23
32-27,12863770,1211
32-28,12867676,2197
32-29,12871582,2243
32-30,12875488,1026
32-31,12879394,-1361
32-32,12883300,-3749
32-1,12887181,-4414
32-2,12891087,-2803
32-3,12894993,-238
32-4,12898899,1233
32-5,12902805,653
32-6,12906711,-1023
32-7,12910617,-2061
32-8,12914523,-1848
32-9,12918429,-621
32-10,12922335,989
32-11,12926241,1909
32-12,12930147,1466
32-13,12934053,72
32-14,12937959,-1340
32-15,12941865,-1804
32-16,12945771,-1020
32-17,12949677,535
32-18,12953583,2049
32-19,12957489,2582
32-20,12961395,1849
32-21,12965301,397
32-22,12969207,-1083
32-23,12973113,-1680
32-24,12977019,-1083
32-25,12980925,202
32-26,12984831,1865
32-27,12988737,2855
32-28,12992643,2445
32-29,12996549,787
32-30,13000455,-1503
32-31,13004361,-2912
32-32,13008267,-2641
32-1,13012179,-998
32-2,13016085,846
32-3,13019991,1377
32-4,13023897,240
32-5,13027803,-1456
32-6,13031709,-2521
32-7,13035615,-2338
32-8,13039521,-862
32-9,13043427,946
32-10,13047333,1930
32-11,13051239,1627
32-12,13055145,624
32-13,13059051,-213
32-14,13062957,-441
32-15,13066863,-3
32-16,13070769,971
32-17,13074675,2020
32-18,13078581,2213
32-19,13082487,1411
32-20,13086393,76
32-21,13090299,-989
32-22,13094205,-963
32-23,13098111,5
32-24,13102017,1445
32-25,13105923,2513
32-26,13109829,2456
32-27,13113735,1502
32-28,13117641,204
32-29,13121547,-775
32-30,13125453,-746
32-31,13129359,-41
32-32,13133265,836
32-1,13137177,1718
32-2,13141083,1906
32-3,13144989,1039
32-4,13148895,-968
32-5,13152801,-3447
32-6,13156707,-4656
32-7,13160613,-3545
32-8,13164519,-1019
32-9,13168425,1018
32-10,13172331,1297
32-11,13176237,219
32-12,13180143,-624
32-13,13184049,-585
32-14,13187955,76
32-15,13191861,1121
32-16,13195767,1910
32-17,13199673,1897
32-18,13203579,1080
32-19,13207485,-347
32-20,13211391,-1561
32-21,13215297,-1709
32-22,13219203,-690
32-23,13223109,846
32-24,13227015,1700
32-25,13230921,1239
32-26,13234827,-7
32-27,13238733,-1137
32-28,13242639,-1375
32-29,13246545,-573
32-30,13250451,471
32-31,13254357,1447
32-32,13258263,2066
32-1,13262327,1783
32-2,13266233,430
32-3,13270139,-1821
32-4,13274045,-3849
32-5,13277951,-4222
32-6,13281857,-2629
32-7,13285763,-416
32-8,13289669,708
32-9,13293575,155
32-10,13297481,-914
32-11,13301387,-1041
32-12,13305293,-145
32-13,13309199,1192
32-14,13313105,2416
32-15,13317011,2804
32-16,13320917,2083
32-17,13324823,571
32-18,13328729,-1207
32-19,13332635,-2281
32-20,13336541,-2045
32-21,13340447,-631
32-22,13344353,1121
32-23,13348259,1919
32-24,13352165,1315
32-25,13356071,-43
32-26,13359977,-1287
32-27,13363883,-1529
32-28,13367789,-779
32-29,13371695,377
32-30,13375601,1586
32-31,13379507,1943
32-32,13383413,1125
32-1,13387172,-580
32-2,13391078,-2417
32-3,13394984,-3142
32-4,13398890,-2217
32-5,13402796,-249
32-6,13406702,1347
32-7,13410608,1499
32-8,13414514,390
32-9,13418420,-923
32-10,13422326,-1696
32-11,13426232,-1565
32-12,13430138,-403
32-13,13434044,1291
32-14,13437950,2352
32-15,13441856,2089
32-16,13445762,799
32-17,13449668,-790
32-18,13453574,-1676
32-19,13457480,-1359
32-20,13461386,-121
32-21,13465292,1119
32-22,13469198,1250
32-23,13473104,197
32-24,13477010,-1235
32-25,13480916,-2086
32-26,13484822,-1629
32-27,13488728,-454
32-28,13492634,701
32-29,13496540,1665
32-30,13500446,1970
32-31,13504352,1342
32-32,13508258,-355
32-1,13512231,-2491
32-2,13516137,-3495
32-3,13520043,-2655
32-4,13523949,-834
32-5,13527855,704
32-6,13531761,1216
32-7,13535667,1072
32-8,13539573,1108
32-9,13543479,1272
32-10,13547385,1381
32-11,13551291,1315
32-12,13555197,1166
32-13,13559103,1359
32-14,13563009,1375
32-15,13566915,316
32-16,13570821,-1931
32-17,13574727,-4392
32-18,13578633,-5227
32-19,13582539,-3641
32-20,13586445,-991
32-21,13590351,805
32-22,13594257,857
32-23,13598163,-80
32-24,13602069,-397
32-25,13605975,202
32-26,13609881,904
32-27,13613787,1561
32-28,13617693,2161
32-29,13621599,2201
32-30,13625505,1111
32-31,13629411,-1167
32-32,13633317,-3514
32-1,13637167,-4370
32-2,13641073,-3138
32-3,13644979,-898
32-4,13648885,618
32-5,13652791,501
32-6,13656697,-532
32-7,13660603,-1068
32-8,13664509,-833
32-9,13668415,-49
32-10,13672321,1177
32-11,13676227,2078
32-12,13680133,2003
32-13,13684039,1136
32-14,13687945,-91
32-15,13691851,-827
32-16,13695757,-499
32-17,13699663,715
32-18,13703569,2183
32-19,13707475,2784
32-20,13711381,2064
32-21,13715287,662
32-22,13719193,-675
32-23,13723099,-1037
32-24,13727005,-309
32-25,13730911,786
32-26,13734817,1950
32-27,13738723,2450
32-28,13742629,1838
32-29,13746535,245
32-30,13750441,-1853
32-31,13754347,-3015
32-32,13758253,-2555
32-1,13762165,-860
32-2,13766071,1041
32-3,13769977,1598
32-4,13773883,540
32-5,13777789,-1172
32-6,13781695,-2615
32-7,13785601,-2923
32-8,13789507,-1727
32-9,13793413,243
32-10,13797319,1654
32-11,13801225,1596
32-12,13805131,471
32-13,13809037,-596
32-14,13812943,-903
32-15,13816849,-371
32-16,13820755,712
32-17,13824661,1728
32-18,13828567,1900
32-19,13832473,1241
32-20,13836379,134
32-21,13840285,-901
32-22,13844191,-1122
32-23,13848097,-499
32-24,13852003,657
32-25,13855909,1678
32-26,13859815,1704
32-27,13863721,818
32-28,13867627,-483
32-29,13871533,-1526
32-30,13875439,-1468
32-31,13879345,-553
32-32,13883251,762
32-1,13887163,2084
32-2,13891069,2406
32-3,13894975,1362
32-4,13898881,-812
32-5,13902787,-3047
32-6,13906693,-3837
32-7,13910599,-2603
32-8,13914505,-375
32-9,13918411,1094
32-10,13922317,879
32-11,13926223,-418
32-12,13930129,-1312
32-13,13934035,-1220
32-14,13937941,-276
32-15,13941847,1240
32-16,13945753,2509
32-17,13949659,2621
32-18,13953565,1539
32-19,13957471,-128
32-20,13961377,-1328
32-21,13965283,-1249
32-22,13969189,-48
32-23,13973095,1633
32-24,13977001,2596
32-25,13980907,2123
32-26,13984813,812
32-27,13988719,-539
32-28,13992625,-1107
32-29,13996531,-592
32-30,14000437,314
32-31,14004343,1351
32-32,14008249,2029
32-1,14012160,1685
32-2,14016066,356
32-3,14019972,-1726
32-4,14023878,-3509
32-5,14027784,-3571
32-6,14031690,-1727
32-7,14035596,599
32-8,14039502,1806
32-9,14043408,1330
32-10,14047314,220
32-11,14051220,-315
32-12,14055126,-142
32-13,14059032,590
32-14,14062938,1561
32-15,14066844,2000
32-16,14070750,1565
32-17,14074656,554
32-18,14078562,-690
32-19,14082468,-1392
32-20,14086374,-1105
32-21,14090280,82
32-22,14094186,1550
32-23,14098092,2193
32-24,14101998,1659
32-25,14105904,405
32-26,14109810,-866
32-27,14113716,-1221
32-28,14117622,-557
32-29,14121528,504
32-30,14125434,1733
32-31,14129340,2367
32-32,14133246,1861
32-1,14137158,198
32-2,14141064,-2078
32-3,14144970,-3515
32-4,14148876,-3121
32-5,14152782,-1250
32-6,14156688,587
32-7,14160594,1098
32-8,14164500,258
32-9,14168406,-866
32-10,14172312,-1402
32-11,14176218,-1211
32-12,14180124,-294
32-13,14184030,1000
32-14,14187936,1638
32-15,14191842,1163
32-16,14195748,-104
32-17,14199654,-1424
32-18,14203560,-1799
32-19,14207466,-942
32-20,14211372,657
32-21,14215278,1973
32-22,14219184,2089
32-23,14223090,1045
32-24,14226996,-345
32-25,14230902,-1250
32-26,14234808,-983
32-27,14238714,68
32-28,14242620,1202
32-29,14246526,2208
32-30,14250432,2460
32-31,14254338,1647
32-32,14258244,-329
32-1,14262216,-2824
32-2,14266122,-4254
32-3,14270028,-3591
32-4,14273934,-1436
32-5,14277840,478
32-6,14281746,871
32-7,14285652,-63
32-8,14289558,-967
32-9,14293464,-1120
32-10,14297370,-632
32-11,14301276,376
32-12,14305182,1404
32-13,14309088,1665
32-14,14312994,988
32-15,14316900,-380
32-16,14320806,-1660
32-17,14324712,-1867
32-18,14328618,-864
32-19,14332524,782
32-20,14336430,1998
32-21,14340336,1896
32-22,14344242,753
32-23,14348148,-627
32-24,14352054,-1506
32-25,14355960,-1358
32-26,14359866,-622
32-27,14363772,468
32-28,14367678,1686
32-29,14371584,2046
32-30,14375490,971
32-31,14379396,-1438
32-32,14383302,-3889
32-1,14387153,-4475
32-2,14391059,-2711
32-3,14394965,-118
32-4,14398871,1384
32-5,14402777,1054
32-6,14406683,-121
32-7,14410589,-698
32-8,14414495,-453
32-9,14418401,245
32-10,14422307,1248
32-11,14426213,2047
32-12,14430119,1978
32-13,14434025,926
32-14,14437931,-776
32-15,14441837,-2073
32-16,14445743,-2076
32-17,14449649,-850
32-18,14453555,769
32-19,14457461,1554
32-20,14461367,1006
32-21,14465273,-258
32-22,14469179,-1468
32-23,14473085,-1860
32-24,14476991,-1207
32-25,14480897,139
32-26,14484803,1878
32-27,14488709,2880
32-28,14492615,2365
32-29,14496521,494
32-30,14500427,-1900
32-31,14504333,-3243
32-32,14508239,-2810
32-1,14512151,-1018
32-2,14516057,915
32-3,14519963,1511
32-4,14523869,493
32-5,14527775,-1200
32-6,14531681,-2488
32-7,14535587,-2576
32-8,14539493,-1288
32-9,14543399,703
32-10,14547305,2064
32-11,14551211,1867
32-12,14555117,496
32-13,14559023,-1073
32-14,14562929,-1780
32-15,14566835,-1101
32-16,14570741,563
32-17,14574647,2202
32-18,14578553,2563
32-19,14582459,1472
32-20,14586365,-195
32-21,14590271,-1500
32-22,14594177,-1676
32-23,14598083,-794
32-24,14601989,689
32-25,14605895,2075
32-26,14609801,2389
32-27,14613707,1520
32-28,14617613,-76
32-29,14621519,-1507
32-30,14625425,-1660
32-31,14629331,-601
32-32,14633237,1112
32-1,14637148,2678
32-2,14641054,2957
32-3,14644960,1729
32-4,14648866,-566
32-5,14652772,-2866
32-6,14656678,-3606
32-7,14660584,-2256
32-8,14664490,21
32-9,14668396,1466
32-10,14672302,1161
32-11,14676208,-133
32-12,14680114,-994
32-13,14684020,-853
32-14,14687926,103
32-15,14691832,1447
32-16,14695738,2365
32-17,14699644,2107
32-18,14703550,887
32-19,14707456,-684
32-20,14711362,-1684
32-21,14715268,-1459
32-22,14719174,-260
32-23,14723080,1214
32-24,14726986,1978
32-25,14730892,1477
32-26,14734798,192
32-27,14738704,-1173
32-28,14742610,-1884
32-29,14746516,-1469
32-30,14750422,-508
32-31,14754328,656
32-32,14758234,1559
32-1,14762146,1454
32-2,14766052,172
32-3,14769958,-2082
32-4,14773864,-4130
32-5,14777770,-4442
32-6,14781676,-2715
32-7,14785582,-370
32-8,14789488,910
32-9,14793394,456
32-10,14797300,-750
32-11,14801206,-1217
32-12,14805112,-664
32-13,14809018,565
32-14,14812924,1875
32-15,14816830,2403
32-16,14820736,1823
32-17,14824642,522
32-18,14828548,-950
32-19,14832454,-1726
32-20,14836360,-1366
32-21,14840266,-192
32-22,14844172,1103
32-23,14848078,1463
32-24,14851984,622
32-25,14855890,-702
32-26,14859796,-1823
32-27,14863702,-2023
32-28,14867608,-1348
32-29,14871514,-400
32-30,14875420,823
32-31,14879326,1692
32-32,14883232,1483
32-1,14887144,61
32-2,14891050,-2077
32-3,14894956,-3527
32-4,14898862,-3084
32-5,14902768,-1061
32-6,14906674,923
32-7,14910580,1544
32-8,14914486,640
32-9,14918392,-624
32-10,14922298,-1237
32-11,14926204,-917
32-12,14930110,364
32-13,14934016,1966
32-14,14937922,2655
32-15,14941828,1986
32-16,14945734,527
32-17,14949640,-855
32-18,14953546,-1223
32-19,14957452,-530
32-20,14961358,699
32-21,14965264,1774
32-22,14969170,1899
32-23,14973076,1032
32-24,14976982,-306
32-25,14980888,-1358
32-26,14984794,-1227
32-27,14988700,-173
32-28,14992606,1071
32-29,14996512,2128
32-30,15000418,2214
32-31,15004324,1126
32-32,15008230,-829
32-1,15012141,-2821
32-2,15016047,-3517
32-3,15019953,-2332
32-4,15023859,-132
32-5,15027765,1435
32-6,15031671,1316
32-7,15035577,12
32-8,15039483,-1019
32-9,15043389,-1117
32-10,15047295,-275
32-11,15051201,1192
32-12,15055107,2399
32-13,15059013,2468
32-14,15062919,1428
32-15,15066825,9
32-16,15070731,-961
32-17,15074637,-891
32-18,15078543,-114
32-19,15082449,884
32-20,15086355,1662
32-21,15090261,1626
32-22,15094167,707
32-23,15098073,-966
32-24,15101979,-2547
32-25,15105885,-2890
32-26,15109791,-1926
32-27,15113697,30
32-28,15117603,2001
32-29,15121509,2547
32-30,15125415,1341
32-31,15129321,-1016
32-32,15133227,-3271
32-1,15137139,-3865
32-2,15141045,-2385
32-3,15144951,-26
32-4,15148857,1414
32-5,15152763,989
32-6,15156669,-431
32-7,15160575,-1405
32-8,15164481,-1314
32-9,15168387,-236
32-10,15172293,1348
32-11,15176199,2460
32-12,15180105,2300
32-13,15184011,1073
32-14,15187917,-527
32-15,15191823,-1509
32-16,15195729,-1256
32-17,15199635,11
32-18,15203541,1419
32-19,15207447,1862
32-20,15211353,1100
32-21,15215259,12
32-22,15219165,-642
32-23,15223071,-528
32-24,15226977,96
32-25,15230883,702
32-26,15234789,1502
32-27,15238695,2110
32-28,15242601,1905
32-29,15246507,570
32-30,15250413,-1728
32-31,15254319,-3496
32-32,15258225,-3620
32-1,15262136,-2050
32-2,15266042,347
32-3,15269948,1806
32-4,15273854,1397
32-5,15277760,-363
32-6,15281666,-2396
32-7,15285572,-3544
32-8,15289478,-3037
32-9,15293384,-1295
32-10,15297290,331
32-11,15301196,726
32-12,15305102,-69
32-13,15309008,-1038
32-14,15312914,-1378
32-15,15316820,-771
32-16,15320726,583
32-17,15324632,1876
32-18,15328538,2094
32-19,15332444,1128
32-20,15336350,-269
32-21,15340256,-1317
32-22,15344162,-1357
32-23,15348068,-498
32-24,15351974,836
32-25,15355880,1938
32-26,15359786,1921
32-27,15363692,923
32-28,15367598,-547
32-29,15371504,-1778
32-30,15375410,-1902
32-31,15379316,-1110
32-32,15383222,255
32-1,15387134,1691
32-2,15391040,2093
32-3,15394946,1140
32-4,15398852,-885
32-5,15402758,-2927
32-6,15406664,-3467
32-7,15410570,-2052
32-8,15414476,141
32-9,15418382,1395
32-10,15422288,941
32-11,15426194,-407
32-12,15430100,-1191
32-13,15434006,-1013
32-14,15437912,-123
32-15,15441818,1146
32-16,15445724,2054
32-17,15449630,1882
32-18,15453536,825
32-19,15457442,-538
32-20,15461348,-1466
32-21,15465254,-1307
32-22,15469160,-175
32-23,15473066,1357
32-24,15476972,2239
32-25,15480878,1894
32-26,15484784,820
32-27,15488690,-421
32-28,15492596,-1121
32-29,15496502,-809
32-30,15500408,59
32-31,15504314,1260
32-32,15508220,2221
32-1,15512132,2141
32-2,15516038,759
32-3,15519944,-1660
32-4,15523850,-3734
32-5,15527756,-4028
32-6,15531662,-2439
32-7,15535568,-324
32-8,15539474,811
32-9,15543380,467
32-10,15547286,-468
32-11,15551192,-849
32-12,15555098,-427
32-13,15559004,648
32-14,15562910,2059
32-15,15566816,2923
32-16,15570722,2488
32-17,15574628,951
32-18,15578534,-997
32-19,15582440,-2098
32-20,15586346,-1642
32-21,15590252,-62
32-22,15594158,1672
32-23,15598064,2316
32-24,15601970,1501
32-25,15605876,-45
32-26,15609782,-1511
32-27,15613688,-1989
32-28,15617594,-1322
32-29,15621500,-87
32-30,15625406,1501
32-31,15629312,2563
32-32,15633218,2293
32-1,15637129,620
32-2,15641035,-1817
32-3,15644941,-3412
32-4,15648847,-2909
32-5,15652753,-698
32-6,15656659,1362
32-7,15660565,1738
32-8,15664471,498
32-9,15668377,-873
32-10,15672283,-1262
32-11,15676189,-630
32-12,15680095,686
32-13,15684001,1981
32-14,15687907,2280
32-15,15691813,1440
32-16,15695719,80
32-17,15699625,-1141
32-18,15703531,-1489
32-19,15707437,-833
32-20,15711343,458
32-21,15715249,1720
32-22,15719155,2083
32-23,15723061,1409
32-24,15726967,105
32-25,15730873,-1132
32-26,15734779,-1270
32-27,15738685,-444
32-28,15742591,775
32-29,15746497,2001
32-30,15750403,2327
32-31,15754309,1447
32-32,15758215,-535
32-1,15762158,-2783
32-2,15766064,-3753
32-3,15769970,-2680
32-4,15773876,-413
32-5,15777782,1278
32-6,15781688,1226
32-7,15785594,-65
32-8,15789500,-1052
32-9,15793406,-1076
32-10,15797312,-267
32-11,15801218,1073
32-12,15805124,2262
32-13,15809030,2506
32-14,15812936,1739
32-15,15816842,350
32-16,15820748,-926
32-17,15824654,-1273
32-18,15828560,-642
32-19,15832466,521
32-20,15836372,1285
32-21,15840278,1065
32-22,15844184,241
32-23,15848090,-682
32-24,15851996,-1156
32-25,15855902,-728
32-26,15859808,171
32-27,15863714,1311
32-28,15867620,2488
32-29,15871526,2794
32-30,15875432,1700
32-31,15879338,-792
32-32,15883244,-3434
32-1,15887125,-4406
32-2,15891031,-3083
32-3,15894937,-679
32-4,15898843,904
32-5,15902749,815
32-6,15906655,-213
32-7,15910561,-770
32-8,15914467,-557
32-9,15918373,137
32-10,15922279,1151
32-11,15926185,1869
32-12,15930091,1717
32-13,15933997,716
32-14,15937903,-758
32-15,15941809,-1802
32-16,15945715,-1609
32-17,15949621,-265
32-18,15953527,1456
32-19,15957433,2284
32-20,15961339,1667
32-21,15965245,274
32-22,15969151,-1024
32-23,15973057,-1270
32-24,15976963,-416
32-25,15980869,731
32-26,15984775,1883
32-27,15988681,2374
32-28,15992587,1753
32-29,15996493,102
32-30,16000399,-2187
32-31,16004305,-3762
32-32,16008211,-3633
32-1,16012122,-1824
32-2,16016028,533
32-3,16019934,1660
32-4,16023840,830
32-5,16027746,-1093
32-6,16031652,-2763
32-7,16035558,-3142
32-8,16039464,-1751
32-9,16043370,657
32-10,16047276,2491
32-11,16051182,2689
32-12,16055088,1642
32-13,16058994,402
32-14,16062900,-96
32-15,16066806,355
32-16,16070712,1371
32-17,16074618,2436
32-18,16078524,2561
32-19,16082430,1609
32-20,16086336,51
32-21,16090242,-1513
32-22,16094148,-2120
32-23,16098054,-1486
32-24,16101960,25
32-25,16105866,1529
32-26,16109772,1941
32-27,16113678,1118
32-28,16117584,-380
32-29,16121490,-1807
32-30,16125396,-2161
32-31,16129302,-1558
32-32,16133208,-549
32-1,16137120,550
32-2,16141026,872
32-3,16144932,43
32-4,16148838,-1863
32-5,16152744,-3990
32-6,16156650,-4704
32-7,16160556,-3264
32-8,16164462,-781
32-9,16168368,933
32-10,16172274,812
32-11,16176180,-517
32-12,16180086,-1278
32-13,16183992,-817
32-14,16187898,391
32-15,16191804,1800
32-16,16195710,2627
32-17,16199616,2255
32-18,16203522,917
32-19,16207428,-855
32-20,16211334,-2158
32-21,16215240,-2176
32-22,16219146,-918
32-23,16223052,1038
32-24,16226958,2484
32-25,16230864,2373
32-26,16234770,1006
32-27,16238676,-613
32-28,16242582,-1498
32-29,16246488,-1133
32-30,16250394,-81
32-31,16254300,1251
32-32,16258206,2290
32-1,16262118,2246
32-2,16266024,922
32-3,16269930,-1449
32-4,16273836,-3659
32-5,16277742,-4160
32-6,16281648,-2676
32-7,16285554,-614
32-8,16289460,480
32-9,16293366,116
32-10,16297272,-854
32-11,16301178,-1261
32-12,16305084,-904
32-13,16308990,2
32-14,16312896,1288
32-15,16316802,2176
32-16,16320708,2008
32-17,16324614,859
32-18,16328520,-814
32-19,16332426,-1835
32-20,16336332,-1454
32-21,16340238,87
32-22,16344144,1987
32-23,16348050,2997
32-24,16351956,2485
32-25,16355862,1060
32-26,16359768,-508
32-27,16363674,-1277
32-28,16367580,-835
32-29,16371486,327
32-30,16375392,1930
32-31,16379298,2917
32-32,16383204,2481
32-1,16387115,569
32-2,16391021,-2111
32-3,16394927,-3804
32-4,16398833,-3204
32-5,16402739,-748
32-6,16406645,1596
32-7,16410551,2217
32-8,16414457,1049
32-9,16418363,-293
32-10,16422269,-629
32-11,16426175,-132
32-12,16430081,780
32-13,16433987,1618
32-14,16437893,1725
32-15,16441799,999
32-16,16445705,-192
32-17,16449611,-1433
32-18,16453517,-1883
32-19,16457423,-1320
32-20,16461329,-97
32-21,16465235,1039
32-22,16469141,1035
32-23,16473047,-35
32-24,16476953,-1385
32-25,16480859,-2341
32-26,16484765,-2145
32-27,16488671,-1098
32-28,16492577,136
32-29,16496483,1377
32-30,16500389,1914
32-31,16504295,1300
32-32,16508201,-504
32-1,16512113,-2793
32-2,16516019,-3977
32-3,16519925,-3003
32-4,16523831,-573
32-5,16527737,1424
32-6,16531643,1670
32-7,16535549,398
32-8,16539455,-932
32-9,16543361,-1396
32-10,16547267,-924
32-11,16551173,360
32-12,16555079,1719
32-13,16558985,2175
32-14,16562891,1588
32-15,16566797,317
32-16,16570703,-844
32-17,16574609,-1106
32-18,16578515,-516
32-19,16582421,490
32-20,16586327,1138
32-21,16590233,813
32-22,16594139,-124
32-23,16598045,-1173
32-24,16601951,-1747
32-25,16605857,-1345
32-26,16609763,-518
32-27,16613669,641
32-28,16617575,1913
32-29,16621481,2282
32-30,16625387,1319
32-31,16629293,-928
32-32,16633199,-3264
32-1,16637110,-3966
32-2,16641016,-2510
32-3,16644922,-136
32-4,16648828,1305
32-5,16652734,986
32-6,16656640,-268
32-7,16660546,-1125
32-8,16664452,-1239
32-9,16668358,-588
32-10,16672264,680
32-11,16676170,1750
32-12,16680076,1861
32-13,16683982,1056
32-14,16687888,-209
32-15,16691794,-1157
32-16,16695700,-1193
32-17,16699606,-340
32-18,16703512,965
32-19,16707418,1820
32-20,16711324,1655
32-21,16715230,651
32-22,16719136,-734
32-23,16723042,-1510
32-24,16726948,-1133
32-25,16730854,-100
32-26,16734760,1354
32-27,16738666,2423
32-28,16742572,2295
32-29,16746478,803
32-30,16750384,-1713
32-31,16754290,-3708
32-32,16758196,-3859
32-1,16762108,-1964
32-2,16766014,615
32-3,16769920,1883
32-4,16773826,1141
32-5,16777732,-517
32-6,16781638,-1526
32-7,16785544,-1304
32-8,16789450,-40
32-9,16793356,1463
32-10,16797262,2083
32-11,16801168,1453
32-12,16805074,295
32-13,16808980,-695
32-14,16812886,-1055
32-15,16816792,-652
32-16,16820698,281
32-17,16824604,1342
32-18,16828510,1584
32-19,16832416,756
32-20,16836322,-543
32-21,16840228,-1550
32-22,16844134,-1423
32-23,16848040,-323
32-24,16851946,1041
32-25,16855852,1962
32-26,16859758,1748
32-27,16863664,596
32-28,16867570,-952
32-29,16871476,-2237
32-30,16875382,-2287
32-31,16879288,-1231
32-32,16883194,380
32-1,16887106,1863
32-2,16891012,2135
32-3,16894918,1017
32-4,16898824,-1137
32-5,16902730,-3333
32-6,16906636,-4165
32-7,16910542,-2998
32-8,16914448,-730
32-9,16918354,902
32-10,16922260,901
32-11,16926166,-180
32-12,16930072,-967
32-13,16933978,-943
32-14,16937884,-241
32-15,16941790,879
32-16,16945696,1794
32-17,16949602,1825
32-18,16953508,1025
32-19,16957414,-207
32-20,16961320,-1215
32-21,16965226,-1247
32-22,16969132,-285
32-23,16973038,1241
32-24,16976944,2334
32-25,16980850,2156
32-26,16984756,962
32-27,16988662,-609
32-28,16992568,-1591
32-29,16996474,-1339
32-30,17000380,-321
32-31,17004286,1110
32-32,17008192,2331
32-1,17012103,2450
32-2,17016009,1219
32-3,17019915,-1050
32-4,17023821,-3123
32-5,17027727,-3543
32-6,17031633,-2068
32-7,17035539,-68
32-8,17039445,906
32-9,17043351,394
32-10,17047257,-710
32-11,17051163,-1274
32-12,17055069,-1093
32-13,17058975,-366
32-14,17062881,794
32-15,17066787,1679
32-16,17070693,1617
32-17,17074599,681
32-18,17078505,-778
32-19,17082411,-1823
32-20,17086317,-1739
32-21,17090223,-613
32-22,17094129,877
32-23,17098035,1639
32-24,17101941,1082
32-25,17105847,-232
32-26,17109753,-1472
32-27,17113659,-1809
32-28,17117565,-1069
32-29,17121471,7
32-30,17125377,1216
32-31,17129283,2096
32-32,17133189,1989
32-1,17137101,632
32-2,17141007,-1665
32-3,17144913,-3528
32-4,17148819,-3516
32-5,17152725,-1722
32-6,17156631,245
32-7,17160537,973
32-8,17164443,329
32-9,17168349,-441
32-10,17172255,-399
32-11,17176161,193
32-12,17180067,1109
32-13,17183973,2192
32-14,17187879,2685
32-15,17191785,2190
32-16,17195691,870
32-17,17199597,-670
32-18,17203503,-1332
32-19,17207409,-728
32-20,17211315,751
32-21,17215221,2163
32-22,17219127,2384
32-23,17223033,1347
32-24,17226939,-196
32-25,17230845,-1495
32-26,17234751,-1643
32-27,17238657,-737
32-28,17242563,595
32-29,17246469,1972
32-30,17250375,2398
32-31,17254281,1541
32-32,17258187,-343
32-1,17262129,-2567
32-2,17266035,-3734
32-3,17269941,-3029
32-4,17273847,-1163
32-5,17277753,408
32-6,17281659,688
32-7,17285565,-157
32-8,17289471,-948
32-9,17293377,-1036
32-10,17297283,-457
32-11,17301189,834
32-12,17305095,2325
32-13,17309001,2902
32-14,17312907,2238
32-15,17316813,623
32-16,17320719,-967
32-17,17324625,-1338
32-18,17328531,-484
32-19,17332437,967
32-20,17336343,1988
32-21,17340249,1729
32-22,17344155,535
32-23,17348061,-865
32-24,17351967,-1799
32-25,17355873,-1597
32-26,17359779,-617
32-27,17363685,738
32-28,17367591,2034
32-29,17371497,2303
32-30,17375403,1164
32-31,17379309,-1282
32-32,17383215,-3834
32-1,17387096,-4638
32-2,17391002,-3009
32-3,17394908,-223
32-4,17398814,1573
32-5,17402720,1294
32-6,17406626,-175
32-7,17410532,-1153
32-8,17414438,-1096
32-9,17418344,-272
32-10,17422250,947
32-11,17426156,1836
32-12,17430062,1762
32-13,17433968,825
32-14,17437874,-545
32-15,17441780,-1537
32-16,17445686,-1448
32-17,17449592,-267
32-18,17453498,1452
32-19,17457404,2474
32-20,17461310,2089
32-21,17465216,717
32-22,17469122,-853
32-23,17473028,-1513
32-24,17476934,-891
32-25,17480840,352
32-26,17484746,1772
32-27,17488652,2446
32-28,17492558,1822
32-29,17496464,256
32-30,17500370,-1744
32-31,17504276,-2826
32-32,17508182,-2400
32-1,17512094,-963
32-2,17516000,787
32-3,17519906,1493
32-4,17523812,627
32-5,17527718,-1034
32-6,17531624,-2540
32-7,17535530,-2892
32-8,17539436,-1486
32-9,17543342,856
32-10,17547248,2505
32-11,17551154,2372
32-12,17555060,865
32-13,17558966,-513
32-14,17562872,-903
32-15,17566778,-293
32-16,17570684,957
32-17,17574590,2175
32-18,17578496,2459
32-19,17582402,1647
32-20,17586308,168
32-21,17590214,-1360
32-22,17594120,-1904
32-23,17598026,-1217
32-24,17601932,318
32-25,17605838,1842
32-26,17609744,2130
32-27,17613650,1079
32-28,17617556,-638
32-29,17621462,-2112
32-30,17625368,-2340
32-31,17629274,-1548
32-32,17633180,-235
32-1,17637091,1198
32-2,17640997,1751
32-3,17644903,1035
32-4,17648809,-753
32-5,17652715,-2748
32-6,17656621,-3435
32-7,17660527,-2041
32-8,17664433,478
32-9,17668339,2254
32-10,17672245,2131
32-11,17676151,709
32-12,17680057,-392
32-13,17683963,-506
32-14,17687869,161
32-15,17691775,1273
32-16,17695681,2110
32-17,17699587,2002
32-18,17703493,1146
32-19,17707399,30
32-20,17711305,-722
32-21,17715211,-630
32-22,17719117,179
32-23,17723023,1405
32-24,17726929,2223
32-25,17730835,1927
32-26,17734741,819
32-27,17738647,-595
32-28,17742553,-1547
32-29,17746459,-1417
32-30,17750365,-556
32-31,17754271,819
32-32,17758177,2092
32-1,17762089,2299
32-2,17765995,1097
32-3,17769901,-1248
32-4,17773807,-3311
32-5,17777713,-3499
32-6,17781619,-1585
32-7,17785525,863
32-8,17789431,1951
32-9,17793337,1064
32-10,17797243,-598
32-11,17801149,-1511
32-12,17805055,-1262
32-13,17808961,-65
32-14,17812867,1550
32-15,17816773,2593
32-16,17820679,2346
32-17,17824585,1071
32-18,17828491,-483
32-19,17832397,-1305
32-20,17836303,-852
32-21,17840209,597
32-22,17844115,2227
32-23,17848021,2900
32-24,17851927,2138
32-25,17855833,514
32-26,17859739,-1121
32-27,17863645,-1784
32-28,17867551,-1219
32-29,17871457,-19
32-30,17875363,1530
32-31,17879269,2576
32-32,17883175,2307
32-1,17887087,602
32-2,17890993,-1965
32-3,17894899,-3867
32-4,17898805,-3728
32-5,17902711,-1745
32-6,17906617,347
32-7,17910523,1041
32-8,17914429,183
32-9,17918335,-867
32-10,17922241,-1057
32-11,17926147,-524
32-12,17930053,531
32-13,17933959,1662
32-14,17937865,2022
32-15,17941771,1403
32-16,17945677,215
32-17,17949583,-954
32-18,17953489,-1286
32-19,17957395,-727
32-20,17961301,377
32-21,17965207,1511
32-22,17969113,1703
32-23,17973019,878
32-24,17976925,-488
32-25,17980831,-1799
32-26,17984737,-1994
32-27,17988643,-1096
32-28,17992549,311
32-29,17996455,1694
32-30,18000361,1974
32-31,18004267,972
32-32,18008173,-844
32-1,18012115,-2730
32-2,18016021,-3399
32-3,18019927,-2278
32-4,18023833,-181
32-5,18027739,1353
32-6,18031645,1245
32-7,18035551,-22
32-8,18039457,-1004
32-9,18043363,-968
32-10,18047269,-32
32-11,18051175,1391
32-12,18055081,2595
32-13,18058987,2684
32-14,18062893,1587
32-15,18066799,-202
32-16,18070705,-1814
32-17,18074611,-2187
32-18,18078517,-1030
32-19,18082423,948
32-20,18086329,2353
32-21,18090235,2152
32-22,18094141,663
32-23,18098047,-914
32-24,18101953,-1569
32-25,18105859,-889
32-26,18109765,344
32-27,18113671,1435
32-28,18117577,2242
32-29,18121483,2308
32-30,18125389,1244
32-31,18129295,-1070
32-32,18133201,-3670
32-1,18137143,-4832
32-2,18141049,-3597
32-3,18144955,-956
32-4,18148861,1005
32-5,18152767,1102
32-6,18156673,-9
32-7,18160579,-697
32-8,18164485,-382
32-9,18168391,605
32-10,18172297,1982
32-11,18176203,3005
32-12,18180109,2935
32-13,18184015,1807
32-14,18187921,32
32-15,18191827,-1433
32-16,18195733,-1727
32-17,18199639,-736
32-18,18203545,992
32-19,18207451,2183
32-20,18211357,1928
32-21,18215263,553
32-22,18219169,-1073
32-23,18223075,-1823
32-24,18226981,-1275
32-25,18230887,1
32-26,18234793,1528
32-27,18238699,2288
32-28,18242605,1741
32-29,18246511,168
32-30,18250417,-1875
32-31,18254323,-3054
32-32,18258229,-2720
32-1,18262080,-1118
32-2,18265986,738
32-3,18269892,1281
32-4,18273798,181
32-5,18277704,-1574
32-6,18281610,-2821
32-7,18285516,-2718
32-8,18289422,-1176
32-9,18293328,931
32-10,18297234,2216
32-11,18301140,1884
32-12,18305046,478
32-13,18308952,-892
32-14,18312858,-1461
32-15,18316764,-1001
32-16,18320670,245
32-17,18324576,1629
32-18,18328482,2157
32-19,18332388,1554
32-20,18336294,264
32-21,18340200,-1004
32-22,18344106,-1293
32-23,18348012,-568
32-24,18351918,698
32-25,18355824,1744
32-26,18359730,1634
32-27,18363636,526
32-28,18367542,-975
32-29,18371448,-2135
32-30,18375354,-2090
32-31,18379260,-1053
32-32,18383166,536
32-1,18387077,2091
32-2,18390983,2454
32-3,18394889,1380
32-4,18398795,-729
32-5,18402701,-2873
32-6,18406607,-3600
32-7,18410513,-2293
32-8,18414419,46
32-9,18418325,1636
32-10,18422231,1433
32-11,18426137,56
32-12,18430043,-1075
32-13,18433949,-1322
32-14,18437855,-632
32-15,18441761,728
32-16,18445667,1856
32-17,18449573,1919
32-18,18453479,1037
32-19,18457385,-273
32-20,18461291,-1184
32-21,18465197,-1150
32-22,18469103,-301
32-23,18473009,951
32-24,18476915,1695
32-25,18480821,1374
32-26,18484727,354
32-27,18488633,-880
32-28,18492539,-1534
32-29,18496445,-1050
32-30,18500351,-3
32-31,18504257,1342
32-32,18508163,2421
32-1,18512075,2379
32-2,18515981,1030
32-3,18519887,-1402
32-4,18523793,-3559
32-5,18527699,-3936
32-6,18531605,-2305
32-7,18535511,-80
32-8,18539417,1003
32-9,18543323,413
32-10,18547229,-809
32-11,18551135,-1382
32-12,18555041,-1059
32-13,18558947,-62
32-14,18562853,1172
32-15,18566759,1834
32-16,18570665,1372
32-17,18574571,111
32-18,18578477,-1302
32-19,18582383,-2008
32-20,18586289,-1601
32-21,18590195,-441
32-22,18594101,856
32-23,18598007,1379
32-24,18601913,869
32-25,18605819,-168
32-26,18609725,-1242
32-27,18613631,-1597
32-28,18617537,-1139
32-29,18621443,-398
32-30,18625349,638
32-31,18629255,1407
32-32,18633161,1259
32-1,18637073,-2
32-2,18640979,-2117
32-3,18644885,-3707
32-4,18648791,-3369
32-5,18652697,-1204
32-6,18656603,1126
32-7,18660509,1982
32-8,18664415,1049
32-9,18668321,-374
32-10,18672227,-993
32-11,18676133,-656
32-12,18680039,412
32-13,18683945,1657
32-14,18687851,2112
32-15,18691757,1454
32-16,18695663,89
32-17,18699569,-1274
32-18,18703475,-1640
32-19,18707381,-837
32-20,18711287,617
32-21,18715193,1898
32-22,18719099,2028
32-23,18723005,1052
32-24,18726911,-403
32-25,18730817,-1697
32-26,18734723,-1961
32-27,18738629,-1119
32-28,18742535,90
32-29,18746441,894
32-30,18750347,934
32-31,18754253,822
32-32,18758159,989
32-1,18762314,1296
32-2,18766220,1625
32-3,18770126,1764
32-4,18774032,1808
32-5,18777938,1865
32-6,18781844,2134
32-7,18785750,2243
32-8,18789656,977
32-9,18793562,-2322
32-10,18797468,-6816
32-11,18801374,-10377
32-12,18805280,-11443
32-13,18809186,-10411
32-14,18813092,-8987
32-15,18816998,-8279
32-16,18820904,-8105
32-17,18824810,-7597
32-18,18828716,-6420
32-19,18832622,-4969
32-20,18836528,-3849
32-21,18840434,-3598
32-22,18844340,-4200
32-23,18848246,-5184
32-24,18852152,-5674
32-25,18856058,-5078
32-26,18859964,-3922
32-27,18863870,-2619
32-28,18867776,-1416
32-29,18871682,-1026
32-30,18875588,-1835
32-31,18879494,-3868
32-32,18883400,-6102
32-1,18887068,-6807
32-2,18890974,-5190
32-3,18894880,-2412
32-4,18898786,-547
32-5,18902692,-637
32-6,18906598,-1882
32-7,18910504,-2679
32-8,18914410,-2321
32-9,18918316,-1008
32-10,18922222,764
32-11,18926128,2056
32-12,18930034,2025
32-13,18933940,837
32-14,18937846,-779
32-15,18941752,-1754
32-16,18945658,-1312
32-17,18949564,383
32-18,18953470,2322
32-19,18957376,3231
32-20,18961282,2611
32-21,18965188,1186
32-22,18969094,-112
32-23,18973000,-532
32-24,18976906,100
32-25,18980812,1200
32-26,18984718,2610
32-27,18988624,3571
32-28,18992530,3304
32-29,18996436,1704
32-30,19000342,-746
32-31,19004248,-2455
32-32,19008154,-2380
32-1,19012065,-617
32-2,19015971,1657
32-3,19019877,2741
32-4,19023783,1972
32-5,19027689,243
32-6,19031595,-1206
32-7,19035501,-1541
32-8,19039407,-406
32-9,19043313,1468
32-10,19047219,2816
32-11,19051125,2743
32-12,19055031,1638
32-13,19058937,590
32-14,19062843,381
32-15,19066749,1166
32-16,19070655,2552
32-17,19074561,3905
32-18,19078467,4239
32-19,19082373,3403
32-20,19086279,1866
32-21,19090185,415
32-22,19094091,15
32-23,19097997,718
32-24,19101903,2194
32-25,19105809,3696
32-26,19109715,4070
32-27,19113621,3173
32-28,19117527,1628
32-29,19121433,210
32-30,19125339,-108
32-31,19129245,609
32-32,19133151,1945
32-1,19137063,3410
32-2,19140969,3893
32-3,19144875,3009
32-4,19148781,996
32-5,19152687,-1235
32-6,19156593,-2098
32-7,19160499,-795
32-8,19164405,1608
32-9,19168311,3236
32-10,19172217,3057
32-11,19176123,1737
32-12,19180029,780
32-13,19183935,794
32-14,19187841,1596
32-15,19191747,2876
32-16,19195653,3976
32-17,19199559,4127
32-18,19203465,3213
32-19,19207371,1538
32-20,19211277,8
32-21,19215183,-407
32-22,19219089,477
32-23,19222995,2128
32-24,19226901,3285
32-25,19230807,3092
32-26,19234713,1903
32-27,19238619,464
32-28,19242525,-282
32-29,19246431,223
32-30,19250337,1421
32-31,19254243,2938
32-32,19258149,4015
32-1,19262061,3819
32-2,19265967,2355
32-3,19269873,35
32-4,19273779,-1873
32-5,19277685,-2148
32-6,19281591,-624
32-7,19285497,1471
32-8,19289403,2522
32-9,19293309,1904
32-10,19297215,513
32-11,19301121,-330
32-12,19305027,-136
32-13,19308933,983
32-14,19312839,2552
32-15,19316745,3556
32-16,19320651,3230
32-17,19324557,1943
32-18,19328463,429
32-19,19332369,-368
32-20,19336275,-10
32-21,19340181,1116
32-22,19344087,2350
32-23,19347993,2762
32-24,19351899,2033
32-25,19355805,685
32-26,19359711,-679
32-27,19363617,-1249
32-28,19367523,-768
32-29,19371429,191
32-30,19375335,1450
32-31,19379241,2381
32-32,19383147,2225
32-1,19387211,778
32-2,19391117,-1587
32-3,19395023,-3389
32-4,19398929,-3153
32-5,19402835,-940
32-6,19406741,1520
32-7,19410647,2471
32-8,19414553,1570
32-9,19418459,157
32-10,19422365,-466
32-11,19426271,-162
32-12,19430177,921
32-13,19434083,2332
32-14,19437989,3097
32-15,19441895,2767
32-16,19445801,1521
32-17,19449707,-59
32-18,19453613,-912
32-19,19457519,-510
32-20,19461425,970
32-21,19465331,2592
32-22,19469237,3028
32-23,19473143,2051
32-24,19477049,486
32-25,19480955,-702
32-26,19484861,-601
32-27,19488767,441
32-28,19492673,1513
32-29,19496579,2396
32-30,19500485,2598
32-31,19504391,1784
32-32,19508297,-190
32-1,19512148,-2761
32-2,19516054,-4250
32-3,19519960,-3378
32-4,19523866,-777
32-5,19527772,1432
32-6,19531678,1728
32-7,19535584,400
32-8,19539490,-793
32-9,19543396,-809
32-10,19547302,36
32-11,19551208,1253
32-12,19555114,2199
32-13,19559020,2251
32-14,19562926,1546
32-15,19566832,454
32-16,19570738,-509
32-17,19574644,-735
32-18,19578550,-170
32-19,19582456,931
32-20,19586362,1868
32-21,19590268,1797
32-22,19594174,778
32-23,19598080,-576
32-24,19601986,-1379
32-25,19605892,-854
32-26,19609798,370
32-27,19613704,1658
32-28,19617610,2630
32-29,19621516,2578
32-30,19625422,1328
32-31,19629328,-1043
32-32,19633234,-3483
32-1,19637054,-4369
32-2,19640960,-2976
32-3,19644866,-398
32-4,19648772,1325
32-5,19652678,1157
32-6,19656584,-165
32-7,19660490,-1067
32-8,19664396,-963
32-9,19668302,-39
32-10,19672208,1352
32-11,19676114,2398
32-12,19680020,2358
32-13,19683926,1370
32-14,19687832,-56
32-15,19691738,-1068
32-16,19695644,-937
32-17,19699550,150
32-18,19703456,1583
32-19,19707362,2314
32-20,19711268,1660
32-21,19715174,139
32-22,19719080,-1453
32-23,19722986,-2180
32-24,19726892,-1651
32-25,19730798,-520
32-26,19734704,927
32-27,19738610,1962
32-28,19742516,1730
32-29,19746422,208
32-30,19750328,-2117
32-31,19754234,-3833
32-32,19758140,-3795
32-1,19762051,-1977
32-2,19765957,429
32-3,19769863,1635
32-4,19773769,946
32-5,19777675,-766
32-6,19781581,-2236
32-7,19785487,-2571
32-8,19789393,-1335
32-9,19793299,760
32-10,19797205,2282
32-11,19801111,2307
32-12,19805017,1198
32-13,19808923,-29
32-14,19812829,-592
32-15,19816735,-235
32-16,19820641,818
32-17,19824547,1947
32-18,19828453,2178
32-19,19832359,1399
32-20,19836265,121
32-21,19840171,-1049
32-22,19844077,-1367
32-23,19847983,-842
32-24,19851889,284
32-25,19855795,1560
32-26,19859701,2005
32-27,19863607,1335
32-28,19867513,-143
32-29,19871419,-1709
32-30,19875325,-2197
32-31,19879231,-1568
32-32,19883137,-282
32-1,19887049,1116
32-2,19890955,1607
32-3,19894861,873
32-4,19898767,-951
32-5,19902673,-3109
32-6,19906579,-4122
32-7,19910485,-3137
32-8,19914391,-926
32-9,19918297,789
32-10,19922203,829
32-11,19926109,-328
32-12,19930015,-1144
32-13,19933921,-893
32-14,19937827,146
32-15,19941733,1483
32-16,19945639,2393
32-17,19949545,2179
32-18,19953451,1010
32-19,19957357,-561
32-20,19961263,-1706
32-21,19965169,-1666
32-22,19969075,-469
32-23,19972981,1169
32-24,19976887,2126
32-25,19980793,1708
32-26,19984699,442
32-27,19988605,-791
32-28,19992511,-1381
32-29,19996417,-1015
32-30,20000323,-271
32-31,20004229,586
32-32,20008135,1333
32-1,20012046,1322
32-2,20015952,257
32-3,20019858,-1817
32-4,20023764,-3868
32-5,20027670,-4357
32-6,20031576,-2778
32-7,20035482,-482
32-8,20039388,790
32-9,20043294,417
32-10,20047200,-633
32-11,20051106,-1007
32-12,20055012,-756
32-13,20058918,-263
32-14,20062824,544
32-15,20066730,1275
32-16,20070636,1427
32-17,20074542,876
32-18,20078448,-296
32-19,20082354,-1173
32-20,20086260,-933
32-21,20090166,286
32-22,20094072,1696
32-23,20097978,2146
32-24,20101884,1278
32-25,20105790,-208
32-26,20109696,-1617
32-27,20113602,-2203
32-28,20117508,-1736
32-29,20121414,-734
32-30,20125320,577
32-31,20129226,1463
32-32,20133132,1249
32-1,20137044,-216
32-2,20140950,-2460
32-3,20144856,-4047
32-4,20148762,-3651
32-5,20152668,-1453
32-6,20156574,831
32-7,20160480,1708
32-8,20164386,1063
32-9,20168292,161
32-10,20172198,84
32-11,20176104,684
32-12,20180010,1436
32-13,20183916,2075
32-14,20187822,1996
32-15,20191728,1047
32-16,20195634,-417
32-17,20199540,-2016
32-18,20203446,-2753
32-19,20207352,-2163
32-20,20211258,-579
32-21,20215164,1102
32-22,20219070,1620
32-23,20222976,706
32-24,20226882,-781
32-25,20230788,-1949
32-26,20234694,-1985
32-27,20238600,-1052
32-28,20242506,139
32-29,20246412,1375
32-30,20250318,1961
32-31,20254224,1415
32-32,20258130,-319
32-1,20262164,-2695
32-2,20266070,-4225
32-3,20269976,-3663
32-4,20273882,-1389
32-5,20277788,874
32-6,20281694,1646
32-7,20285600,775
32-8,20289506,-435
32-9,20293412,-957
32-10,20297318,-580
32-11,20301224,675
32-12,20305130,2058
32-13,20309036,2488
32-14,20312942,1767
32-15,20316848,318
32-16,20320754,-977
32-17,20324660,-1212
32-18,20328566,-385
32-19,20332472,938
32-20,20336378,1753
32-21,20340284,1340
32-22,20344190,124
32-23,20348096,-1116
32-24,20352002,-1613
32-25,20355908,-1008
32-26,20359814,-52
32-27,20363720,832
32-28,20367626,1590
32-29,20371532,1622
32-30,20375438,632
32-31,20379344,-1378
32-32,20383250,-3491
32-1,20387039,-4138
32-2,20390945,-2696
32-3,20394851,-301
32-4,20398757,1129
32-5,20402663,725
32-6,20406569,-637
32-7,20410475,-1327
32-8,20414381,-895
32-9,20418287,315
32-10,20422193,1866
32-11,20426099,2845
32-12,20430005,2565
32-13,20433911,1292
32-14,20437817,-312
32-15,20441723,-1364
32-16,20445629,-1271
32-17,20449535,-204
32-18,20453441,1206
32-19,20457347,1902
32-20,20461253,1364
32-21,20465159,105
32-22,20469065,-1196
32-23,20472971,-1695
32-24,20476877,-1116
32-25,20480783,-72
32-26,20484689,1216
32-27,20488595,2006
32-28,20492501,1614
32-29,20496407,74
32-30,20500313,-2122
32-31,20504219,-3590
32-32,20508125,-3324
32-1,20512037,-1401
32-2,20515943,841
32-3,20519849,1746
32-4,20523755,896
32-5,20527661,-662
32-6,20531567,-1781
32-7,20535473,-1985
32-8,20539379,-1226
32-9,20543285,68
32-10,20547191,987
32-11,20551097,870
32-12,20555003,-58
32-13,20558909,-1341
32-14,20562815,-2237
32-15,20566721,-2134
32-16,20570627,-1014
32-17,20574533,572
32-18,20578439,1447
32-19,20582345,1108
32-20,20586251,-88
32-21,20590157,-1438
32-22,20594063,-1943
32-23,20597969,-1310
32-24,20601875,200
32-25,20605781,1843
32-26,20609687,2464
32-27,20613593,1797
32-28,20617499,246
32-29,20621405,-1354
32-30,20625311,-1898
32-31,20629217,-1390
32-32,20633123,-178
32-1,20637035,1204
32-2,20640941,1641
32-3,20644847,831
32-4,20648753,-1010
32-5,20652659,-2974
32-6,20656565,-3678
32-7,20660471,-2644
32-8,20664377,-762
32-9,20668283,449
32-10,20672189,246
32-11,20676095,-724
32-12,20680001,-1282
32-13,20683907,-1141
32-14,20687813,-510
32-15,20691719,514
32-16,20695625,1463
32-17,20699531,1655
32-18,20703437,1006
32-19,20707343,-195
32-20,20711249,-1241
32-21,20715155,-1343
32-22,20719061,-425
32-23,20722967,1080
32-24,20726873,2101
32-25,20730779,1835
32-26,20734685,722
32-27,20738591,-545
32-28,20742497,-1176
32-29,20746403,-756
32-30,20750309,95
32-31,20754215,1176
32-32,20758121,2098
32-1,20762032,2109
32-2,20765938,992
32-3,20769844,-1195
32-4,20773750,-3357
32-5,20777656,-4009
32-6,20781562,-2772
32-7,20785468,-721
32-8,20789374,575
32-9,20793280,293
32-10,20797186,-815
32-11,20801092,-1517
32-12,20804998,-1465
32-13,20808904,-631
32-14,20812810,780
32-15,20816716,1907
32-16,20820622,2041
32-17,20824528,1204
32-18,20828434,-265
32-19,20832340,-1401
32-20,20836246,-1440
32-21,20840152,-367
32-22,20844058,1318
32-23,20847964,2327
32-24,20851870,1877
32-25,20855776,402
32-26,20859682,-1317
32-27,20863588,-2224
32-28,20867494,-1900
32-29,20871400,-830
32-30,20875306,694
32-31,20879212,1795
32-32,20883118,1657
32-1,20887030,238
32-2,20890936,-1876
32-3,20894842,-3392
32-4,20898748,-3164
32-5,20902654,-1290
32-6,20906560,655
32-7,20910466,1231
32-8,20914372,351
32-9,20918278,-835
32-10,20922184,-1228
32-11,20926090,-632
32-12,20929996,740
32-13,20933902,2415
32-14,20937808,3269
32-15,20941714,2781
32-16,20945620,1324
32-17,20949526,-374
32-18,20953432,-1252
32-19,20957338,-895
32-20,20961244,322
32-21,20965150,1488
32-22,20969056,1696
32-23,20972962,968
32-24,20976868,-12
32-25,20980774,-756
32-26,20984680,-692
32-27,20988586,-7
32-28,20992492,868
32-29,20996398,1927
32-30,21000304,2475
32-31,21004210,1959
32-32,21008116,88
32-1,21012150,-2572
32-2,21016056,-4360
32-3,21019962,-3964
32-4,21023868,-1878
32-5,21027774,56
32-6,21031680,532
32-7,21035586,-361
32-8,21039492,-1246
32-9,21043398,-1247
32-10,21047304,-544
32-11,21051210,720
32-12,21055116,2105
32-13,21059022,2644
32-14,21062928,2010
32-15,21066834,431
32-16,21070740,-1200
32-17,21074646,-1657
32-18,21078552,-740
32-19,21082458,946
32-20,21086364,2229
32-21,21090270,2121
32-22,21094176,831
32-23,21098082,-679
32-24,21101988,-1483
32-25,21105894,-1061
32-26,21109800,8
32-27,21113706,1198
32-28,21117612,2260
32-29,21121518,2493
32-30,21125424,1544
32-31,21129330,-693
32-32,21133236,-3325
32-1,21137025,-4654
32-2,21140931,-3708
32-3,21144837,-1356
32-4,21148743,517
32-5,21152649,828
32-6,21156555,1
32-7,21160461,-614
32-8,21164367,-508
32-9,21168273,88
32-10,21172179,1148
32-11,21176085,2170
32-12,21179991,2312
32-13,21183897,1449
32-14,21187803,-217
32-15,21191709,-1790
32-16,21195615,-2198
32-17,21199521,-1306
32-18,21203427,327
32-19,21207333,1445
32-20,21211239,1096
32-21,21215145,-280
32-22,21219051,-1739
32-23,21222957,-2306
32-24,21226863,-1605
32-25,21230769,-283
32-26,21234675,1293
32-27,21238581,2261
32-28,21242487,1890
32-29,21246393,327
32-30,21250299,-1941
32-31,21254205,-3450
32-32,21258111,-3194
32-1,21262023,-1291
32-2,21265929,1201
32-3,21269835,2479
32-4,21273741,1747
32-5,21277647,-181
32-6,21281553,-2086
32-7,21285459,-2852
32-8,21289365,-1864
32-9,21293271,257
32-10,21297177,2008
32-11,21301083,2172
32-12,21304989,934
32-13,21308895,-661
32-14,21312801,-1650
32-15,21316707,-1573
32-16,21320613,-461
32-17,21324519,1150
32-18,21328425,2044
32-19,21332331,1698
32-20,21336237,424
32-21,21340143,-1089
32-22,21344049,-1766
32-23,21347955,-1382
32-24,21351861,-158
32-25,21355767,1365
32-26,21359673,1940
32-27,21363579,1199
32-28,21367485,-475
32-29,21371391,-2239
32-30,21375297,-2714
32-31,21379203,-1814
32-32,21383109,-199
32-1,21387020,1508
32-2,21390926,2154
32-3,21394832,1366
32-4,21398738,-635
32-5,21402644,-3107
32-6,21406550,-4403
32-7,21410456,-3373
32-8,21414362,-718
32-9,21418268,1519
32-10,21422174,1841
32-11,21426080,519
32-12,21429986,-843
32-13,21433892,-1302
32-14,21437798,-873
32-15,21441704,323
32-16,21445610,1705
32-17,21449516,2266
32-18,21453422,1718
32-19,21457328,304
32-20,21461234,-1171
32-21,21465140,-1623
32-22,21469046,-887
32-23,21472952,673
32-24,21476858,1944
32-25,21480764,1856
32-26,21484670,666
32-27,21488576,-915
32-28,21492482,-1960
32-29,21496388,-1729
32-30,21500294,-676
32-31,21504200,762
32-32,21508106,2101
32-1,21512012,-293
32-2,21515918,-132
32-3,21519824,11
32-4,21523730,33
32-5,21527636,259
32-6,21531542,544
32-7,21535448,741
32-8,21539354,702
32-9,21543260,405
32-10,21547166,27
32-11,21551072,-315
32-12,21554978,-344
32-13,21558884,-143
32-14,21562790,33
32-15,21566696,151
32-16,21570602,99
32-17,21574508,-73
32-18,21578414,-270
32-19,21582320,-337
32-20,21586226,-83
32-21,21590132,256
32-22,21594038,416
32-23,21597944,384
32-24,21601850,41
32-25,21605756,-406
32-26,21609662,-465
32-27,21613568,-4
32-28,21617474,711
32-29,21621380,1040
32-30,21625286,719
32-31,21629192,31
32-32,21633098,-509
32-1,21637004,-611
32-2,21640910,-392
32-3,21644816,-54
32-4,21648722,152
32-5,21652628,281
32-6,21656534,338
32-7,21660440,195
32-8,21664346,18
32-9,21668252,-88
32-10,21672158,-40
32-11,21676064,259
32-12,21679970,535
32-13,21683876,600
32-14,21687782,466
32-15,21691688,138
32-16,21695594,-186
32-17,21699500,-458
32-18,21703406,-568
32-19,21707312,-392
32-20,21711218,-162
32-21,21715124,12
32-22,21719030,22
32-23,21722936,-142
32-24,21726842,-388
32-25,21730748,-746
32-26,21734654,-689
32-27,21738560,109
32-28,21742466,1076
32-29,21746372,1483
32-30,21750278,792
32-31,21754184,-625
32-32,21758090,-1738
32-1,21761996,4782
32-2,21765902,4497
32-3,21769808,4348
32-4,21773714,4507
32-5,21777620,4750
32-6,21781526,4773
32-7,21785432,4422
32-8,21789338,3877
32-9,21793244,3479
32-10,21797150,3426
32-11,21801056,3660
32-12,21804962,3894
32-13,21808868,3889
32-14,21812774,3649
32-15,21816680,3311
32-16,21820586,3121
32-17,21824492,3233
32-18,21828398,3467
32-19,21832304,3535
32-20,21836210,3301
32-21,21840116,2846
32-22,21844022,2420
32-23,21847928,2206
32-24,21851834,2211
32-25,21855740,2404
32-26,21859646,2603
32-27,21863552,2646
32-28,21867458,2559
32-29,21871364,2380
32-30,21875270,2215
32-31,21879176,2271
32-32,21883082,2486
32-1,21886988,2674
32-2,21890894,2690
32-3,21894800,2463
32-4,21898706,2243
32-5,21902612,2203
32-6,21906518,2329
32-7,21910424,2503
32-8,21914330,2508
32-9,21918236,2386
32-10,21922142,2334
32-11,21926048,2390
32-12,21929954,2466
32-13,21933860,2440
32-14,21937766,2233
32-15,21941672,1976
32-16,21945578,1823
32-17,21949484,1810
32-18,21953390,1799
32-19,21957296,1623
32-20,21961202,1387
32-21,21965108,1341
32-22,21969014,1601
32-23,21972920,1907
32-24,21976826,2140
32-25,21980732,2244
32-26,21984638,2071
32-27,21988544,1704
32-28,21992450,1227
32-29,21996356,873
32-30,22000262,920
32-31,22004168,1334
32-32,22008074,1721
32-1,22011980,1702
32-2,22015886,1291
32-3,22019792,992
32-4,22023698,1127
32-5,22027604,1496
32-6,22031510,1906
32-7,22035416,2081
32-8,22039322,1896
32-9,22043228,1491
32-10,22047134,1121
32-11,22051040,973
32-12,22054946,891
32-13,22058852,751
32-14,22062758,572
32-15,22066664,458
32-16,22070570,541
32-17,22074476,704
32-18,22078382,738
32-19,22082288,586
32-20,22086194,400
32-21,22090100,415
32-22,22094006,510
32-23,22097912,696
32-24,22101818,1054
32-25,22105724,1037
32-26,22109630,177
32-27,22113536,-1482
32-28,22117442,-3090
32-29,22121348,-3612
32-30,22125254,-2893
32-31,22129160,-1254
32-32,22133066,409
32-1,22136972,935
32-2,22140878,115
32-3,22144784,-1477
32-4,22148690,-2888
32-5,22152596,-3048
32-6,22156502,-1951
32-7,22160408,-302
32-8,22164314,1035
32-9,22168220,995
32-10,22172126,-433
32-11,22176032,-2657
32-12,22179938,-4688
32-13,22183844,-5191
32-14,22187750,-3852
32-15,22191656,-1350
32-16,22195562,759
32-17,22199468,964
32-18,22203374,-799
32-19,22207280,-3251
32-20,22211186,-4901
32-21,22215092,-4783
32-22,22218998,-2781
32-23,22222904,52
32-24,22226810,1916
32-25,22230716,1578
32-26,22234622,-574
32-27,22238528,-3045
32-28,22242434,-4302
32-29,22246340,-3493
32-30,22250246,-1290
32-31,22254152,806
32-32,22258058,1769
32-1,22261964,900
32-2,22265870,-1707
32-3,22269776,-4983
32-4,22273682,-7263
32-5,22277588,-6821
32-6,22281494,-3588
32-7,22285400,26
32-8,22289306,1612
32-9,22293212,668
32-10,22297118,-1451
32-11,22301024,-2482
32-12,22304930,-1669
32-13,22308836,253
32-14,22312742,2343
32-15,22316648,3315
32-16,22320554,2337
32-17,22324460,-103
32-18,22328366,-2839
32-19,22332272,-4298
32-20,22336178,-3515
32-21,22340084,-1012
32-22,22343990,1560
32-23,22347896,2355
32-24,22351802,918
32-25,22355708,-1527
32-26,22359614,-3315
32-27,22363520,-3561
32-28,22367426,-2185
32-29,22371332,-129
32-30,22375238,1556
32-31,22379144,2199
32-32,22383050,1136
32-1,22386956,-1424
32-2,22390862,-4464
32-3,22394768,-6298
32-4,22398674,-5464
32-5,22402580,-2360
32-6,22406486,668
32-7,22410392,1642
32-8,22414298,321
32-9,22418204,-1760
32-10,22422110,-2563
32-11,22426016,-1692
32-12,22429922,349
32-13,22433828,2512
32-14,22437734,3273
32-15,22441640,2170
32-16,22445546,-44
32-17,22449452,-2099
32-18,22453358,-2713
32-19,22457264,-1493
32-20,22461170,872
32-21,22465076,2881
32-22,22468982,3076
32-23,22472888,1350
32-24,22476794,-1044
32-25,22480700,-2626
32-26,22484606,-2424
32-27,22488512,-538
32-28,22492418,1598
32-29,22496324,2855
32-30,22500230,2651
32-31,22504136,747
32-32,22508042,-2226
33-1,22511948,-5130
33-2,22515854,-6412
33-3,22519760,-4824
33-4,22523666,-1300
33-5,22527572,1432
33-6,22531478,1870
33-7,22535384,207
33-8,22539290,-1712
33-9,22543196,-2059
33-10,22547102,-863
33-11,22551008,1363
33-12,22554914,3418
33-13,22558820,3780
33-14,22562726,2329
33-15,22566632,-46
33-16,22570538,-1985
33-17,22574444,-2170
33-18,22578350,-563
33-19,22582256,1833
33-20,22586162,3479
33-21,22590068,3216
33-22,22593974,1323
33-23,22597880,-972
33-24,22601786,-2323
33-25,22605692,-1726
33-26,22609598,384
33-27,22613504,2510
33-28,22617410,3573
33-29,22621316,2796
33-30,22625222,328
33-31,22629128,-2868
33-32,22633034,-5439
33-33,22636940,-5832
32-1,22640846,-3604
32-2,22644752,-402
32-3,22648658,1522
32-4,22652564,1240
32-5,22656470,-570
32-6,22660376,-1880
32-7,22664282,-1614
32-8,22668188,-1
32-9,22672094,2313
32-10,22676000,3819
32-11,22679906,3353
32-12,22683812,1287
32-13,22687718,-1148
32-14,22691624,-2496
32-15,22695530,-1998
32-16,22699436,-47
32-17,22703342,2374
32-18,22707248,3751
32-19,22711154,3221
32-20,22715060,1315
32-21,22718966,-754
32-22,22722872,-1636
32-23,22726778,-641
32-24,22730684,1474
32-25,22734590,3558
32-26,22738496,4535
32-27,22742402,3502
32-28,22746308,793
32-29,22750214,-2515
32-30,22754120,-4588
32-31,22758026,-3875
32-32,22761932,-941
32-1,22765838,2161
32-2,22769744,3263
32-3,22773650,1583
32-4,22777556,-1602
32-5,22781462,-4179
32-6,22785368,-4729
32-7,22789274,-2695
32-8,22793180,702
32-9,22797086,2927
32-10,22800992,2664
32-11,22804898,566
32-12,22808804,-1386
32-13,22812710,-1761
32-14,22816616,-486
32-15,22820522,1802
32-16,22824428,3884
32-17,22828334,4430
32-18,22832240,3199
32-19,22836146,975
32-20,22840052,-1009
32-21,22843958,-1465
32-22,22847864,-209
32-23,22851770,1883
32-24,22855676,3505
32-25,22859582,3464
32-26,22863488,1699
32-27,22867394,-750
32-28,22871300,-2595
32-29,22875206,-2588
32-30,22879112,-682
32-31,22883018,1706
32-32,22886924,3323
32-1,22890830,3154
32-2,22894736,1017
32-3,22898642,-2161
32-4,22902548,-4996
32-5,22906454,-5792
32-6,22910360,-3653
32-7,22914266,28
32-8,22918172,2577
32-9,22922078,2602
32-10,22925984,654
32-11,22929890,-1127
32-12,22933796,-1236
32-13,22937702,222
32-14,22941608,2522
32-15,22945514,4160
32-16,22949420,3904
32-17,22953326,1999
32-18,22957232,-390
32-19,22961138,-1850
32-20,22965044,-1408
32-21,22968950,526
32-22,22972856,2711
32-23,22976762,3736
32-24,22980668,2744
32-25,22984574,373
32-26,22988480,-2063
32-27,22992386,-3407
32-28,22996292,-2891
32-29,23000198,-1006
32-30,23004104,1122
32-31,23008010,2667
32-32,23011916,2688
32-1,23015822,882
32-2,23019728,-2056
32-3,23023634,-4639
32-4,23027540,-4953
32-5,23031446,-2488
32-6,23035352,680
32-7,23039258,2041
32-8,23043164,933
32-9,23047070,-1272
32-10,23050976,-2337
32-11,23054882,-1537
32-12,23058788,419
32-13,23062694,2576
32-14,23066600,3735
32-15,23070506,3114
32-16,23074412,1080
32-17,23078318,-1375
32-18,23082224,-2900
32-19,23086130,-2484
32-20,23090036,-241
32-21,23093942,2442
32-22,23097848,3682
32-23,23101754,2891
32-24,23105660,920
32-25,23109566,-759
32-26,23113472,-1114
32-27,23117378,161
32-28,23121284,2142
32-29,23125190,3528
32-30,23129096,3932
32-31,23133002,2917
32-32,23136908,90
32-1,23140814,-4277
32-2,23144720,-8712
32-3,23148626,-10942
32-4,23152532,-10137
32-5,23156438,-8190
32-6,23160344,-7374
32-7,23164250,-8442
32-8,23168156,-10122
32-9,23172062,-10120
32-10,23175968,-8209
32-11,23179874,-5460
32-12,23183780,-2882
32-13,23187686,-1838
32-14,23191592,-2740
32-15,23195498,-4958
32-16,23199404,-7234
32-17,23203310,-7828
32-18,23207216,-6131
32-19,23211122,-2991
32-20,23215028,-342
32-21,23218934,45
32-22,23222840,-1757
32-23,23226746,-4118
32-24,23230652,-5405
32-25,23234558,-4792
32-26,23238464,-2553
32-27,23242370,-58
32-28,23246276,1679
32-29,23250182,1958
32-30,23254088,446
32-31,23257994,-2320
32-32,23261900,-5213
32-1,23265806,-6450
32-2,23269712,-4795
32-3,23273618,-1437
32-4,23277524,1010
32-5,23281430,1206
32-6,23285336,-342
32-7,23289242,-1594
32-8,23293148,-1145
32-9,23297054,522
32-10,23300960,2615
32-11,23304866,4204
32-12,23308772,4268
32-13,23312678,2845
32-14,23316584,610
32-15,23320490,-1411
32-16,23324396,-1959
32-17,23328302,-712
32-18,23332208,1648
32-19,23336114,3563
32-20,23340020,3692
32-21,23343926,2148
32-22,23347832,134
32-23,23351738,-1077
32-24,23355644,-545
32-25,23359550,1516
32-26,23363456,3605
32-27,23367362,4886
32-28,23371268,4890
32-29,23375174,3071
32-30,23379080,-560
32-31,23382986,-5070
32-32,23386892,-8264
32-1,23390798,-8291
32-2,23394704,-5972
32-3,23398610,-3967
32-4,23402516,-4003
32-5,23406422,-5904
32-6,23410328,-7435
32-7,23414234,-6971
32-8,23418140,-4941
32-9,23422046,-2191
32-10,23425952,-194
32-11,23429858,-62
32-12,23433764,-1420
32-13,23437670,-3253
32-14,23441576,-4289
32-15,23445482,-3653
32-16,23449388,-1571
32-17,23453294,949
32-18,23457200,2412
32-19,23461106,1921
32-20,23465012,82
32-21,23468918,-1794
32-22,23472824,-2395
32-23,23476730,-1084
32-24,23480636,1257
32-25,23484542,3359
32-26,23488448,4298
32-27,23492354,3412
32-28,23496260,1047
32-29,23500166,-1869
32-30,23504072,-3731
32-31,23507978,-3042
32-32,23511884,-13
32-1,23515790,3475
32-2,23519696,5066
32-3,23523602,3815
32-4,23527508,1019
32-5,23531414,-1087
32-6,23535320,-1228
32-7,23539226,797
32-8,23543132,3766
32-9,23547038,5552
32-10,23550944,5099
32-11,23554850,2999
32-12,23558756,950
32-13,23562662,217
32-14,23566568,1070
32-15,23570474,3082
32-16,23574380,5029
32-17,23578286,5594
32-18,23582192,4480
32-19,23586098,2502
32-20,23590004,798
32-21,23593910,495
32-22,23597816,1928
32-23,23601722,4310
32-24,23605628,6300
32-25,23609534,6586
32-26,23613440,4949
32-27,23617346,2317
32-28,23621252,115
32-29,23625158,-259
32-30,23629064,1471
32-31,23632970,3994
32-32,23636876,5892
32-1,23640782,6031
32-2,23644688,4059
32-3,23648594,977
32-4,23652500,-1728
32-5,23656406,-2429
32-6,23660312,-367
32-7,23664218,3014
32-8,23668124,5183
32-9,23672030,4951
32-10,23675936,2959
32-11,23679842,1253
32-12,23683748,1158
32-13,23687654,2498
32-14,23691560,4721
32-15,23695466,6488
32-16,23699372,6555
32-17,23703278,4942
32-18,23707184,2533
32-19,23711090,717
32-20,23714996,597
32-21,23718902,2196
32-22,23722808,4554
32-23,23726714,6004
32-24,23730620,5445
32-25,23734526,3396
32-26,23738432,1146
32-27,23742338,-10
32-28,23746244,709
32-29,23750150,2666
32-30,23754056,4576
32-31,23757962,5530
32-32,23761868,4736
32-1,23765774,2303
32-2,23769680,-753
32-3,23773586,-2991
32-4,23777492,-2847
32-5,23781398,-190
32-6,23785304,2940
32-7,23789210,4341
32-8,23793116,3356
32-9,23797022,1171
32-10,23800928,55
32-11,23804834,726
32-12,23808740,2606
32-13,23812646,4863
32-14,23816552,6059
32-15,23820458,5514
32-16,23824364,3728
32-17,23828270,1546
32-18,23832176,175
32-19,23836082,441
32-20,23839988,2222
32-21,23843894,4463
32-22,23847800,5422
32-23,23851706,4411
32-24,23855612,2247
32-25,23859518,208
32-26,23863424,-526
32-27,23867330,547
32-28,23871236,2581
32-29,23875142,4434
32-30,23879048,5193
32-31,23882954,4094
32-32,23886860,1365
32-1,23890766,-1920
32-2,23894672,-3904
32-3,23898578,-3211
32-4,23902484,-389
32-5,23906390,2650
32-6,23910296,4457
32-7,23914202,4815
32-8,23918108,4530
32-9,23922014,4450
32-10,23925920,4474
32-11,23929826,4593
32-12,23933732,4631
32-13,23937638,4255
32-14,23941544,3437
32-15,23945450,1608
32-16,23949356,-1408
32-17,23953262,-4694
32-18,23957168,-6583
32-19,23961074,-5537
32-20,23964980,-2404
32-21,23968886,337
32-22,23972792,993
32-23,23976698,-172
32-24,23980604,-1280
32-25,23984510,-819
32-26,23988416,967
32-27,23992322,2678
32-28,23996228,3604
32-29,24000134,3573
32-30,24004040,2167
32-31,24007946,-766
32-32,24011852,-4406
32-1,24015758,-6888
32-2,24019664,-6868
32-3,24023570,-4930
32-4,24027476,-2859
32-5,24031382,-1688
32-6,24035288,-1367
32-7,24039194,-1005
32-8,24043100,-168
32-9,24047006,610
32-10,24050912,1260
32-11,24054818,1614
32-12,24058724,1720
32-13,24062630,1100
32-14,24066536,-1221
32-15,24070442,-4782
32-16,24074348,-8226
32-17,24078254,-9511
32-18,24082160,-7609
32-19,24086066,-4307
32-20,24089972,-2054
32-21,24093878,-2053
32-22,24097784,-3490
32-23,24101690,-4110
32-24,24105596,-2971
32-25,24109502,-984
32-26,24113408,557
32-27,24117314,1139
32-28,24121220,697
32-29,24125126,-1065
32-30,24129032,-4121
32-31,24132938,-7432
32-32,24136844,-9242
32-1,24140750,-8344
32-2,24144656,-5698
32-3,24148562,-3842
32-4,24152468,-4180
32-5,24156374,-6220
32-6,24160280,-7691
32-7,24164186,-7131
32-8,24168092,-4964
32-9,24171998,-2079
32-10,24175904,-160
32-11,24179810,-338
32-12,24183716,-2117
32-13,24187622,-4241
32-14,24191528,-5345
32-15,24195434,-4624
32-16,24199340,-2318
32-17,24203246,459
32-18,24207152,2039
32-19,24211058,1494
32-20,24214964,-528
32-21,24218870,-2532
32-22,24222776,-3141
32-23,24226682,-1833
32-24,24230588,437
32-25,24234494,2417
32-26,24238400,3334
32-27,24242306,2512
32-28,24246212,175
32-29,24250118,-2708
32-30,24254024,-4404
32-31,24257930,-3429
32-32,24261836,-149
32-1,24265742,3316
32-2,24269648,4562
32-3,24273554,2960
32-4,24277460,-30
32-5,24281366,-2154
32-6,24285272,-2260
32-7,24289178,-295
32-8,24293084,2635
32-9,24296990,4472
32-10,24300896,4122
32-11,24304802,2115
32-12,24308708,158
32-13,24312614,-384
32-14,24316520,778
32-15,24320426,3026
32-16,24324332,4976
32-17,24328238,5342
32-18,24332144,3993
32-19,24336050,1912
32-20,24339956,276
32-21,24343862,97
32-22,24347768,1540
32-23,24351674,3843
32-24,24355580,5778
32-25,24359486,5976
32-26,24363392,4275
32-27,24367298,1592
32-28,24371204,-632
32-29,24375110,-1020
32-30,24379016,742
32-31,24382922,3517
32-32,24386828,5195
32-1,24390734,4646
32-2,24394640,2570
32-3,24398546,747
32-4,24402452,394
32-5,24406358,1663
32-6,24410264,3683
32-7,24414170,5054
32-8,24418076,5316
32-9,24421982,4350
32-10,24425888,2064
32-11,24429794,-1060
32-12,24433700,-3741
32-13,24437606,-4253
32-14,24441512,-1910
32-15,24445418,1505
32-16,24449324,3487
32-17,24453230,3082
32-18,24457136,1059
32-19,24461042,-297
32-20,24464948,152
32-21,24468854,1897
32-22,24472760,4157
32-23,24476666,5447
32-24,24480572,4902
32-25,24484478,3014
32-26,24488384,890
32-27,24492290,-194
32-28,24496196,503
32-29,24500102,2464
32-30,24504008,4455
32-31,24507914,5581
32-32,24511820,5029
32-1,24515726,2625
32-2,24519632,-693
32-3,24523538,-3365
32-4,24527444,-3631
32-5,24531350,-1169
32-6,24535256,1940
32-7,24539162,3602
32-8,24543068,3262
32-9,24546974,1878
32-10,24550880,1271
32-11,24554786,1979
32-12,24558692,3432
32-13,24562598,4940
32-14,24566504,5749
32-15,24570410,5200
32-16,24574316,3059
32-17,24578222,-196
32-18,24582128,-3016
32-19,24586034,-3694
32-20,24589940,-1626
32-21,24593846,1790
32-22,24597752,3936
32-23,24601658,3639
32-24,24605564,1582
32-25,24609470,-245
32-26,24613376,-444
32-27,24617282,904
32-28,24621188,2864
32-29,24625094,4345
32-30,24629000,4585
32-31,24632906,3058
32-32,24636812,170
32-1,24640718,-2902
32-2,24644624,-4503
32-3,24648530,-3433
32-4,24652436,-279
32-5,24656342,2679
32-6,24660248,3570
32-7,24664154,2214
32-8,24668060,168
32-9,24671966,-668
32-10,24675872,-36
32-11,24679778,1565
32-12,24683684,3342
32-13,24687590,4038
32-14,24691496,3052
32-15,24695402,870
32-16,24699308,-1428
32-17,24703214,-2438
32-18,24707120,-1439
32-19,24711026,1020
32-20,24714932,3293
32-21,24718838,3740
32-22,24722744,2193
32-23,24726650,-153
32-24,24730556,-1786
32-25,24734462,-1717
32-26,24738368,44
32-27,24742274,2251
32-28,24746180,3760
32-29,24750086,3829
32-30,24753992,2119
32-31,24757898,-774
32-32,24761804,-3688
32-1,24765710,-5060
32-2,24769616,-3760
32-3,24773522,-615
32-4,24777428,1926
32-5,24781334,2322
32-6,24785240,752
32-7,24789146,-946
32-8,24793052,-1170
32-9,24796958,-38
32-10,24800864,1901
32-11,24804770,3515
32-12,24808676,3590
32-13,24812582,2132
32-14,24816488,-47
32-15,24820394,-1834
32-16,24824300,-2175
32-17,24828206,-832
32-18,24832112,1535
32-19,24836018,3389
32-20,24839924,3486
32-21,24843830,1931
32-22,24847736,-257
32-23,24851642,-1681
32-24,24855548,-1392
32-25,24859454,236
32-26,24863360,1861
32-27,24867266,2785
32-28,24871172,2567
32-29,24875078,760
32-30,24878984,-2695
32-31,24882890,-7027
32-32,24886796,-10190
32-1,24890702,-10442
32-2,24894608,-8514
32-3,24898514,-6868
32-4,24902420,-7065
32-5,24906326,-8829
32-6,24910232,-10007
32-7,24914138,-9226
32-8,24918044,-7049
32-9,24921950,-4377
32-10,24925856,-2635
32-11,24929762,-2880
32-12,24933668,-4633
32-13,24937574,-6761
32-14,24941480,-8033
32-15,24945386,-7527
32-16,24949292,-5283
32-17,24953198,-2403
32-18,24957104,-605
32-19,24961010,-810
32-20,24964916,-2424
32-21,24968822,-4023
32-22,24972728,-4445
32-23,24976634,-3238
32-24,24980540,-1238
32-25,24984446,390
32-26,24988352,1062
32-27,24992258,290
32-28,24996164,-1867
32-29,25000070,-4746
32-30,25003976,-6756
32-31,25007882,-6371
32-32,25011788,-3687
32-1,25015694,-364
32-2,25019600,1452
32-3,25023506,685
32-4,25027412,-1794
32-5,25031318,-3860
32-6,25035224,-4108
32-7,25039130,-2175
32-8,25043036,1024
32-9,25046942,3368
32-10,25050848,3405
32-11,25054754,1477
32-12,25058660,-650
32-13,25062566,-1474
32-14,25066472,-621
32-15,25070378,1392
32-16,25074284,3236
32-17,25078190,3620
32-18,25082096,2381
32-19,25086002,409
32-20,25089908,-1202
32-21,25093814,-1499
32-22,25097720,-111
32-23,25101626,2377
32-24,25105532,4562
32-25,25109438,4871
32-26,25113344,3084
32-27,25117250,370
32-28,25121156,-1784
32-29,25125062,-2089
32-30,25128968,-471
32-31,25132874,1859
32-32,25136780,3784
32-1,25140686,4291
32-2,25144592,2763
32-3,25148498,-179
32-4,25152404,-3163
32-5,25156310,-4275
32-6,25160216,-2371
32-7,25164122,1029
32-8,25168028,3246
32-9,25171934,3018
32-10,25175840,1074
32-11,25179746,-405
32-12,25183652,-117
32-13,25187558,1471
32-14,25191464,3499
32-15,25195370,4929
32-16,25199276,4811
32-17,25203182,3264
32-18,25207088,951
32-19,25210994,-1000
32-20,25214900,-1323
32-21,25218806,178
32-22,25222712,2558
32-23,25226618,4146
32-24,25230524,3755
32-25,25234430,1665
32-26,25238336,-741
32-27,25242242,-2149
32-28,25246148,-1652
32-29,25250054,446
32-30,25253960,2734
32-31,25257866,4185
32-32,25261772,3904
32-1,25265678,1732
32-2,25269584,-1414
32-3,25273490,-4046
32-4,25277396,-4456
32-5,25281302,-2071
32-6,25285208,1365
32-7,25289114,3349
32-8,25293020,2913
32-9,25296926,879
32-10,25300832,-564
32-11,25304738,-246
32-12,25308644,1350
32-13,25312550,3397
32-14,25316456,4593
32-15,25320362,4083
32-16,25324268,2280
32-17,25328174,148
32-18,25332080,-1208
32-19,25335986,-939
32-20,25339892,817
32-21,25343798,3034
32-22,25347704,4257
32-23,25351610,3597
32-24,25355516,1541
32-25,25359422,-590
32-26,25363328,-1581
32-27,25367234,-767
32-28,25371140,1176
32-29,25375046,2981
32-30,25378952,4013
32-31,25382858,3587
32-32,25386764,1381
32-1,25390670,-2167
32-2,25394576,-5604
32-3,25398482,-6808
32-4,25402388,-5058
32-5,25406294,-2343
32-6,25410200,-1186
32-7,25414106,-2337
32-8,25418012,-4447
32-9,25421918,-5082
32-10,25425824,-3677
32-11,25429730,-1283
32-12,25433636,833
32-13,25437542,1358
32-14,25441448,84
32-15,25445354,-2096
32-16,25449260,-4061
32-17,25453166,-4687
32-18,25457072,-3513
32-19,25460978,-1147
32-20,25464884,1115
32-21,25468790,1839
32-22,25472696,635
32-23,25476602,-1457
32-24,25480508,-3140
32-25,25484414,-3428
32-26,25488320,-2117
32-27,25492226,-332
32-28,25496132,1090
32-29,25500038,1773
32-30,25503944,1073
32-31,25507850,-1271
32-32,25511756,-4905
32-1,25515662,-520
32-2,25519568,-501
32-3,25523474,-424
32-4,25527380,-366
32-5,25531286,-400
32-6,25535192,-536
32-7,25539098,-658
32-8,25543004,-688
32-9,25546910,-610
32-10,25550816,-499
32-11,25554722,-513
32-12,25558628,-610
32-13,25562534,-652
32-14,25566440,-554
32-15,25570346,-283
32-16,25574252,-18
32-17,25578158,87
32-18,25582064,52
32-19,25585970,-115
32-20,25589876,-269
32-21,25593782,-327
32-22,25597688,-288
32-23,25601594,-96
32-24,25605500,105
32-25,25609406,151
32-26,25613312,9
32-27,25617218,-287
32-28,25621124,-573
32-29,25625030,-691
32-30,25628936,-644
32-31,25632842,-530
32-32,25636748,-479
32-1,25640654,-564
32-2,25644560,-783
32-3,25648466,-1003
32-4,25652372,-1034
32-5,25656278,-785
32-6,25660184,-354
32-7,25664090,58
32-8,25667996,307
32-9,25671902,367
32-10,25675808,324
32-11,25679714,220
32-12,25683620,97
32-13,25687526,48
32-14,25691432,77
32-15,25695338,-34
32-16,25699244,-413
32-17,25703150,-891
32-18,25707056,-1200
32-19,25710962,-1181
32-20,25714868,-1017
32-21,25718774,-908
32-22,25722680,-854
32-23,25726586,-773
32-24,25730492,-597
32-25,25734398,-353
32-26,25738304,-200
32-27,25742210,-243
32-28,25746116,-398
32-29,25750022,-585
32-30,25753928,-693
32-31,25757834,-666
32-32,25761740,-522
32-1,25765646,-252
32-2,25769552,-9
32-3,25773458,69
32-4,25777364,-13
32-5,25781270,-238
32-6,25785176,-545
32-7,25789082,-758
32-8,25792988,-795
32-9,25796894,-654
32-10,25800800,-397
32-11,25804706,-120
32-12,25808612,162
32-13,25812518,352
32-14,25816424,396
32-15,25820330,358
32-16,25824236,288
32-17,25828142,227
32-18,25832048,123
32-19,25835954,-109
32-20,25839860,-405
32-21,25843766,-626
32-22,25847672,-724
32-23,25851578,-716
32-24,25855484,-633
32-25,25859390,-525
32-26,25863296,-453
32-27,25867202,-495
32-28,25871108,-436
32-29,25875014,-276
32-30,25878920,-593
32-31,25882826,-1840
32-32,25886732,-3852
32-1,25890638,-5518
32-2,25894544,-5639
32-3,25898450,-4155
32-4,25902356,-2077
32-5,25906262,-584
32-6,25910168,-111
32-7,25914074,-171
32-8,25917980,-233
32-9,25921886,-311
32-10,25925792,-358
32-11,25929698,-236
32-12,25933604,228
32-13,25937510,728
32-14,25941416,245
32-15,25945322,-1609
32-16,25949228,-4055
32-17,25953134,-5708
32-18,25957040,-5659
32-19,25960946,-3910
32-20,25964852,-1674
32-21,25968758,-552
32-22,25972664,-1146
32-23,25976570,-2830
32-24,25980476,-4255
32-25,25984382,-4478
32-26,25988288,-3319
32-27,25992194,-1541
32-28,25996100,-140
32-29,26000006,47
32-30,26003912,-1250
32-31,26007818,-3535
32-32,26011724,-5914
32-1,26015630,-6900
32-2,26019536,-5582
32-3,26023442,-2649
32-4,26027348,-173
32-5,26031254,312
32-6,26035160,-1097
32-7,26039066,-2844
32-8,26042972,-3333
32-9,26046878,-2357
32-10,26050784,-342
32-11,26054690,1718
32-12,26058596,2483
32-13,26062502,1528
32-14,26066408,-461
32-15,26070314,-2273
32-16,26074220,-2766
32-17,26078126,-1806
32-18,26082032,-82
32-19,26085938,1305
32-20,26089844,1348
32-21,26093750,50
32-22,26097656,-1700
32-23,26101562,-2886
32-24,26105468,-2615
32-25,26109374,-890
32-26,26113280,1128
32-27,26117186,2508
32-28,26121092,2457
32-29,26124998,662
32-30,26128904,-2274
32-31,26132810,-5168
32-32,26136716,-6434
32-1,26140622,-5117
32-2,26144528,-2186
32-3,26148434,139
32-4,26152340,573
32-5,26156246,-712
32-6,26160152,-2058
32-7,26164058,-2244
32-8,26167964,-1333
32-9,26171870,358
32-10,26175776,1834
32-11,26179682,2076
32-12,26183588,982
32-13,26187494,-832
32-14,26191400,-2321
32-15,26195306,-2520
32-16,26199212,-1179
32-17,26203118,1104
32-18,26207024,2870
32-19,26210930,2902
32-20,26214836,1290
32-21,26218742,-921
32-22,26222648,-2263
32-23,26226554,-1805
32-24,26230460,41
32-25,26234366,2120
32-26,26238272,3157
32-27,26242178,2399
32-28,26246084,257
32-29,26249990,-2194
32-30,26253896,-3637
32-31,26257802,-3022
32-32,26261708,-750
32-1,26265614,1774
32-2,26269520,3148
32-3,26273426,2300
32-4,26277332,-441
32-5,26281238,-3568
32-6,26285144,-5395
32-7,26289050,-4678
32-8,26292956,-1808
32-9,26296862,950
32-10,26300768,1738
32-11,26304674,470
32-12,26308580,-1368
32-13,26312486,-1949
32-14,26316392,-982
32-15,26320298,903
32-16,26324204,2759
32-17,26328110,3432
32-18,26332016,2522
32-19,26335922,631
32-20,26339828,-1157
32-21,26343734,-1839
32-22,26347640,-1115
32-23,26351546,569
32-24,26355452,2251
32-25,26359358,2815
32-26,26363264,1911
32-27,26367170,91
32-28,26371076,-1595
32-29,26374982,-2038
32-30,26378888,-835
32-31,26382794,1246
32-32,26386700,3063
32-1,26390606,3588
32-2,26394512,2220
32-3,26398418,-665
32-4,26402324,-3791
32-5,26406230,-5368
32-6,26410136,-4200
32-7,26414042,-1054
32-8,26417948,1555
32-9,26421854,2020
32-10,26425760,570
32-11,26429666,-1090
32-12,26433572,-1329
32-13,26437478,-239
32-14,26441384,1572
32-15,26445290,3190
32-16,26449196,3503
32-17,26453102,2378
32-18,26457008,529
32-19,26460914,-1027
32-20,26464820,-1336
32-21,26468726,-275
32-22,26472632,1536
32-23,26476538,2952
32-24,26480444,2958
32-25,26484350,1654
32-26,26488256,-143
32-27,26492162,-1459
32-28,26496068,-1486
32-29,26499974,-223
32-30,26503880,1444
32-31,26507786,2739
32-32,26511692,3010
32-1,26515598,1703
32-2,26519504,-1011
32-3,26523410,-4044
32-4,26527316,-5446
32-5,26531222,-3982
32-6,26535128,-861
32-7,26539034,1404
32-8,26542940,1524
32-9,26546846,55
32-10,26550752,-1119
32-11,26554658,-854
32-12,26558564,352
32-13,26562470,1974
32-14,26566376,3237
32-15,26570282,3266
32-16,26574188,1968
32-17,26578094,-101
32-18,26582000,-1680
32-19,26585906,-1676
32-20,26589812,5
32-21,26593718,2244
32-22,26597624,3355
32-23,26601530,2600
32-24,26605436,722
32-25,26609342,-942
32-26,26613248,-1539
32-27,26617154,-779
32-28,26621060,680
32-29,26624966,1848
32-30,26628872,2231
32-31,26632778,1450
32-32,26636684,-540
32-1,26640590,-3189
32-2,26644496,-5255
32-3,26648402,-5192
32-4,26652308,-2647
32-5,26656214,510
32-6,26660120,2278
32-7,26664026,1979
32-8,26667932,361
32-9,26671838,-741
32-10,26675744,-524
32-11,26679650,852
32-12,26683556,2880
32-13,26687462,4241
32-14,26691368,3900
32-15,26695274,2003
32-16,26699180,-539
32-17,26703086,-2194
32-18,26706992,-1894
32-19,26710898,120
32-20,26714804,2548
32-21,26718710,3634
32-22,26722616,2646
32-23,26726522,356
32-24,26730428,-1662
32-25,26734334,-2084
32-26,26738240,-759
32-27,26742146,1213
32-28,26746052,2740
32-29,26749958,3195
32-30,26753864,2223
32-31,26757770,49
32-32,26761676,-2595
32-1,26765582,-4271
32-2,26769488,-3657
32-3,26773394,-1057
32-4,26777300,1517
32-5,26781206,2382
32-6,26785112,1414
32-7,26789018,42
32-8,26792924,-267
32-9,26796830,444
32-10,26800736,1682
32-11,26804642,2857
32-12,26808548,3160
32-13,26812454,2348
32-14,26816360,643
32-15,26820266,-1361
32-16,26824172,-2521
32-17,26828078,-2061
32-18,26831984,-122
32-19,26835890,2041
32-20,26839796,2787
32-21,26843702,1654
32-22,26847608,-378
32-23,26851514,-1928
32-24,26855420,-1941
32-25,26859326,-391
32-26,26863232,1648
32-27,26867138,3180
32-28,26871044,3259
32-29,26874950,1547
32-30,26878856,-1308
32-31,26882762,-4079
32-32,26886668,-5151
32-1,26890574,-3632
32-2,26894480,-489
32-3,26898386,2042
32-4,26902292,2427
32-5,26906198,737
32-6,26910104,-1267
32-7,26914010,-1958
32-8,26917916,-965
32-9,26921822,1290
32-10,26925728,3348
32-11,26929634,3804
32-12,26933540,2517
32-13,26937446,356
32-14,26941352,-1371
32-15,26945258,-1580
32-16,26949164,-95
32-17,26953070,2262
32-18,26956976,3886
32-19,26960882,3638
32-20,26964788,1822
32-21,26968694,-390
32-22,26972600,-1727
32-23,26976506,-1431
32-24,26980412,141
32-25,26984318,2058
32-26,26988224,3221
32-27,26992130,2660
32-28,26996036,595
32-29,26999942,-1936
32-30,27003848,-3507
32-31,27007754,-2999
32-32,27011660,-862
32-1,27015566,1569
32-2,27019472,3046
32-3,27023378,2534
32-4,27027284,214
32-5,27031190,-2611
32-6,27035096,-4460
32-7,27039002,-3948
32-8,27042908,-1190
32-9,27046814,1662
32-10,27050720,2705
32-11,27054626,1645
32-12,27058532,-233
32-13,27062438,-1183
32-14,27066344,-797
32-15,27070250,613
32-16,27074156,2341
32-17,27078062,3141
32-18,27081968,2475
32-19,27085874,789
32-20,27089780,-1021
32-21,27093686,-1794
32-22,27097592,-1037
32-23,27101498,776
32-24,27105404,2534
32-25,27109310,2982
32-26,27113216,1818
32-27,27117122,-255
32-28,27121028,-2241
32-29,27124934,-2994
32-30,27128840,-1970
32-31,27132746,148
32-32,27136652,2316
32-1,27140558,3233
32-2,27144464,2139
32-3,27148370,-470
32-4,27152276,-3286
32-5,27156182,-4652
32-6,27160088,-3584
32-7,27163994,-912
32-8,27167900,1205
32-9,27171806,1423
32-10,27175712,-61
32-11,27179618,-1620
32-12,27183524,-1839
32-13,27187430,-677
32-14,27191336,1310
32-15,27195242,3000
32-16,27199148,3210
32-17,27203054,1903
32-18,27206960,0
32-19,27210866,-1373
32-20,27214772,-1411
32-21,27218678,-267
32-22,27222584,1351
32-23,27226490,2425
32-24,27230396,2257
32-25,27234302,1087
32-26,27238208,-434
32-27,27242114,-1535
32-28,27246020,-1465
32-29,27249926,-236
32-30,27253832,1359
32-31,27257738,2553
32-32,27261644,2520
32-1,27265550,983
32-2,27269456,-1609
32-3,27273362,-4138
32-4,27277268,-5065
32-5,27281174,-3667
32-6,27285080,-984
32-7,27288986,957
32-8,27292892,1096
32-9,27296798,-107
32-10,27300704,-980
32-11,27304610,-507
32-12,27308516,1008
32-13,27312422,2898
32-14,27316328,3963
32-15,27320234,3323
32-16,27324140,1496
32-17,27328046,-425
32-18,27331952,-1427
32-19,27335858,-940
32-20,27339764,730
32-21,27343670,2724
32-22,27347576,3780
32-23,27351482,3140
32-24,27355388,1261
32-25,27359294,-688
32-26,27363200,-1563
32-27,27367106,-714
32-28,27371012,1192
32-29,27374918,2878
32-30,27378824,3539
32-31,27382730,2654
32-32,27386636,367
32-1,27390542,-2583
32-2,27394448,-4804
32-3,27398354,-4870
32-4,27402260,-2606
32-5,27406166,224
32-6,27410072,1528
32-7,27413978,753
32-8,27417884,-972
32-9,27421790,-1834
32-10,27425696,-1300
32-11,27429602,231
32-12,27433508,2078
32-13,27437414,3137
32-14,27441320,2735
32-15,27445226,1118
32-16,27449132,-868
32-17,27453038,-1998
32-18,27456944,-1468
32-19,27460850,506
32-20,27464756,2755
32-21,27468662,3683
32-22,27472568,2784
32-23,27476474,826
32-24,27480380,-1013
32-25,27484286,-1659
32-26,27488192,-771
32-27,27492098,893
32-28,27496004,2421
32-29,27499910,3026
32-30,27503816,2032
32-31,27507722,-360
32-32,27511628,-3224
32-1,27515534,-4960
32-2,27519440,-4161
32-3,27523346,-1209
32-4,27527252,1693
32-5,27531158,2675
32-6,27535064,1544
32-7,27538970,-195
32-8,27542876,-842
32-9,27546782,-252
32-10,27550688,1049
32-11,27554594,2370
32-12,27558500,2753
32-13,27562406,1866
32-14,27566312,90
32-15,27570218,-1783
32-16,27574124,-2528
32-17,27578030,-1551
32-18,27581936,629
32-19,27585842,2419
32-20,27589748,2405
32-21,27593654,806
32-22,27597560,-1100
32-23,27601466,-2121
32-24,27605372,-1720
32-25,27609278,-146
32-26,27613184,1542
32-27,27617090,2682
32-28,27620996,2932
32-29,27624902,1672
32-30,27628808,-1316
32-31,27632714,-5389
32-32,27636620,-8728
32-1,27640526,-9479
32-2,27644432,-7805
32-3,27648338,-5759
32-4,27652244,-5069
32-5,27656150,-6014
32-6,27660056,-7102
32-7,27663962,-6739
32-8,27667868,-5143
32-9,27671774,-3029
32-10,27675680,-1333
32-11,27679586,-1104
32-12,27683492,-2348
32-13,27687398,-4370
32-14,27691304,-5990
32-15,27695210,-6048
32-16,27699116,-4366
32-17,27703022,-1871
32-18,27706928,-162
32-19,27710834,-282
32-20,27714740,-1891
32-21,27718646,-3749
32-22,27722552,-4593
32-23,27726458,-3764
32-24,27730364,-1659
32-25,27734270,727
32-26,27738176,2192
32-27,27742082,1835
32-28,27745988,-54
32-29,27749894,-2491
32-30,27753800,-4162
32-31,27757706,-3942
32-32,27761612,-2026
32-1,27765518,455
32-2,27769424,2101
32-3,27773330,1685
32-4,27777236,-590
32-5,27781142,-3355
32-6,27785048,-5064
32-7,27788954,-4442
32-8,27792860,-1757
32-9,27796766,939
32-10,27800672,2030
32-11,27804578,1384
32-12,27808484,164
32-13,27812390,-167
32-14,27816296,681
32-15,27820202,2328
32-16,27824108,4104
32-17,27828014,4890
32-18,27831920,4052
32-19,27835826,1985
32-20,27839732,-387
32-21,27843638,-1765
32-22,27847544,-1349
32-23,27851450,554
32-24,27855356,2782
32-25,27859262,3893
32-26,27863168,3230
32-27,27867074,1316
32-28,27870980,-697
32-29,27874886,-1522
32-30,27878792,-466
32-31,27882698,1724
32-32,27886604,3786
32-1,27890510,4449
32-2,27894416,3030
32-3,27898322,209
32-4,27902228,-2579
32-5,27906134,-3783
32-6,27910040,-2542
32-7,27913946,303
32-8,27917852,2633
32-9,27921758,3122
32-10,27925664,1874
32-11,27929570,370
32-12,27933476,60
32-13,27937382,977
32-14,27941288,2674
32-15,27945194,4201
32-16,27949100,4347
32-17,27953006,3073
32-18,27956912,1222
32-19,27960818,-196
32-20,27964724,-201
32-21,27968630,1280
32-22,27972536,3485
32-23,27976442,5088
32-24,27980348,5027
32-25,27984254,3464
32-26,27988160,1335
32-27,27992066,-332
32-28,27995972,-711
32-29,27999878,234
32-30,28003784,1774
32-31,28007690,3226
32-32,28011596,3648
32-1,28015502,2405
32-2,28019408,-175
32-3,28023314,-2727
32-4,28027220,-3499
32-5,28031126,-1777
32-6,28035032,1135
32-7,28038938,2883
32-8,28042844,2566
32-9,28046750,988
32-10,28050656,-94
32-11,28054562,247
32-12,28058468,1548
32-13,28062374,3246
32-14,28066280,4457
32-15,28070186,4290
32-16,28074092,2781
32-17,28077998,677
32-18,28081904,-898
32-19,28085810,-957
32-20,28089716,541
32-21,28093622,2687
32-22,28097528,4028
32-23,28101434,3623
32-24,28105340,1857
32-25,28109246,-95
32-26,28113152,-1077
32-27,28117058,-526
32-28,28120964,979
32-29,28124870,2426
32-30,28128776,3150
32-31,28132682,2598
32-32,28136588,726
32-1,28140494,-1910
32-2,28144400,-4071
32-3,28148306,-4270
32-4,28152212,-2156
32-5,28156118,626
32-6,28160024,2073
32-7,28163930,1539
32-8,28167836,-110
32-9,28171742,-1115
32-10,28175648,-807
32-11,28179554,596
32-12,28183460,2558
32-13,28187366,3802
32-14,28191272,3513
32-15,28195178,1976
32-16,28199084,64
32-17,28202990,-943
32-18,28206896,-398
32-19,28210802,1306
32-20,28214708,3102
32-21,28218614,3624
32-22,28222520,2522
32-23,28226426,613
32-24,28230332,-964
32-25,28234238,-1217
32-26,28238144,54
32-27,28242050,1871
32-28,28245956,3292
32-29,28249862,3598
32-30,28253768,2340
32-31,28257674,-106
32-32,28261580,-2824
32-1,28265486,-4299
32-2,28269392,-3444
32-3,28273298,-678
32-4,28277204,1954
32-5,28281110,2683
32-6,28285016,1412
32-7,28288922,-331
32-8,28292828,-855
32-9,28296734,-49
32-10,28300640,1521
32-11,28304546,2963
32-12,28308452,3285
32-13,28312358,2248
32-14,28316264,433
32-15,28320170,-1232
32-16,28324076,-1850
32-17,28327982,-1033
32-18,28331888,876
32-19,28335794,2736
32-20,28339700,3172
32-21,28343606,1952
32-22,28347512,18
32-23,28351418,-1352
32-24,28355324,-1198
32-25,28359230,372
32-26,28363136,2216
32-27,28367042,3361
32-28,28370948,3221
32-29,28374854,1561
32-30,28378760,-1258
32-31,28382666,-4250
32-32,28386572,-5834
32-1,28390478,-4823
32-2,28394384,-1950
32-3,28398290,539
32-4,28402196,1200
32-5,28406102,108
32-6,28410008,-1186
32-7,28413914,-1296
32-8,28417820,-248
32-9,28421726,1482
32-10,28425632,2934
32-11,28429538,3040
32-12,28433444,1740
32-13,28437350,-186
32-14,28441256,-1727
32-15,28445162,-2001
32-16,28449068,-984
32-17,28452974,697
32-18,28456880,2048
32-19,28460786,2117
32-20,28464692,924
