32-1,4383925,-48
32-2,4387831,-37
32-3,4391737,-26
32-4,4395643,-27
32-5,4399549,-7
32-6,4403455,20
32-7,4407361,14
32-8,4411267,-6
32-9,4415173,13
32-10,4419079,50
32-11,4422985,52
32-12,4426891,32
32-13,4430797,16
32-14,4434703,12
32-15,4438609,15
32-16,4442515,18
32-17,4446421,20
32-18,4450327,30
32-19,4454233,38
32-20,4458139,18
32-21,4462045,-1
32-22,4465951,-1
32-23,4469857,-2
32-24,4473763,-28
32-25,4477669,-47
32-26,4481575,-37
32-27,4485481,-49
32-28,4489387,-50
32-29,4493293,-5
32-30,4497199,-20
32-31,4501105,-66
32-32,4505011,-53
32-1,4508922,-34
32-2,4512828,-19
32-3,4516734,0
32-4,4520640,-7
32-5,4524546,-25
32-6,4528452,-35
32-7,4532358,-24
32-8,4536264,-25
32-9,4540170,-51
32-10,4544076,-46
32-11,4547982,-32
32-12,4551888,-40
32-13,4555794,-36
32-14,4559700,-10
32-15,4563606,7
32-16,4567512,-4
32-17,4571418,-19
32-18,4575324,-28
32-19,4579230,-35
32-20,4583136,-38
32-21,4587042,-36
32-22,4590948,-35
32-23,4594854,-40
32-24,4598760,-65
32-25,4602666,-67
32-26,4606572,-35
32-27,4610478,-47
32-28,4614384,-71
32-29,4618290,-57
32-30,4622196,-75
32-31,4626102,-106
32-32,4630008,-99
32-1,4633950,-104
32-2,4637856,-115
32-3,4641762,-112
32-4,4645668,-98
32-5,4649574,-72
32-6,4653480,-60
32-7,4657386,-63
32-8,4661292,-43
32-9,4665198,-17
32-10,4669104,-23
32-11,4673010,-49
32-12,4676916,-65
32-13,4680822,-49
32-14,4684728,-29
32-15,4688634,-44
32-16,4692540,-70
32-17,4696446,-77
32-18,4700352,-73
32-19,4704258,-77
32-20,4708164,-79
32-21,4712070,-45
32-22,4715976,5
32-23,4719882,18
32-24,4723788,4
32-25,4727694,1
32-26,4731600,2
32-27,4735506,-29
32-28,4739412,-49
32-29,4743318,-25
32-30,4747224,-30
32-31,4751130,-71
32-32,4755036,-82
32-1,4758917,-91
32-2,4762823,-99
32-3,4766729,-68
32-4,4770635,-33
32-5,4774541,-19
32-6,4778447,-7
32-7,4782353,3
32-8,4786259,5
32-9,4790165,1
32-10,4794071,-1
32-11,4797977,23
32-12,4801883,46
32-13,4805789,24
32-14,4809695,-16
32-15,4813601,-38
32-16,4817507,-43
32-17,4821413,-41
32-18,4825319,-27
32-19,4829225,9
32-20,4833131,37
32-21,4837037,28
32-22,4840943,16
32-23,4844849,17
32-24,4848755,9
32-25,4852661,8
32-26,4856567,25
32-27,4860473,28
32-28,4864379,48
32-29,4868285,78
32-30,4872191,40
32-31,4876097,-2
32-32,4880003,13
32-1,4883915,24
32-2,4887821,37
32-3,4891727,45
32-4,4895633,12
32-5,4899539,-22
32-6,4903445,-21
32-7,4907351,-13
32-8,4911257,-26
32-9,4915163,-35
32-10,4919069,-41
32-11,4922975,-55
32-12,4926881,-58
32-13,4930787,-67
32-14,4934693,-70
32-15,4938599,-61
32-16,4942505,-62
32-17,4946411,-50
32-18,4950317,-30
32-19,4954223,-43
32-20,4958129,-61
32-21,4962035,-53
32-22,4965941,-40
32-23,4969847,-34
32-24,4973753,-30
32-25,4977659,-23
32-26,4981565,-11
32-27,4985471,-30
32-28,4989377,-53
32-29,4993283,-13
32-30,4997189,-6
32-31,5001095,-67
32-32,5005001,-80
32-1,5008913,-72
32-2,5012819,-87
32-3,5016725,-82
32-4,5020631,-74
32-5,5024537,-75
32-6,5028443,-71
32-7,5032349,-73
32-8,5036255,-90
32-9,5040161,-93
32-10,5044067,-75
32-11,5047973,-68
32-12,5051879,-67
32-13,5055785,-49
32-14,5059691,-33
32-15,5063597,-14
32-16,5067503,7
32-17,5071409,6
32-18,5075315,-1
32-19,5079221,3
32-20,5083127,12
32-21,5087033,24
32-22,5090939,27
32-23,5094845,26
32-24,5098751,29
32-25,5102657,29
32-26,5106563,29
32-27,5110469,15
32-28,5114375,31
32-29,5118281,82
32-30,5122187,56
32-31,5126093,-5
32-32,5129999,-7
32-1,5133910,6
32-2,5137816,30
32-3,5141722,56
32-4,5145628,32
32-5,5149534,-11
32-6,5153440,-13
32-7,5157346,11
32-8,5161252,12
32-9,5165158,7
32-10,5169064,23
32-11,5172970,29
32-12,5176876,34
32-13,5180782,50
32-14,5184688,43
32-15,5188594,19
32-16,5192500,23
32-17,5196406,32
32-18,5200312,32
32-19,5204218,37
32-20,5208124,22
32-21,5212030,3
32-22,5215936,4
32-23,5219842,-3
32-24,5223748,-15
32-25,5227654,-4
32-26,5231560,-1
32-27,5235466,-12
32-28,5239372,25
32-29,5243278,71
32-30,5247184,34
32-31,5251090,1
32-32,5254996,19
32-1,5259000,16
32-2,5262906,1
32-3,5266812,-5
32-4,5270718,-22
32-5,5274624,-38
32-6,5278530,-42
32-7,5282436,-41
32-8,5286342,-34
32-9,5290248,-15
32-10,5294154,2
32-11,5298060,9
32-12,5301966,15
32-13,5305872,13
32-14,5309778,18
32-15,5313684,24
32-16,5317590,21
32-17,5321496,34
32-18,5325402,38
32-19,5329308,23
32-20,5333214,14
32-21,5337120,2
32-22,5341026,-1
32-23,5344932,17
32-24,5348838,18
32-25,5352744,21
32-26,5356650,30
32-27,5360556,13
32-28,5364462,17
32-29,5368368,34
32-30,5372274,-3
32-31,5376180,-36
32-32,5380086,-3
32-1,5383906,48
32-2,5387812,77
32-3,5391718,77
32-4,5395624,67
32-5,5399530,73
32-6,5403436,63
32-7,5407342,34
32-8,5411248,32
32-9,5415154,54
32-10,5419060,57
32-11,5422966,53
32-12,5426872,58
32-13,5430778,51
32-14,5434684,44
32-15,5438590,52
32-16,5442496,47
32-17,5446402,47
32-18,5450308,66
32-19,5454214,66
32-20,5458120,43
32-21,5462026,25
32-22,5465932,-6
32-23,5469838,-46
32-24,5473744,-41
32-25,5477650,-27
32-26,5481556,-36
32-27,5485462,-46
32-28,5489368,-30
32-29,5493274,20
32-30,5497180,9
32-31,5501086,-56
32-32,5504992,-57
32-1,5508903,-28
32-2,5512809,-29
32-3,5516715,-31
32-4,5520621,-7
32-5,5524527,-8
32-6,5528433,-41
32-7,5532339,-36
32-8,5536245,-26
32-9,5540151,-40
32-10,5544057,-30
32-11,5547963,-14
32-12,5551869,-23
32-13,5555775,-32
32-14,5559681,-35
32-15,5563587,-30
32-16,5567493,-4
32-17,5571399,7
32-18,5575305,-23
32-19,5579211,-51
32-20,5583117,-53
32-21,5587023,-63
32-22,5590929,-71
32-23,5594835,-39
32-24,5598741,-26
32-25,5602647,-66
32-26,5606553,-88
32-27,5610459,-99
32-28,5614365,-93
32-29,5618271,-61
32-30,5622177,-75
32-31,5626083,-91
32-32,5629989,-60
32-1,5633931,-37
32-2,5637837,-32
32-3,5641743,-33
32-4,5645649,-17
32-5,5649555,12
32-6,5653461,20
32-7,5657367,19
32-8,5661273,21
32-9,5665179,22
32-10,5669085,25
32-11,5672991,16
32-12,5676897,1
32-13,5680803,8
32-14,5684709,23
32-15,5688615,15
32-16,5692521,24
32-17,5696427,40
32-18,5700333,25
32-19,5704239,8
32-20,5708145,-7
32-21,5712051,-2
32-22,5715957,21
32-23,5719863,23
32-24,5723769,19
32-25,5727675,26
32-26,5731581,40
32-27,5735487,19
32-28,5739393,5
32-29,5743299,60
32-30,5747205,28
32-31,5751111,-78
32-32,5755017,-84
32-1,5758899,-52
32-2,5762805,-33
32-3,5766711,-6
32-4,5770617,9
32-5,5774523,24
32-6,5778429,44
32-7,5782335,53
32-8,5786241,48
32-9,5790147,39
32-10,5794053,25
32-11,5797959,9
32-12,5801865,6
32-13,5805771,2
32-14,5809677,-10
32-15,5813583,-12
32-16,5817489,-10
32-17,5821395,-12
32-18,5825301,-2
32-19,5829207,12
32-20,5833113,12
32-21,5837019,2
32-22,5840925,6
32-23,5844831,20
32-24,5848737,9
32-25,5852643,-9
32-26,5856549,7
32-27,5860455,-8
32-28,5864361,-22
32-29,5868267,20
32-30,5872173,-4
32-31,5876079,-74
32-32,5879985,-85
32-1,5884018,-86
32-2,5887924,-88
32-3,5891830,-62
32-4,5895736,-23
32-5,5899642,7
32-6,5903548,0
32-7,5907454,-29
32-8,5911360,-38
32-9,5915266,-32
32-10,5919172,-28
32-11,5923078,-15
32-12,5926984,-5
32-13,5930890,-11
32-14,5934796,-25
32-15,5938702,-36
32-16,5942608,-7
32-17,5946514,10
32-18,5950420,-11
32-19,5954326,-22
32-20,5958232,-48
32-21,5962138,-69
32-22,5966044,-46
32-23,5969950,-25
32-24,5973856,-13
32-25,5977762,6
32-26,5981668,16
32-27,5985574,-16
32-28,5989480,-38
32-29,5993386,7
32-30,5997292,34
32-31,6001198,21
32-32,6005104,13
32-1,6008894,-14
32-2,6012800,-20
32-3,6016706,4
32-4,6020612,-4
32-5,6024518,-16
32-6,6028424,-8
32-7,6032330,-22
32-8,6036236,-53
32-9,6040142,-75
32-10,6044048,-93
32-11,6047954,-103
32-12,6051860,-95
32-13,6055766,-100
32-14,6059672,-106
32-15,6063578,-96
32-16,6067484,-98
32-17,6071390,-115
32-18,6075296,-114
32-19,6079202,-85
32-20,6083108,-58
32-21,6087014,-43
32-22,6090920,-24
32-23,6094826,-21
32-24,6098732,-33
32-25,6102638,-29
32-26,6106544,-21
32-27,6110450,-45
32-28,6114356,-59
32-29,6118262,-46
32-30,6122168,-67
32-31,6126074,-83
32-32,6129980,-58
32-1,6133891,-46
32-2,6137797,-36
32-3,6141703,-24
32-4,6145609,-45
32-5,6149515,-78
32-6,6153421,-75
32-7,6157327,-65
32-8,6161233,-82
32-9,6165139,-91
32-10,6169045,-86
32-11,6172951,-65
32-12,6176857,-24
32-13,6180763,10
32-14,6184669,20
32-15,6188575,4
32-16,6192481,-9
32-17,6196387,-4
32-18,6200293,3
32-19,6204199,20
32-20,6208105,34
32-21,6212011,36
32-22,6215917,32
32-23,6219823,2
32-24,6223729,-39
32-25,6227635,-40
32-26,6231541,-35
32-27,6235447,-53
32-28,6239353,-5
32-29,6243259,65
32-30,6247165,36
32-31,6251071,-14
32-32,6254977,-25
32-1,6258889,-18
32-2,6262795,0
32-3,6266701,-23
32-4,6270607,-75
32-5,6274513,-93
32-6,6278419,-77
32-7,6282325,-54
32-8,6286231,-54
32-9,6290137,-70
32-10,6294043,-74
32-11,6297949,-69
32-12,6301855,-61
32-13,6305761,-37
32-14,6309667,-12
32-15,6313573,5
32-16,6317479,8
32-17,6321385,-5
32-18,6325291,-4
32-19,6329197,2
32-20,6333103,-17
32-21,6337009,-24
32-22,6340915,-8
32-23,6344821,-4
32-24,6348727,-17
32-25,6352633,-30
32-26,6356539,-25
32-27,6360445,-21
32-28,6364351,-5
32-29,6368257,32
32-30,6372163,20
32-31,6376069,-4
32-32,6379975,10
32-1,6383917,-10
32-2,6387823,-50
32-3,6391729,-43
32-4,6395635,-24
32-5,6399541,-36
32-6,6403447,-41
32-7,6407353,-8
32-8,6411259,7
32-9,6415165,-24
32-10,6419071,-54
32-11,6422977,-57
32-12,6426883,-48
32-13,6430789,-49
32-14,6434695,-42
32-15,6438601,-39
32-16,6442507,-61
32-17,6446413,-61
32-18,6450319,-48
32-19,6454225,-58
32-20,6458131,-73
32-21,6462037,-88
32-22,6465943,-91
32-23,6469849,-75
32-24,6473755,-73
32-25,6477661,-83
32-26,6481567,-72
32-27,6485473,-83
32-28,6489379,-90
32-29,6493285,-28
32-30,6497191,-34
32-31,6501097,-124
32-32,6505003,-139
32-1,6509006,-110
32-2,6512912,-87
32-3,6516818,-59
32-4,6520724,-49
32-5,6524630,-54
32-6,6528536,-51
32-7,6532442,-32
32-8,6536348,-29
32-9,6540254,-39
32-10,6544160,-18
32-11,6548066,6
32-12,6551972,11
32-13,6555878,23
32-14,6559784,40
32-15,6563690,29
32-16,6567596,11
32-17,6571502,12
32-18,6575408,12
32-19,6579314,3
32-20,6583220,7
32-21,6587126,22
32-22,6591032,15
32-23,6594938,5
32-24,6598844,8
32-25,6602750,-7
32-26,6606656,-10
32-27,6610562,-3
32-28,6614468,2
32-29,6618374,41
32-30,6622280,30
32-31,6626186,-28
32-32,6630092,-33
32-1,6633882,-32
32-2,6637788,-49
32-3,6641694,-39
32-4,6645600,-19
32-5,6649506,1
32-6,6653412,8
32-7,6657318,-8
32-8,6661224,-25
32-9,6665130,-16
32-10,6669036,-4
32-11,6672942,-8
32-12,6676848,-11
32-13,6680754,-34
32-14,6684660,-60
32-15,6688566,-60
32-16,6692472,-52
32-17,6696378,-48
32-18,6700284,-43
32-19,6704190,-25
32-20,6708096,-6
32-21,6712002,-7
32-22,6715908,-10
32-23,6719814,-25
32-24,6723720,-55
32-25,6727626,-55
32-26,6731532,-32
32-27,6735438,-46
32-28,6739344,-54
32-29,6743250,-24
32-30,6747156,-56
32-31,6751062,-116
32-32,6754968,-112
32-1,6758880,-109
32-2,6762786,-120
32-3,6766692,-108
32-4,6770598,-117
32-5,6774504,-134
32-6,6778410,-123
32-7,6782316,-92
32-8,6786222,-65
32-9,6790128,-60
32-10,6794034,-62
32-11,6797940,-60
32-12,6801846,-87
32-13,6805752,-110
32-14,6809658,-75
32-15,6813564,-46
32-16,6817470,-67
32-17,6821376,-58
32-18,6825282,-29
32-19,6829188,-25
32-20,6833094,-23
32-21,6837000,-24
32-22,6840906,-48
32-23,6844812,-77
32-24,6848718,-109
32-25,6852624,-121
32-26,6856530,-96
32-27,6860436,-78
32-28,6864342,-69
32-29,6868248,-56
32-30,6872154,-85
32-31,6876060,-108
32-32,6879966,-76
32-1,6883877,-65
32-2,6887783,-84
32-3,6891689,-81
32-4,6895595,-72
32-5,6899501,-66
32-6,6903407,-72
32-7,6907313,-86
32-8,6911219,-97
32-9,6915125,-108
32-10,6919031,-118
32-11,6922937,-134
32-12,6926843,-148
32-13,6930749,-140
32-14,6934655,-120
32-15,6938561,-116
32-16,6942467,-137
32-17,6946373,-141
32-18,6950279,-117
32-19,6954185,-129
32-20,6958091,-137
32-21,6961997,-89
32-22,6965903,-70
32-23,6969809,-94
32-24,6973715,-95
32-25,6977621,-84
32-26,6981527,-86
32-27,6985433,-92
32-28,6989339,-70
32-29,6993245,-35
32-30,6997151,-57
32-31,7001057,-88
32-32,7004963,-53
32-1,7008875,-22
32-2,7012781,-36
32-3,7016687,-44
32-4,7020593,-25
32-5,7024499,-9
32-6,7028405,-10
32-7,7032311,-9
32-8,7036217,-3
32-9,7040123,-5
32-10,7044029,-4
32-11,7047935,10
32-12,7051841,-4
32-13,7055747,-35
32-14,7059653,-32
32-15,7063559,-27
32-16,7067465,-45
32-17,7071371,-53
32-18,7075277,-53
32-19,7079183,-53
32-20,7083089,-47
32-21,7086995,-38
32-22,7090901,-54
32-23,7094807,-85
32-24,7098713,-91
32-25,7102619,-76
32-26,7106525,-65
32-27,7110431,-68
32-28,7114337,-43
32-29,7118243,1
32-30,7122149,-26
32-31,7126055,-61
32-32,7129961,-28
32-1,7134086,-14
32-2,7137992,-32
32-3,7141898,-44
32-4,7145804,-68
32-5,7149710,-74
32-6,7153616,-54
32-7,7157522,-60
32-8,7161428,-89
32-9,7165334,-101
32-10,7169240,-85
32-11,7173146,-62
32-12,7177052,-50
32-13,7180958,-53
32-14,7184864,-45
32-15,7188770,-28
32-16,7192676,-40
32-17,7196582,-44
32-18,7200488,-18
32-19,7204394,-31
32-20,7208300,-42
32-21,7212206,-4
32-22,7216112,-5
32-23,7220018,-35
32-24,7223924,-34
32-25,7227830,-45
32-26,7231736,-62
32-27,7235642,-69
32-28,7239548,-60
32-29,7243454,-11
32-30,7247360,-38
32-31,7251266,-121
32-32,7255172,-103
32-1,7258870,-73
32-2,7262776,-120
32-3,7266682,-144
32-4,7270588,-122
32-5,7274494,-101
32-6,7278400,-83
32-7,7282306,-64
32-8,7286212,-53
32-9,7290118,-50
32-10,7294024,-52
32-11,7297930,-61
32-12,7301836,-65
32-13,7305742,-54
32-14,7309648,-33
32-15,7313554,-19
32-16,7317460,-13
32-17,7321366,-15
32-18,7325272,-26
32-19,7329178,-16
32-20,7333084,-4
32-21,7336990,-20
32-22,7340896,-24
32-23,7344802,-23
32-24,7348708,-32
32-25,7352614,-13
32-26,7356520,3
32-27,7360426,-26
32-28,7364332,-16
32-29,7368238,35
32-30,7372144,5
32-31,7376050,-63
32-32,7379956,-58
32-1,7383868,-33
32-2,7387774,-29
32-3,7391680,-16
32-4,7395586,4
32-5,7399492,5
32-6,7403398,-13
32-7,7407304,-38
32-8,7411210,-51
32-9,7415116,-33
32-10,7419022,-1
32-11,7422928,6
32-12,7426834,-14
32-13,7430740,-30
32-14,7434646,-19
32-15,7438552,-5
32-16,7442458,5
32-17,7446364,4
32-18,7450270,-16
32-19,7454176,-5
32-20,7458082,9
32-21,7461988,-23
32-22,7465894,-35
32-23,7469800,-3
32-24,7473706,7
32-25,7477612,-3
32-26,7481518,-3
32-27,7485424,-2
32-28,7489330,21
32-29,7493236,34
32-30,7497142,-5
32-31,7501048,-17
32-32,7504954,28
32-1,7508865,52
32-2,7512771,39
32-3,7516677,28
32-4,7520583,44
32-5,7524489,53
32-6,7528395,28
32-7,7532301,3
32-8,7536207,-6
32-9,7540113,5
32-10,7544019,11
32-11,7547925,-12
32-12,7551831,-23
32-13,7555737,-21
32-14,7559643,-10
32-15,7563549,-1
32-16,7567455,-17
32-17,7571361,-28
32-18,7575267,-19
32-19,7579173,-11
32-20,7583079,0
32-21,7586985,-3
32-22,7590891,-18
32-23,7594797,-24
32-24,7598703,-36
32-25,7602609,-39
32-26,7606515,-37
32-27,7610421,-62
32-28,7614327,-48
32-29,7618233,5
32-30,7622139,-13
32-31,7626045,-59
32-32,7629951,-62
32-1,7633863,-60
32-2,7637769,-43
32-3,7641675,-22
32-4,7645581,-15
32-5,7649487,-1
32-6,7653393,-2
32-7,7657299,-20
32-8,7661205,-23
32-9,7665111,-31
32-10,7669017,-42
32-11,7672923,-37
32-12,7676829,-35
32-13,7680735,-34
32-14,7684641,-20
32-15,7688547,-27
32-16,7692453,-41
32-17,7696359,-28
32-18,7700265,-31
32-19,7704171,-60
32-20,7708077,-70
32-21,7711983,-59
32-22,7715889,-37
32-23,7719795,-20
32-24,7723701,-31
32-25,7727607,-41
32-26,7731513,-43
32-27,7735419,-63
32-28,7739325,-35
32-29,7743231,23
32-30,7747137,-10
32-31,7751043,-54
32-32,7754949,-31
32-1,7758861,-22
32-2,7762767,-34
32-3,7766673,-40
32-4,7770579,-51
32-5,7774485,-59
32-6,7778391,-60
32-7,7782297,-57
32-8,7786203,-48
32-9,7790109,-42
32-10,7794015,-61
32-11,7797921,-69
32-12,7801827,-49
32-13,7805733,-37
32-14,7809639,-6
32-15,7813545,16
32-16,7817451,-9
32-17,7821357,-23
32-18,7825263,-27
32-19,7829169,-30
32-20,7833075,-22
32-21,7836981,-39
32-22,7840887,-53
32-23,7844793,-30
32-24,7848699,-20
32-25,7852605,-41
32-26,7856511,-47
32-27,7860417,-44
32-28,7864323,-14
32-29,7868229,46
32-30,7872135,40
32-31,7876041,0
32-32,7879947,7
32-1,7883950,13
32-2,7887856,-1
32-3,7891762,-16
32-4,7895668,-31
32-5,7899574,-27
32-6,7903480,-17
32-7,7907386,-24
32-8,7911292,-38
32-9,7915198,-53
32-10,7919104,-62
32-11,7923010,-60
32-12,7926916,-49
32-13,7930822,-34
32-14,7934728,-41
32-15,7938634,-68
32-16,7942540,-69
32-17,7946446,-50
32-18,7950352,-33
32-19,7954258,-42
32-20,7958164,-78
32-21,7962070,-77
32-22,7965976,-54
32-23,7969882,-51
32-24,7973788,-36
32-25,7977694,-25
32-26,7981600,-21
32-27,7985506,-36
32-28,7989412,-45
32-29,7993318,5
32-30,7997224,-6
32-31,8001130,-79
32-32,8005036,-83
32-1,8008856,-79
32-2,8012762,-100
32-3,8016668,-83
32-4,8020574,-51
32-5,8024480,-52
32-6,8028386,-62
32-7,8032292,-56
32-8,8036198,-56
32-9,8040104,-71
32-10,8044010,-71
32-11,8047916,-57
32-12,8051822,-44
32-13,8055728,-54
32-14,8059634,-76
32-15,8063540,-88
32-16,8067446,-84
32-17,8071352,-74
32-18,8075258,-74
32-19,8079164,-75
32-20,8083070,-53
32-21,8086976,-32
32-22,8090882,-26
32-23,8094788,-22
32-24,8098694,-25
32-25,8102600,-30
32-26,8106506,-20
32-27,8110412,-22
32-28,8114318,-15
32-29,8118224,15
32-30,8122130,-1
32-31,8126036,-31
32-32,8129942,-17
32-1,8133854,-21
32-2,8137760,-41
32-3,8141666,-40
32-4,8145572,-29
32-5,8149478,-26
32-6,8153384,-32
32-7,8157290,-49
32-8,8161196,-81
32-9,8165102,-84
32-10,8169008,-70
32-11,8172914,-79
32-12,8176820,-77
32-13,8180726,-64
32-14,8184632,-68
32-15,8188538,-72
32-16,8192444,-64
32-17,8196350,-51
32-18,8200256,-39
32-19,8204162,-46
32-20,8208068,-56
32-21,8211974,-38
32-22,8215880,-17
32-23,8219786,-7
32-24,8223692,-14
32-25,8227598,-23
32-26,8231504,-11
32-27,8235410,-12
32-28,8239316,-9
32-29,8243222,23
32-30,8247128,16
32-31,8251034,-20
32-32,8254940,-31
32-1,8258851,-30
32-2,8262757,-51
32-3,8266663,-90
32-4,8270569,-68
32-5,8274475,-6
32-6,8278381,4
32-7,8282287,-18
32-8,8286193,-26
32-9,8290099,-8
32-10,8294005,28
32-11,8297911,40
32-12,8301817,34
32-13,8305723,18
32-14,8309629,-5
32-15,8313535,-13
32-16,8317441,-3
32-17,8321347,21
32-18,8325253,51
32-19,8329159,54
32-20,8333065,31
32-21,8336971,13
32-22,8340877,4
32-23,8344783,1
32-24,8348689,7
32-25,8352595,13
32-26,8356501,21
32-27,8360407,20
32-28,8364313,53
32-29,8368219,103
32-30,8372125,63
32-31,8376031,14
32-32,8379937,28
32-1,8383849,17
32-2,8387755,6
32-3,8391661,18
32-4,8395567,-4
32-5,8399473,-14
32-6,8403379,11
32-7,8407285,14
32-8,8411191,0
32-9,8415097,-3
32-10,8419003,3
32-11,8422909,13
32-12,8426815,7
32-13,8430721,2
32-14,8434627,17
32-15,8438533,0
32-16,8442439,-23
32-17,8446345,-6
32-18,8450251,10
32-19,8454157,6
32-20,8458063,5
32-21,8461969,14
32-22,8465875,22
32-23,8469781,17
32-24,8473687,4
32-25,8477593,1
32-26,8481499,12
32-27,8485405,14
32-28,8489311,40
32-29,8493217,74
32-30,8497123,36
32-31,8501029,12
32-32,8504935,46
32-1,8508846,35
32-2,8512752,23
32-3,8516658,46
32-4,8520564,58
32-5,8524470,70
32-6,8528376,62
32-7,8532282,35
32-8,8536188,31
32-9,8540094,29
32-10,8544000,23
32-11,8547906,17
32-12,8551812,11
32-13,8555718,-9
32-14,8559624,-39
32-15,8563530,-49
32-16,8567436,-55
32-17,8571342,-49
32-18,8575248,-24
32-19,8579154,-12
32-20,8583060,2
32-21,8586966,-14
32-22,8590872,-67
32-23,8594778,-69
32-24,8598684,-48
32-25,8602590,-48
32-26,8606496,-38
32-27,8610402,-35
32-28,8614308,-21
32-29,8618214,11
32-30,8622120,-6
32-31,8626026,-33
32-32,8629932,-33
32-1,8633966,-49
32-2,8637872,-47
32-3,8641778,1
32-4,8645684,42
32-5,8649590,39
32-6,8653496,0
32-7,8657402,-20
32-8,8661308,-11
32-9,8665214,-8
32-10,8669120,-11
32-11,8673026,-16
32-12,8676932,-15
32-13,8680838,-3
32-14,8684744,3
32-15,8688650,-4
32-16,8692556,-4
32-17,8696462,-1
32-18,8700368,-14
32-19,8704274,-11
32-20,8708180,1
32-21,8712086,16
32-22,8715992,27
32-23,8719898,3
32-24,8723804,-23
32-25,8727710,-16
32-26,8731616,-2
32-27,8735522,-27
32-28,8739428,-36
32-29,8743334,26
32-30,8747240,6
32-31,8751146,-75
32-32,8755052,-40
32-1,8758842,-5
32-2,8762748,-37
32-3,8766654,-44
32-4,8770560,-36
32-5,8774466,-24
32-6,8778372,3
32-7,8782278,26
32-8,8786184,22
32-9,8790090,-4
32-10,8793996,-12
32-11,8797902,-21
32-12,8801808,-40
32-13,8805714,-38
32-14,8809620,-31
32-15,8813526,-59
32-16,8817432,-78
32-17,8821338,-36
32-18,8825244,-4
32-19,8829150,-16
32-20,8833056,-31
32-21,8836962,-57
32-22,8840868,-80
32-23,8844774,-84
32-24,8848680,-94
32-25,8852586,-97
32-26,8856492,-87
32-27,8860398,-98
32-28,8864304,-79
32-29,8868210,-13
32-30,8872116,-13
32-31,8876022,-52
32-32,8879928,-56
32-1,8883839,-55
32-2,8887745,-57
32-3,8891651,-60
32-4,8895557,-43
32-5,8899463,-4
32-6,8903369,-10
32-7,8907275,-34
32-8,8911181,-31
32-9,8915087,-25
32-10,8918993,-40
32-11,8922899,-56
32-12,8926805,-46
32-13,8930711,-37
32-14,8934617,-37
32-15,8938523,-34
32-16,8942429,-50
32-17,8946335,-74
32-18,8950241,-71
32-19,8954147,-55
32-20,8958053,-51
32-21,8961959,-45
32-22,8965865,-31
32-23,8969771,-28
32-24,8973677,-39
32-25,8977583,-49
32-26,8981489,-50
32-27,8985395,-69
32-28,8989301,-72
32-29,8993207,-20
32-30,8997113,-27
32-31,9001019,-89
32-32,9004925,-87
32-1,9008837,-61
32-2,9012743,-68
32-3,9016649,-70
32-4,9020555,-65
32-5,9024461,-68
32-6,9028367,-72
32-7,9032273,-67
32-8,9036179,-65
32-9,9040085,-73
32-10,9043991,-62
32-11,9047897,-26
32-12,9051803,-19
32-13,9055709,-31
32-14,9059615,-11
32-15,9063521,-6
32-16,9067427,-30
32-17,9071333,-21
32-18,9075239,6
32-19,9079145,17
32-20,9083051,13
32-21,9086957,-13
32-22,9090863,-53
32-23,9094769,-73
32-24,9098675,-63
32-25,9102581,-38
32-26,9106487,-20
32-27,9110393,-37
32-28,9114299,-44
32-29,9118205,-24
32-30,9122111,-50
32-31,9126017,-88
32-32,9129923,-84
32-1,9133835,-73
32-2,9137741,-69
32-3,9141647,-73
32-4,9145553,-77
32-5,9149459,-73
32-6,9153365,-73
32-7,9157271,-79
32-8,9161177,-77
32-9,9165083,-58
32-10,9168989,-42
32-11,9172895,-36
32-12,9176801,-46
32-13,9180707,-70
32-14,9184613,-74
32-15,9188519,-66
32-16,9192425,-64
32-17,9196331,-57
32-18,9200237,-45
32-19,9204143,-27
32-20,9208049,-13
32-21,9211955,-24
32-22,9215861,-41
32-23,9219767,-50
32-24,9223673,-62
32-25,9227579,-57
32-26,9231485,-37
32-27,9235391,-30
32-28,9239297,4
32-29,9243203,47
32-30,9247109,-5
32-31,9251015,-77
32-32,9254921,-75
32-1,9258832,-57
32-2,9262738,-56
32-3,9266644,-64
32-4,9270550,-63
32-5,9274456,-40
32-6,9278362,-35
32-7,9282268,-56
32-8,9286174,-81
32-9,9290080,-79
32-10,9293986,-43
32-11,9297892,-27
32-12,9301798,-41
32-13,9305704,-52
32-14,9309610,-71
32-15,9313516,-81
32-16,9317422,-65
32-17,9321328,-60
32-18,9325234,-70
32-19,9329140,-58
32-20,9333046,-28
32-21,9336952,-24
32-22,9340858,-32
32-23,9344764,-14
32-24,9348670,10
32-25,9352576,24
32-26,9356482,37
32-27,9360388,32
32-28,9364294,30
32-29,9368200,47
32-30,9372106,17
32-31,9376012,-33
32-32,9379918,-44
32-1,9383982,-53
32-2,9387888,-65
32-3,9391794,-71
32-4,9395700,-86
32-5,9399606,-100
32-6,9403512,-92
32-7,9407418,-81
32-8,9411324,-88
32-9,9415230,-83
32-10,9419136,-74
32-11,9423042,-87
32-12,9426948,-105
32-13,9430854,-104
32-14,9434760,-81
32-15,9438666,-85
32-16,9442572,-104
32-17,9446478,-93
32-18,9450384,-87
32-19,9454290,-89
32-20,9458196,-82
32-21,9462102,-89
32-22,9466008,-88
32-23,9469914,-67
32-24,9473820,-52
32-25,9477726,-40
32-26,9481632,-13
32-27,9485538,-23
32-28,9489444,-29
32-29,9493350,28
32-30,9497256,11
32-31,9501162,-78
32-32,9505068,-91
32-1,9508828,-83
32-2,9512734,-96
32-3,9516640,-78
32-4,9520546,-56
32-5,9524452,-64
32-6,9528358,-72
32-7,9532264,-69
32-8,9536170,-75
32-9,9540076,-76
32-10,9543982,-63
32-11,9547888,-63
32-12,9551794,-62
32-13,9555700,-49
32-14,9559606,-43
32-15,9563512,-46
32-16,9567418,-51
32-17,9571324,-39
32-18,9575230,-10
32-19,9579136,15
32-20,9583042,11
32-21,9586948,-2
32-22,9590854,-14
32-23,9594760,-49
32-24,9598666,-82
32-25,9602572,-84
32-26,9606478,-62
32-27,9610384,-49
32-28,9614290,-29
32-29,9618196,24
32-30,9622102,22
32-31,9626008,-26
32-32,9629914,-21
32-1,9633825,-5
32-2,9637731,3
32-3,9641637,6
32-4,9645543,-5
32-5,9649449,1
32-6,9653355,1
32-7,9657261,-27
32-8,9661167,-54
32-9,9665073,-71
32-10,9668979,-78
32-11,9672885,-86
32-12,9676791,-82
32-13,9680697,-77
32-14,9684603,-96
32-15,9688509,-110
32-16,9692415,-104
32-17,9696321,-90
32-18,9700227,-76
32-19,9704133,-40
32-20,9708039,-2
32-21,9711945,-11
32-22,9715851,-30
32-23,9719757,-33
32-24,9723663,-47
32-25,9727569,-45
32-26,9731475,-44
32-27,9735381,-92
32-28,9739287,-99
32-29,9743193,-41
32-30,9747099,-49
32-31,9751005,-90
32-32,9754911,-78
32-1,9758823,-61
32-2,9762729,-37
32-3,9766635,6
32-4,9770541,19
32-5,9774447,13
32-6,9778353,33
32-7,9782259,44
32-8,9786165,17
32-9,9790071,-5
32-10,9793977,4
32-11,9797883,9
32-12,9801789,-4
32-13,9805695,-6
32-14,9809601,-5
32-15,9813507,-15
32-16,9817413,-6
32-17,9821319,17
32-18,9825225,22
32-19,9829131,11
32-20,9833037,-14
32-21,9836943,-38
32-22,9840849,-39
32-23,9844755,-20
32-24,9848661,-11
32-25,9852567,-5
32-26,9856473,27
32-27,9860379,26
32-28,9864285,5
32-29,9868191,20
32-30,9872097,-13
32-31,9876003,-63
32-32,9879909,-37
32-1,9883820,-2
32-2,9887726,-6
32-3,9891632,-37
32-4,9895538,-53
32-5,9899444,-29
32-6,9903350,-14
32-7,9907256,-13
32-8,9911162,-12
32-9,9915068,-21
32-10,9918974,-35
32-11,9922880,-41
32-12,9926786,-32
32-13,9930692,-24
32-14,9934598,-16
32-15,9938504,-8
32-16,9942410,-36
32-17,9946316,-74
32-18,9950222,-53
32-19,9954128,-18
32-20,9958034,-9
32-21,9961940,-3
32-22,9965846,-5
32-23,9969752,3
32-24,9973658,-1
32-25,9977564,-29
32-26,9981470,-28
32-27,9985376,-34
32-28,9989282,-40
32-29,9993188,-6
32-30,9997094,-19
32-31,10001000,-59
32-32,10004906,-50
32-1,10008818,-37
32-2,10012724,-33
32-3,10016630,-8
32-4,10020536,-7
32-5,10024442,-43
32-6,10028348,-59
32-7,10032254,-49
32-8,10036160,-60
32-9,10040066,-76
32-10,10043972,-71
32-11,10047878,-77
32-12,10051784,-99
32-13,10055690,-102
32-14,10059596,-91
32-15,10063502,-94
32-16,10067408,-92
32-17,10071314,-95
32-18,10075220,-93
32-19,10079126,-65
32-20,10083032,-54
32-21,10086938,-66
32-22,10090844,-65
32-23,10094750,-41
32-24,10098656,-23
32-25,10102562,-41
32-26,10106468,-59
32-27,10110374,-64
32-28,10114280,-50
32-29,10118186,-28
32-30,10122092,-71
32-31,10125998,-106
32-32,10129904,-66
32-1,10134029,-51
32-2,10137935,-77
32-3,10141841,-69
32-4,10145747,-60
32-5,10149653,-93
32-6,10153559,-103
32-7,10157465,-75
32-8,10161371,-59
32-9,10165277,-59
32-10,10169183,-62
32-11,10173089,-71
32-12,10176995,-72
32-13,10180901,-59
32-14,10184807,-46
32-15,10188713,-51
32-16,10192619,-45
32-17,10196525,-32
32-18,10200431,-46
32-19,10204337,-68
32-20,10208243,-59
32-21,10212149,-38
32-22,10216055,-35
32-23,10219961,-44
32-24,10223867,-58
32-25,10227773,-68
32-26,10231679,-50
32-27,10235585,-70
32-28,10239491,-78
32-29,10243397,5
32-30,10247303,19
32-31,10251209,-39
32-32,10255115,-25
32-1,10258813,-6
32-2,10262719,-19
32-3,10266625,-28
32-4,10270531,-47
32-5,10274437,-52
32-6,10278343,-33
32-7,10282249,-23
32-8,10286155,-32
32-9,10290061,-29
32-10,10293967,-18
32-11,10297873,-38
32-12,10301779,-59
32-13,10305685,-59
32-14,10309591,-66
32-15,10313497,-68
32-16,10317403,-50
32-17,10321309,-29
32-18,10325215,-22
32-19,10329121,-17
32-20,10333027,-16
32-21,10336933,-33
32-22,10340839,-40
32-23,10344745,-11
32-24,10348651,13
32-25,10352557,-9
32-26,10356463,-37
32-27,10360369,-60
32-28,10364275,-51
32-29,10368181,-7
32-30,10372087,-39
32-31,10375993,-98
32-32,10379899,-86
32-1,10383811,-85
32-2,10387717,-101
32-3,10391623,-84
32-4,10395529,-67
32-5,10399435,-57
32-6,10403341,-63
32-7,10407247,-70
32-8,10411153,-54
32-9,10415059,-56
32-10,10418965,-107
32-11,10422871,-152
32-12,10426777,-136
32-13,10430683,-107
32-14,10434589,-101
32-15,10438495,-87
32-16,10442401,-71
32-17,10446307,-57
32-18,10450213,-54
32-19,10454119,-74
32-20,10458025,-80
32-21,10461931,-68
32-22,10465837,-68
32-23,10469743,-64
32-24,10473649,-62
32-25,10477555,-56
32-26,10481461,-49
32-27,10485367,-83
32-28,10489273,-94
32-29,10493179,-52
32-30,10497085,-60
32-31,10500991,-98
32-32,10504897,-87
32-1,10508809,-77
32-2,10512715,-83
32-3,10516621,-69
32-4,10520527,-47
32-5,10524433,-41
32-6,10528339,-43
32-7,10532245,-39
32-8,10536151,-28
32-9,10540057,-30
32-10,10543963,-46
32-11,10547869,-53
32-12,10551775,-57
32-13,10555681,-52
32-14,10559587,-16
32-15,10563493,0
32-16,10567399,-22
32-17,10571305,-25
32-18,10575211,-5
32-19,10579117,-9
32-20,10583023,-20
32-21,10586929,-17
32-22,10590835,-12
32-23,10594741,-14
32-24,10598647,-23
32-25,10602553,-10
32-26,10606459,33
32-27,10610365,32
32-28,10614271,14
32-29,10618177,13
32-30,10622083,-9
32-31,10625989,-28
32-32,10629895,-31
32-1,10633806,-30
32-2,10637712,-4
32-3,10641618,-6
32-4,10645524,-32
32-5,10649430,-17
32-6,10653336,11
32-7,10657242,26
32-8,10661148,42
32-9,10665054,40
32-10,10668960,15
32-11,10672866,4
32-12,10676772,-13
32-13,10680678,-46
32-14,10684584,-30
32-15,10688490,10
32-16,10692396,17
32-17,10696302,40
32-18,10700208,62
32-19,10704114,37
32-20,10708020,28
32-21,10711926,21
32-22,10715832,-8
32-23,10719738,-8
32-24,10723644,6
32-25,10727550,17
32-26,10731456,28
32-27,10735362,7
32-28,10739268,0
32-29,10743174,29
32-30,10747080,12
32-31,10750986,-25
32-32,10754892,-19
32-1,10758865,-21
32-2,10762771,-43
32-3,10766677,-67
32-4,10770583,-73
32-5,10774489,-46
32-6,10778395,-23
32-7,10782301,-19
32-8,10786207,-21
32-9,10790113,-22
32-10,10794019,-30
32-11,10797925,-43
32-12,10801831,-49
32-13,10805737,-72
32-14,10809643,-90
32-15,10813549,-76
32-16,10817455,-66
32-17,10821361,-81
32-18,10825267,-92
32-19,10829173,-70
32-20,10833079,-44
32-21,10836985,-47
32-22,10840891,-43
32-23,10844797,-15
32-24,10848703,-5
32-25,10852609,-3
32-26,10856515,16
32-27,10860421,7
32-28,10864327,6
32-29,10868233,43
32-30,10872139,15
32-31,10876045,-27
32-32,10879951,7
32-1,10883985,9
32-2,10887891,-33
32-3,10891797,-31
32-4,10895703,-26
32-5,10899609,-37
32-6,10903515,-31
32-7,10907421,-20
32-8,10911327,-4
32-9,10915233,5
32-10,10919139,-17
32-11,10923045,-31
32-12,10926951,-20
32-13,10930857,-4
32-14,10934763,-7
32-15,10938669,-19
32-16,10942575,-12
32-17,10946481,-5
32-18,10950387,-7
32-19,10954293,-28
32-20,10958199,-67
32-21,10962105,-74
32-22,10966011,-57
32-23,10969917,-32
32-24,10973823,-12
32-25,10977729,-20
32-26,10981635,-25
32-27,10985541,-38
32-28,10989447,-34
32-29,10993353,37
32-30,10997259,43
32-31,11001165,-22
32-32,11005071,-16
32-1,11008799,11
32-2,11012705,10
32-3,11016611,17
32-4,11020517,15
32-5,11024423,17
32-6,11028329,37
32-7,11032235,43
32-8,11036141,43
32-9,11040047,60
32-10,11043953,75
32-11,11047859,72
32-12,11051765,70
32-13,11055671,76
32-14,11059577,87
32-15,11063483,83
32-16,11067389,52
32-17,11071295,32
32-18,11075201,43
32-19,11079107,55
32-20,11083013,46
32-21,11086919,36
32-22,11090825,39
32-23,11094731,47
32-24,11098637,57
32-25,11102543,60
32-26,11106449,70
32-27,11110355,89
32-28,11114261,114
32-29,11118167,161
32-30,11122073,160
32-31,11125979,123
32-32,11129885,123
32-1,11133797,87
32-2,11137703,43
32-3,11141609,53
32-4,11145515,47
32-5,11149421,32
32-6,11153327,46
32-7,11157233,50
32-8,11161139,44
32-9,11165045,42
32-10,11168951,33
32-11,11172857,14
32-12,11176763,13
32-13,11180669,22
32-14,11184575,19
32-15,11188481,15
32-16,11192387,18
32-17,11196293,17
32-18,11200199,23
32-19,11204105,39
32-20,11208011,45
32-21,11211917,34
32-22,11215823,19
32-23,11219729,14
32-24,11223635,29
32-25,11227541,55
32-26,11231447,66
32-27,11235353,37
32-28,11239259,17
32-29,11243165,31
32-30,11247071,-4
32-31,11250977,-57
32-32,11254883,-33
32-1,11258794,5
32-2,11262700,-9
32-3,11266606,-20
32-4,11270512,-16
32-5,11274418,-34
32-6,11278324,-54
32-7,11282230,-52
32-8,11286136,-38
32-9,11290042,-10
32-10,11293948,8
32-11,11297854,-5
32-12,11301760,-20
32-13,11305666,-12
32-14,11309572,-8
32-15,11313478,-19
32-16,11317384,-16
32-17,11321290,-7
32-18,11325196,-10
32-19,11329102,-21
32-20,11333008,-32
32-21,11336914,-22
32-22,11340820,3
32-23,11344726,10
32-24,11348632,-7
32-25,11352538,-25
32-26,11356444,-28
32-27,11360350,-23
32-28,11364256,42
32-29,11368162,119
32-30,11372068,77
32-31,11375974,26
32-32,11379880,43
32-1,11383884,6
32-2,11387790,-28
32-3,11391696,14
32-4,11395602,40
32-5,11399508,17
32-6,11403414,-16
32-7,11407320,-32
32-8,11411226,-40
32-9,11415132,-46
32-10,11419038,-20
32-11,11422944,34
32-12,11426850,58
32-13,11430756,54
32-14,11434662,47
32-15,11438568,20
32-16,11442474,-4
32-17,11446380,2
32-18,11450286,6
32-19,11454192,1
32-20,11458098,10
32-21,11462004,30
32-22,11465910,20
32-23,11469816,-12
32-24,11473722,-21
32-25,11477628,-18
32-26,11481534,-26
32-27,11485440,-43
32-28,11489346,-22
32-29,11493252,13
32-30,11497158,-34
32-31,11501064,-88
32-32,11504970,-67
32-1,11508790,-41
32-2,11512696,-48
32-3,11516602,-71
32-4,11520508,-76
32-5,11524414,-62
32-6,11528320,-49
32-7,11532226,-25
32-8,11536132,13
32-9,11540038,28
32-10,11543944,9
32-11,11547850,-9
32-12,11551756,-2
32-13,11555662,16
32-14,11559568,23
32-15,11563474,19
32-16,11567380,17
32-17,11571286,23
32-18,11575192,42
32-19,11579098,50
32-20,11583004,37
32-21,11586910,28
32-22,11590816,17
32-23,11594722,12
32-24,11598628,26
32-25,11602534,38
32-26,11606440,39
32-27,11610346,15
32-28,11614252,1
32-29,11618158,20
32-30,11622064,-6
32-31,11625970,-41
32-32,11629876,-25
32-1,11633970,-23
32-2,11637876,-32
32-3,11641782,-37
32-4,11645688,-53
32-5,11649594,-30
32-6,11653500,8
32-7,11657406,5
32-8,11661312,-17
32-9,11665218,-27
32-10,11669124,-18
32-11,11673030,3
32-12,11676936,27
32-13,11680842,43
32-14,11684748,39
32-15,11688654,30
32-16,11692560,29
32-17,11696466,31
32-18,11700372,32
32-19,11704278,36
32-20,11708184,40
32-21,11712090,38
32-22,11715996,49
32-23,11719902,76
32-24,11723808,85
32-25,11727714,68
32-26,11731620,37
32-27,11735526,-24
32-28,11739432,-30
32-29,11743338,50
32-30,11747244,38
32-31,11751150,-43
32-32,11755056,-32
32-1,11758785,2
32-2,11762691,-1
32-3,11766597,2
32-4,11770503,1
32-5,11774409,-22
32-6,11778315,-41
32-7,11782221,-24
32-8,11786127,-3
32-9,11790033,-8
32-10,11793939,-10
32-11,11797845,1
32-12,11801751,14
32-13,11805657,27
32-14,11809563,41
32-15,11813469,29
32-16,11817375,6
32-17,11821281,-10
32-18,11825187,-19
32-19,11829093,-15
32-20,11832999,-19
32-21,11836905,-25
32-22,11840811,-15
32-23,11844717,-20
32-24,11848623,-36
32-25,11852529,-33
32-26,11856435,-29
32-27,11860341,-37
32-28,11864247,-23
32-29,11868153,9
32-30,11872059,-31
32-31,11875965,-100
32-32,11879871,-83
32-1,11883783,-49
32-2,11887689,-62
32-3,11891595,-64
32-4,11895501,-54
32-5,11899407,-56
32-6,11903313,-65
32-7,11907219,-80
32-8,11911125,-105
32-9,11915031,-115
32-10,11918937,-113
32-11,11922843,-107
32-12,11926749,-97
32-13,11930655,-88
32-14,11934561,-86
32-15,11938467,-100
32-16,11942373,-103
32-17,11946279,-85
32-18,11950185,-92
32-19,11954091,-106
32-20,11957997,-91
32-21,11961903,-69
32-22,11965809,-65
32-23,11969715,-82
32-24,11973621,-77
32-25,11977527,-64
32-26,11981433,-74
32-27,11985339,-74
32-28,11989245,-36
32-29,11993151,-8
32-30,11997057,-51
32-31,12000963,-104
32-32,12004869,-91
32-1,12008902,-68
32-2,12012808,-54
32-3,12016714,-40
32-4,12020620,-55
32-5,12024526,-80
32-6,12028432,-81
32-7,12032338,-75
32-8,12036244,-71
32-9,12040150,-64
32-10,12044056,-48
32-11,12047962,-46
32-12,12051868,-55
32-13,12055774,-59
32-14,12059680,-58
32-15,12063586,-51
32-16,12067492,-72
32-17,12071398,-109
32-18,12075304,-83
32-19,12079210,-55
32-20,12083116,-87
32-21,12087022,-93
32-22,12090928,-80
32-23,12094834,-94
32-24,12098740,-106
32-25,12102646,-103
32-26,12106552,-78
32-27,12110458,-64
32-28,12114364,-66
32-29,12118270,-42
32-30,12122176,-49
32-31,12126082,-91
32-32,12129988,-92
32-1,12133778,-75
32-2,12137684,-65
32-3,12141590,-47
32-4,12145496,-34
32-5,12149402,-28
32-6,12153308,-28
32-7,12157214,-26
32-8,12161120,-38
32-9,12165026,-68
32-10,12168932,-91
32-11,12172838,-98
32-12,12176744,-106
32-13,12180650,-119
32-14,12184556,-118
32-15,12188462,-125
32-16,12192368,-142
32-17,12196274,-122
32-18,12200180,-89
32-19,12204086,-90
32-20,12207992,-96
32-21,12211898,-82
32-22,12215804,-69
32-23,12219710,-61
32-24,12223616,-41
32-25,12227522,-11
32-26,12231428,20
32-27,12235334,19
32-28,12239240,29
32-29,12243146,82
32-30,12247052,77
32-31,12250958,15
32-32,12254864,-10
32-1,12258775,-20
32-2,12262681,-28
32-3,12266587,-31
32-4,12270493,-47
32-5,12274399,-65
32-6,12278305,-71
32-7,12282211,-57
32-8,12286117,-35
32-9,12290023,-20
32-10,12293929,-3
32-11,12297835,-1
32-12,12301741,-45
32-13,12305647,-70
32-14,12309553,-44
32-15,12313459,-35
32-16,12317365,-24
32-17,12321271,4
32-18,12325177,6
32-19,12329083,14
32-20,12332989,19
32-21,12336895,7
32-22,12340801,21
32-23,12344707,43
32-24,12348613,16
32-25,12352519,-32
32-26,12356425,-49
32-27,12360331,-53
32-28,12364237,-34
32-29,12368143,17
32-30,12372049,2
32-31,12375955,-49
32-32,12379861,-39
32-1,12383926,-2
32-2,12387832,8
32-3,12391738,-10
32-4,12395644,-28
32-5,12399550,-35
32-6,12403456,-33
32-7,12407362,-21
32-8,12411268,-15
32-9,12415174,-33
32-10,12419080,-46
32-11,12422986,-37
32-12,12426892,-20
32-13,12430798,-27
32-14,12434704,-54
32-15,12438610,-92
32-16,12442516,-129
32-17,12446422,-119
32-18,12450328,-67
32-19,12454234,-41
32-20,12458140,-38
32-21,12462046,-22
32-22,12465952,-13
32-23,12469858,-14
32-24,12473764,-17
32-25,12477670,-34
32-26,12481576,-22
32-27,12485482,-24
32-28,12489388,-36
32-29,12493294,21
32-30,12497200,6
32-31,12501106,-83
32-32,12505012,-76
32-1,12508771,-51
32-2,12512677,-48
32-3,12516583,-21
32-4,12520489,-23
32-5,12524395,-46
32-6,12528301,-56
32-7,12532207,-69
32-8,12536113,-72
32-9,12540019,-56
32-10,12543925,-36
32-11,12547831,-13
32-12,12551737,16
32-13,12555643,24
32-14,12559549,12
32-15,12563455,-1
32-16,12567361,-19
32-17,12571267,-31
32-18,12575173,-12
32-19,12579079,-9
32-20,12582985,-23
32-21,12586891,-3
32-22,12590797,7
32-23,12594703,-21
32-24,12598609,-32
32-25,12602515,-40
32-26,12606421,-60
32-27,12610327,-88
32-28,12614233,-83
32-29,12618139,-27
32-30,12622045,-28
32-31,12625951,-65
32-32,12629857,-44
32-1,12633890,-32
32-2,12637796,-50
32-3,12641702,-60
32-4,12645608,-44
32-5,12649514,-22
32-6,12653420,-21
32-7,12657326,-16
32-8,12661232,2
32-9,12665138,-3
32-10,12669044,-29
32-11,12672950,-38
32-12,12676856,-56
32-13,12680762,-102
32-14,12684668,-102
32-15,12688574,-85
32-16,12692480,-92
32-17,12696386,-76
32-18,12700292,-54
32-19,12704198,-38
32-20,12708104,-17
32-21,12712010,-24
32-22,12715916,-42
32-23,12719822,-48
32-24,12723728,-67
32-25,12727634,-73
32-26,12731540,-26
32-27,12735446,-4
32-28,12739352,-6
32-29,12743258,17
32-30,12747164,-7
32-31,12751070,-36
32-32,12754976,-30
32-1,12758766,-57
32-2,12762672,-68
32-3,12766578,-50
32-4,12770484,-43
32-5,12774390,-34
32-6,12778296,-35
32-7,12782202,-37
32-8,12786108,-44
32-9,12790014,-56
32-10,12793920,-54
32-11,12797826,-43
32-12,12801732,-32
32-13,12805638,-22
32-14,12809544,-9
32-15,12813450,-12
32-16,12817356,-23
32-17,12821262,-16
32-18,12825168,-32
32-19,12829074,-60
32-20,12832980,-46
32-21,12836886,-29
32-22,12840792,-38
32-23,12844698,-44
32-24,12848604,-75
32-25,12852510,-111
32-26,12856416,-83
32-27,12860322,-62
32-28,12864228,-60
32-29,12868134,-24
32-30,12872040,-49
32-31,12875946,-99
32-32,12879852,-81
32-1,12883764,-71
32-2,12887670,-69
32-3,12891576,-41
32-4,12895482,-31
32-5,12899388,-40
32-6,12903294,-34
32-7,12907200,-24
32-8,12911106,-48
32-9,12915012,-73
32-10,12918918,-80
32-11,12922824,-102
32-12,12926730,-107
32-13,12930636,-93
32-14,12934542,-95
32-15,12938448,-102
32-16,12942354,-93
32-17,12946260,-66
32-18,12950166,-49
32-19,12954072,-64
32-20,12957978,-67
32-21,12961884,-62
32-22,12965790,-96
32-23,12969696,-129
32-24,12973602,-127
32-25,12977508,-110
32-26,12981414,-96
32-27,12985320,-130
32-28,12989226,-141
32-29,12993132,-88
32-30,12997038,-98
32-31,13000944,-155
32-32,13004850,-141
32-1,13008761,-105
32-2,13012667,-111
32-3,13016573,-130
32-4,13020479,-114
32-5,13024385,-90
32-6,13028291,-96
32-7,13032197,-102
32-8,13036103,-116
32-9,13040009,-141
32-10,13043915,-128
32-11,13047821,-119
32-12,13051727,-121
32-13,13055633,-94
32-14,13059539,-89
32-15,13063445,-94
32-16,13067351,-68
32-17,13071257,-64
32-18,13075163,-82
32-19,13079069,-85
32-20,13082975,-92
32-21,13086881,-96
32-22,13090787,-86
32-23,13094693,-87
32-24,13098599,-106
32-25,13102505,-110
32-26,13106411,-81
32-27,13110317,-59
32-28,13114223,-46
32-29,13118129,-17
32-30,13122035,-47
32-31,13125941,-114
32-32,13129847,-103
32-1,13133942,-68
32-2,13137848,-72
32-3,13141754,-79
32-4,13145660,-76
32-5,13149566,-85
32-6,13153472,-95
32-7,13157378,-97
32-8,13161284,-107
32-9,13165190,-107
32-10,13169096,-92
32-11,13173002,-81
32-12,13176908,-75
32-13,13180814,-76
32-14,13184720,-62
32-15,13188626,-48
32-16,13192532,-65
32-17,13196438,-63
32-18,13200344,-44
32-19,13204250,-47
32-20,13208156,-47
32-21,13212062,-47
32-22,13215968,-69
32-23,13219874,-82
32-24,13223780,-74
32-25,13227686,-78
32-26,13231592,-88
32-27,13235498,-93
32-28,13239404,-51
32-29,13243310,46
32-30,13247216,54
32-31,13251122,-22
32-32,13255028,-41
32-1,13258756,-35
32-2,13262662,-51
32-3,13266568,-57
32-4,13270474,-53
32-5,13274380,-46
32-6,13278286,-43
32-7,13282192,-41
32-8,13286098,-42
32-9,13290004,-52
32-10,13293910,-62
32-11,13297816,-67
32-12,13301722,-70
32-13,13305628,-50
32-14,13309534,-26
32-15,13313440,-38
32-16,13317346,-52
32-17,13321252,-34
32-18,13325158,-27
32-19,13329064,-40
32-20,13332970,-43
32-21,13336876,-30
32-22,13340782,-30
32-23,13344688,-44
32-24,13348594,-43
32-25,13352500,-39
32-26,13356406,-41
32-27,13360312,-45
32-28,13364218,-9
32-29,13368124,69
32-30,13372030,56
32-31,13375936,-15
32-32,13379842,-18
32-1,13383754,-26
32-2,13387660,-42
32-3,13391566,-12
32-4,13395472,6
32-5,13399378,3
32-6,13403284,-5
32-7,13407190,-15
32-8,13411096,-20
32-9,13415002,-18
32-10,13418908,-13
32-11,13422814,-6
32-12,13426720,-2
32-13,13430626,4
32-14,13434532,23
32-15,13438438,36
32-16,13442344,25
32-17,13446250,15
32-18,13450156,23
32-19,13454062,21
32-20,13457968,-1
32-21,13461874,-17
32-22,13465780,-37
32-23,13469686,-60
32-24,13473592,-51
32-25,13477498,-43
32-26,13481404,-36
32-27,13485310,-29
32-28,13489216,-18
32-29,13493122,28
32-30,13497028,29
32-31,13500934,-28
32-32,13504840,-46
32-1,13508752,-43
32-2,13512658,-30
32-3,13516564,-10
32-4,13520470,-15
32-5,13524376,-23
32-6,13528282,-19
32-7,13532188,-11
32-8,13536094,-7
32-9,13540000,-18
32-10,13543906,-38
32-11,13547812,-59
32-12,13551718,-66
32-13,13555624,-38
32-14,13559530,18
32-15,13563436,45
32-16,13567342,26
32-17,13571248,3
32-18,13575154,-8
32-19,13579060,-33
32-20,13582966,-50
32-21,13586872,-42
32-22,13590778,-33
32-23,13594684,-13
32-24,13598590,-5
32-25,13602496,-17
32-26,13606402,-7
32-27,13610308,-14
32-28,13614214,-23
32-29,13618120,7
32-30,13622026,-5
32-31,13625932,-28
32-32,13629838,-19
32-1,13633749,-29
32-2,13637655,-36
32-3,13641561,-26
32-4,13645467,-39
32-5,13649373,-61
32-6,13653279,-74
32-7,13657185,-102
32-8,13661091,-135
32-9,13664997,-140
32-10,13668903,-121
32-11,13672809,-109
32-12,13676715,-122
32-13,13680621,-128
32-14,13684527,-103
32-15,13688433,-95
32-16,13692339,-91
32-17,13696245,-72
32-18,13700151,-71
32-19,13704057,-63
32-20,13707963,-43
32-21,13711869,-37
32-22,13715775,-21
32-23,13719681,1
32-24,13723587,-7
32-25,13727493,-11
32-26,13731399,12
32-27,13735305,26
32-28,13739211,41
32-29,13743117,72
32-30,13747023,54
32-31,13750929,1
32-32,13754835,-5
32-1,13758747,18
32-2,13762653,27
32-3,13766559,37
32-4,13770465,69
32-5,13774371,93
32-6,13778277,106
32-7,13782183,138
32-8,13786089,166
32-9,13789995,165
32-10,13793901,176
32-11,13797807,188
32-12,13801713,174
32-13,13805619,153
32-14,13809525,122
32-15,13813431,92
32-16,13817337,85
32-17,13821243,81
32-18,13825149,96
32-19,13829055,135
32-20,13832961,161
32-21,13836867,200
32-22,13840773,245
32-23,13844679,255
32-24,13848585,256
32-25,13852491,276
32-26,13856397,296
32-27,13860303,268
32-28,13864209,233
32-29,13868115,231
32-30,13872021,176
32-31,13875927,79
32-32,13879833,19
32-1,13883745,-42
32-2,13887651,-100
32-3,13891557,-142
32-4,13895463,-198
32-5,13899369,-234
32-6,13903275,-253
32-7,13907181,-314
32-8,13911087,-383
32-9,13914993,-407
32-10,13918899,-424
32-11,13922805,-446
32-12,13926711,-438
32-13,13930617,-408
32-14,13934523,-400
32-15,13938429,-398
32-16,13942335,-368
32-17,13946241,-350
32-18,13950147,-359
32-19,13954053,-361
32-20,13957959,-378
32-21,13961865,-397
32-22,13965771,-377
32-23,13969677,-358
32-24,13973583,-356
32-25,13977489,-317
32-26,13981395,-244
32-27,13985301,-230
32-28,13989207,-225
32-29,13993113,-146
32-30,13997019,-116
32-31,14000925,-156
32-32,14004831,-168
32-1,14008742,-160
32-2,14012648,-135
32-3,14016554,-115
32-4,14020460,-114
32-5,14024366,-98
32-6,14028272,-58
32-7,14032178,0
32-8,14036084,16
32-9,14039990,-11
32-10,14043896,-8
32-11,14047802,3
32-12,14051708,-13
32-13,14055614,-19
32-14,14059520,9
32-15,14063426,34
32-16,14067332,48
32-17,14071238,66
32-18,14075144,59
32-19,14079050,30
32-20,14082956,15
32-21,14086862,14
32-22,14090768,27
32-23,14094674,51
32-24,14098580,43
32-25,14102486,35
32-26,14106392,74
32-27,14110298,82
32-28,14114204,99
32-29,14118110,182
32-30,14122016,152
32-31,14125922,62
32-32,14129828,77
32-1,14133740,86
32-2,14137646,63
32-3,14141552,78
32-4,14145458,80
32-5,14149364,54
32-6,14153270,34
32-7,14157176,29
32-8,14161082,24
32-9,14164988,20
32-10,14168894,26
32-11,14172800,39
32-12,14176706,62
32-13,14180612,76
32-14,14184518,51
32-15,14188424,11
32-16,14192330,-26
32-17,14196236,-62
32-18,14200142,-86
32-19,14204048,-92
32-20,14207954,-83
32-21,14211860,-82
32-22,14215766,-95
32-23,14219672,-97
32-24,14223578,-121
32-25,14227484,-142
32-26,14231390,-116
32-27,14235296,-110
32-28,14239202,-93
32-29,14243108,-21
32-30,14247014,-7
32-31,14250920,-43
32-32,14254826,-39
32-1,14258738,-17
32-2,14262644,-3
32-3,14266550,-4
32-4,14270456,-23
32-5,14274362,-32
32-6,14278268,-25
32-7,14282174,-23
32-8,14286080,-21
32-9,14289986,-3
32-10,14293892,22
32-11,14297798,36
32-12,14301704,27
32-13,14305610,-5
32-14,14309516,-25
32-15,14313422,-40
32-16,14317328,-75
32-17,14321234,-112
32-18,14325140,-128
32-19,14329046,-123
32-20,14332952,-125
32-21,14336858,-137
32-22,14340764,-144
32-23,14344670,-119
32-24,14348576,-61
32-25,14352482,-27
32-26,14356388,-20
32-27,14360294,-25
32-28,14364200,-26
32-29,14368106,-27
32-30,14372012,-82
32-31,14375918,-131
32-32,14379824,-120
32-1,14383735,-134
32-2,14387641,-185
32-3,14391547,-208
32-4,14395453,-163
32-5,14399359,-85
32-6,14403265,-54
32-7,14407171,-71
32-8,14411077,-78
32-9,14414983,-51
32-10,14418889,-26
32-11,14422795,-29
32-12,14426701,-58
32-13,14430607,-86
32-14,14434513,-81
32-15,14438419,-46
32-16,14442325,-11
32-17,14446231,12
32-18,14450137,8
32-19,14454043,-27
32-20,14457949,-57
32-21,14461855,-80
32-22,14465761,-81
32-23,14469667,-54
32-24,14473573,-86
32-25,14477479,-132
32-26,14481385,-116
32-27,14485291,-139
32-28,14489197,-177
32-29,14493103,-161
32-30,14497009,-192
32-31,14500915,-248
32-32,14504821,-232
32-1,14508733,-184
32-2,14512639,-152
32-3,14516545,-110
32-4,14520451,-75
32-5,14524357,-88
32-6,14528263,-100
32-7,14532169,-77
32-8,14536075,-75
32-9,14539981,-78
32-10,14543887,-59
32-11,14547793,-41
32-12,14551699,-32
32-13,14555605,-28
32-14,14559511,-19
32-15,14563417,-26
32-16,14567323,-46
32-17,14571229,-27
32-18,14575135,-20
32-19,14579041,-53
32-20,14582947,-43
32-21,14586853,-19
32-22,14590759,-28
32-23,14594665,-31
32-24,14598571,-50
32-25,14602477,-71
32-26,14606383,-55
32-27,14610289,-67
32-28,14614195,-82
32-29,14618101,-51
32-30,14622007,-54
32-31,14625913,-79
32-32,14629819,-52
32-1,14633730,-12
32-2,14637636,-5
32-3,14641542,19
32-4,14645448,34
32-5,14649354,3
32-6,14653260,10
32-7,14657166,50
32-8,14661072,33
32-9,14664978,15
32-10,14668884,45
32-11,14672790,77
32-12,14676696,78
32-13,14680602,69
32-14,14684508,74
32-15,14688414,68
32-16,14692320,55
32-17,14696226,66
32-18,14700132,74
32-19,14704038,69
32-20,14707944,79
32-21,14711850,81
32-22,14715756,54
32-23,14719662,40
32-24,14723568,54
32-25,14727474,62
32-26,14731380,58
32-27,14735286,43
32-28,14739192,57
32-29,14743098,101
32-30,14747004,58
32-31,14750910,-18
32-32,14754816,-8
32-1,14758728,-4
32-2,14762634,-47
32-3,14766540,-72
32-4,14770446,-72
32-5,14774352,-61
32-6,14778258,-45
32-7,14782164,-39
32-8,14786070,-39
32-9,14789976,-31
32-10,14793882,-21
32-11,14797788,-25
32-12,14801694,-6
32-13,14805600,36
32-14,14809506,53
32-15,14813412,51
32-16,14817318,58
32-17,14821224,71
32-18,14825130,43
32-19,14829036,-10
32-20,14832942,-20
32-21,14836848,-4
32-22,14840754,-7
32-23,14844660,-40
32-24,14848566,-78
32-25,14852472,-81
32-26,14856378,-49
32-27,14860284,-46
32-28,14864190,-36
32-29,14868096,16
32-30,14872002,10
32-31,14875908,-27
32-32,14879814,-20
32-1,14883726,-21
32-2,14887632,-14
32-3,14891538,1
32-4,14895444,-30
32-5,14899350,-39
32-6,14903256,10
32-7,14907162,39
32-8,14911068,12
32-9,14914974,-4
32-10,14918880,20
32-11,14922786,35
32-12,14926692,26
32-13,14930598,11
32-14,14934504,-13
32-15,14938410,-40
32-16,14942316,-37
32-17,14946222,-15
32-18,14950128,-21
32-19,14954034,-19
32-20,14957940,3
32-21,14961846,-17
32-22,14965752,-38
32-23,14969658,-16
32-24,14973564,-15
32-25,14977470,-30
32-26,14981376,-27
32-27,14985282,-34
32-28,14989188,-5
32-29,14993094,43
32-30,14997000,-15
32-31,15000906,-97
32-32,15004812,-80
32-1,15008723,-51
32-2,15012629,-66
32-3,15016535,-62
32-4,15020441,-27
32-5,15024347,-11
32-6,15028253,-33
32-7,15032159,-51
32-8,15036065,-30
32-9,15039971,-2
32-10,15043877,-1
32-11,15047783,-17
32-12,15051689,-25
32-13,15055595,-32
32-14,15059501,-75
32-15,15063407,-113
32-16,15067313,-67
32-17,15071219,-11
32-18,15075125,-9
32-19,15079031,2
32-20,15082937,30
32-21,15086843,93
32-22,15090749,192
32-23,15094655,232
32-24,15098561,225
32-25,15102467,257
32-26,15106373,313
32-27,15110279,319
32-28,15114185,294
32-29,15118091,297
32-30,15121997,265
32-31,15125903,199
32-32,15129809,145
32-1,15133721,90
32-2,15137627,71
32-3,15141533,80
32-4,15145439,40
32-5,15149345,-13
32-6,15153251,-8
32-7,15157157,-6
32-8,15161063,-58
32-9,15164969,-87
32-10,15168875,-80
32-11,15172781,-67
32-12,15176687,-48
32-13,15180593,-65
32-14,15184499,-82
32-15,15188405,-51
32-16,15192311,-6
32-17,15196217,47
32-18,15200123,77
32-19,15204029,79
32-20,15207935,88
32-21,15211841,83
32-22,15215747,65
32-23,15219653,69
32-24,15223559,62
32-25,15227465,27
32-26,15231371,-32
32-27,15235277,-72
32-28,15239183,-36
32-29,15243089,-20
32-30,15246995,-95
32-31,15250901,-134
32-32,15254807,-106
32-1,15258719,-95
32-2,15262625,-126
32-3,15266531,-169
32-4,15270437,-168
32-5,15274343,-150
32-6,15278249,-186
32-7,15282155,-229
32-8,15286061,-212
32-9,15289967,-174
32-10,15293873,-176
32-11,15297779,-204
32-12,15301685,-187
32-13,15305591,-150
32-14,15309497,-164
32-15,15313403,-200
32-16,15317309,-200
32-17,15321215,-162
32-18,15325121,-132
32-19,15329027,-139
32-20,15332933,-153
32-21,15336839,-147
32-22,15340745,-143
32-23,15344651,-174
32-24,15348557,-204
32-25,15352463,-185
32-26,15356369,-137
32-27,15360275,-131
32-28,15364181,-142
32-29,15368087,-112
32-30,15371993,-110
32-31,15375899,-156
32-32,15379805,-173
32-1,15383716,-151
32-2,15387622,-110
32-3,15391528,-116
32-4,15395434,-159
32-5,15399340,-159
32-6,15403246,-131
32-7,15407152,-97
32-8,15411058,-85
32-9,15414964,-115
32-10,15418870,-102
32-11,15422776,-60
32-12,15426682,-90
32-13,15430588,-153
32-14,15434494,-138
32-15,15438400,-86
32-16,15442306,-90
32-17,15446212,-124
32-18,15450118,-129
32-19,15454024,-100
32-20,15457930,-76
32-21,15461836,-88
32-22,15465742,-96
32-23,15469648,-52
32-24,15473554,27
32-25,15477460,86
32-26,15481366,119
32-27,15485272,160
32-28,15489178,231
32-29,15493084,275
32-30,15496990,216
32-31,15500896,154
32-32,15504802,164
32-1,15508714,143
32-2,15512620,95
32-3,15516526,86
32-4,15520432,108
32-5,15524338,114
32-6,15528244,63
32-7,15532150,20
32-8,15536056,8
32-9,15539962,-17
32-10,15543868,-47
32-11,15547774,-78
32-12,15551680,-95
32-13,15555586,-76
32-14,15559492,-76
32-15,15563398,-130
32-16,15567304,-164
32-17,15571210,-125
32-18,15575116,-89
32-19,15579022,-119
32-20,15582928,-140
32-21,15586834,-91
32-22,15590740,-63
32-23,15594646,-101
32-24,15598552,-122
32-25,15602458,-100
32-26,15606364,-72
32-27,15610270,-97
32-28,15614176,-102
32-29,15618082,-23
32-30,15621988,-15
32-31,15625894,-98
32-32,15629800,-137
32-1,15633711,-118
32-2,15637617,-65
32-3,15641523,-28
32-4,15645429,-48
32-5,15649335,-84
32-6,15653241,-77
32-7,15657147,-35
32-8,15661053,-61
32-9,15664959,-126
32-10,15668865,-109
32-11,15672771,-65
32-12,15676677,-86
32-13,15680583,-118
32-14,15684489,-105
32-15,15688395,-71
32-16,15692301,-69
32-17,15696207,-97
32-18,15700113,-70
32-19,15704019,34
32-20,15707925,110
32-21,15711831,117
32-22,15715737,109
32-23,15719643,156
32-24,15723549,208
32-25,15727455,150
32-26,15731361,53
32-27,15735267,42
32-28,15739173,74
32-29,15743079,47
32-30,15746985,-41
32-31,15750891,-75
32-32,15754797,0
32-1,15758709,90
32-2,15762615,73
32-3,15766521,-2
32-4,15770427,16
32-5,15774333,42
32-6,15778239,-65
32-7,15782145,-132
32-8,15786051,-52
32-9,15789957,-23
32-10,15793863,-95
32-11,15797769,-119
32-12,15801675,-97
32-13,15805581,-104
32-14,15809487,-132
32-15,15813393,-147
32-16,15817299,-118
32-17,15821205,-57
32-18,15825111,-4
32-19,15829017,11
32-20,15832923,14
32-21,15836829,40
32-22,15840735,67
32-23,15844641,68
32-24,15848547,48
32-25,15852453,57
32-26,15856359,120
32-27,15860265,105
32-28,15864171,-9
32-29,15868077,-108
32-30,15871983,-202
32-31,15875889,-293
32-32,15879795,-291
32-1,15883707,-120
32-2,15887613,212
32-3,15891519,402
32-4,15895425,203
32-5,15899331,-48
32-6,15903237,12
32-7,15907143,145
32-8,15911049,58
32-9,15914955,-49
32-10,15918861,20
32-11,15922767,114
32-12,15926673,127
32-13,15930579,140
32-14,15934485,202
32-15,15938391,274
32-16,15942297,283
32-17,15946203,228
32-18,15950109,208
32-19,15954015,269
32-20,15957921,326
32-21,15961827,313
32-22,15965733,289
32-23,15969639,339
32-24,15973545,406
32-25,15977451,386
32-26,15981357,345
32-27,15985263,360
32-28,15989169,426
32-29,15993075,461
32-30,15996981,404
32-31,16000887,391
32-32,16004793,478
32-1,16008704,506
32-2,16012610,466
32-3,16016516,450
32-4,16020422,461
32-5,16024328,470
32-6,16028234,434
32-7,16032140,376
32-8,16036046,383
32-9,16039952,411
32-10,16043858,368
32-11,16047764,305
32-12,16051670,313
32-13,16055576,353
32-14,16059482,351
32-15,16063388,314
32-16,16067294,312
32-17,16071200,365
32-18,16075106,393
32-19,16079012,333
32-20,16082918,294
32-21,16086824,373
32-22,16090730,440
32-23,16094636,388
32-24,16098542,316
32-25,16102448,320
32-26,16106354,391
32-27,16110260,402
32-28,16114166,342
32-29,16118072,368
32-30,16121978,438
32-31,16125884,425
32-32,16129790,383
32-1,16133671,384
32-2,16137577,432
32-3,16141483,456
32-4,16145389,387
32-5,16149295,312
32-6,16153201,344
32-7,16157107,407
32-8,16161013,376
32-9,16164919,338
32-10,16168825,428
32-11,16172731,560
32-12,16176637,598
32-13,16180543,588
32-14,16184449,638
32-15,16188355,735
32-16,16192261,775
32-17,16196167,748
32-18,16200073,764
32-19,16203979,844
32-20,16207885,847
32-21,16211791,728
32-22,16215697,644
32-23,16219603,672
32-24,16223509,662
32-25,16227415,535
32-26,16231321,424
32-27,16235227,412
32-28,16239133,473
32-29,16243039,477
32-30,16246945,312
32-31,16250851,198
32-32,16254757,273
32-1,16258669,308
32-2,16262575,239
32-3,16266481,217
32-4,16270387,282
32-5,16274293,316
32-6,16278199,237
32-7,16282105,187
32-8,16286011,277
32-9,16289917,350
32-10,16293823,280
32-11,16297729,173
32-12,16301635,174
32-13,16305541,249
32-14,16309447,228
32-15,16313353,93
32-16,16317259,28
32-17,16321165,75
32-18,16325071,71
32-19,16328977,-27
32-20,16332883,-85
32-21,16336789,-37
32-22,16340695,-9
32-23,16344601,-99
32-24,16348507,-182
32-25,16352413,-125
32-26,16356319,-30
32-27,16360225,-60
32-28,16364131,-156
32-29,16368037,-151
32-30,16371943,-104
32-31,16375849,-133
32-32,16379755,-175
32-1,16383697,-143
32-2,16387603,-58
32-3,16391509,-8
32-4,16395415,-43
32-5,16399321,-89
32-6,16403227,-44
32-7,16407133,-8
32-8,16411039,-89
32-9,16414945,-138
32-10,16418851,-68
32-11,16422757,-6
32-12,16426663,-38
32-13,16430569,-108
32-14,16434475,-101
32-15,16438381,-20
32-16,16442287,-32
32-17,16446193,-128
32-18,16450099,-159
32-19,16454005,-116
32-20,16457911,-106
32-21,16461817,-177
32-22,16465723,-232
32-23,16469629,-168
32-24,16473535,-105
32-25,16477441,-159
32-26,16481347,-240
32-27,16485253,-216
32-28,16489159,-107
32-29,16493065,-106
32-30,16496971,-247
32-31,16500877,-268
32-32,16504783,-135
32-1,16508695,-102
32-2,16512601,-197
32-3,16516507,-224
32-4,16520413,-125
32-5,16524319,-79
32-6,16528225,-186
32-7,16532131,-268
32-8,16536037,-192
32-9,16539943,-97
32-10,16543849,-135
32-11,16547755,-220
32-12,16551661,-196
32-13,16555567,-125
32-14,16559473,-143
32-15,16563379,-230
32-16,16567285,-251
32-17,16571191,-170
32-18,16575097,-115
32-19,16579003,-161
32-20,16582909,-196
32-21,16586815,-131
32-22,16590721,-79
32-23,16594627,-154
32-24,16598533,-235
32-25,16602439,-170
32-26,16606345,-75
32-27,16610251,-105
32-28,16614157,-154
32-29,16618063,-131
32-30,16621969,-98
32-31,16625875,-101
32-32,16629781,-166
32-1,16633693,-202
32-2,16637599,-109
32-3,16641505,-47
32-4,16645411,-131
32-5,16649317,-205
32-6,16653223,-152
32-7,16657129,-82
32-8,16661035,-155
32-9,16664941,-254
32-10,16668847,-216
32-11,16672753,-139
32-12,16676659,-162
32-13,16680565,-261
32-14,16684471,-283
32-15,16688377,-167
32-16,16692283,-123
32-17,16696189,-225
32-18,16700095,-267
32-19,16704001,-191
32-20,16707907,-145
32-21,16711813,-197
32-22,16715719,-230
32-23,16719625,-135
32-24,16723531,-49
32-25,16727437,-109
32-26,16731343,-198
32-27,16735249,-187
32-28,16739155,-109
32-29,16743061,-104
32-30,16746967,-226
32-31,16750873,-273
32-32,16754779,-180
32-1,16758690,-161
32-2,16762596,-249
32-3,16766502,-291
32-4,16770408,-225
32-5,16774314,-162
32-6,16778220,-218
32-7,16782126,-278
32-8,16786032,-224
32-9,16789938,-149
32-10,16793844,-160
32-11,16797750,-202
32-12,16801656,-164
32-13,16805562,-66
32-14,16809468,-38
32-15,16813374,-75
32-16,16817280,-52
32-17,16821186,27
32-18,16825092,18
32-19,16828998,-67
32-20,16832904,-64
32-21,16836810,33
32-22,16840716,68
32-23,16844622,3
32-24,16848528,-39
32-25,16852434,17
32-26,16856340,65
32-27,16860246,-11
32-28,16864152,-93
32-29,16868058,-54
32-30,16871964,-6
32-31,16875870,-70
32-32,16879776,-176
32-1,16883779,-193
32-2,16887685,-121
32-3,16891591,-113
32-4,16895497,-198
32-5,16899403,-237
32-6,16903309,-169
32-7,16907215,-79
32-8,16911121,-93
32-9,16915027,-165
32-10,16918933,-139
32-11,16922839,-61
32-12,16926745,-85
32-13,16930651,-163
32-14,16934557,-138
32-15,16938463,-50
32-16,16942369,-68
32-17,16946275,-163
32-18,16950181,-166
32-19,16954087,-70
32-20,16957993,-36
32-21,16961899,-123
32-22,16965805,-177
32-23,16969711,-111
32-24,16973617,-32
32-25,16977523,-38
32-26,16981429,-93
32-27,16985335,-94
32-28,16989241,-8
32-29,16993147,12
32-30,16997053,-122
32-31,17000959,-148
32-32,17004865,-1
32-1,17008685,-2
32-2,17012591,-149
32-3,17016497,-176
32-4,17020403,-95
32-5,17024309,-66
32-6,17028215,-137
32-7,17032121,-193
32-8,17036027,-134
32-9,17039933,-78
32-10,17043839,-138
32-11,17047745,-183
32-12,17051651,-112
32-13,17055557,-44
32-14,17059463,-96
32-15,17063369,-197
32-16,17067275,-189
32-17,17071181,-90
32-18,17075087,-70
32-19,17078993,-154
32-20,17082899,-178
32-21,17086805,-73
32-22,17090711,-25
32-23,17094617,-94
32-24,17098523,-109
32-25,17102429,-21
32-26,17106335,58
32-27,17110241,7
32-28,17114147,-73
32-29,17118053,6
32-30,17121959,104
32-31,17125865,51
32-32,17129771,-39
32-1,17133683,-43
32-2,17137589,16
32-3,17141495,28
32-4,17145401,-43
32-5,17149307,-98
32-6,17153213,-53
32-7,17157119,-4
32-8,17161025,-65
32-9,17164931,-120
32-10,17168837,-63
32-11,17172743,-4
32-12,17176649,-66
32-13,17180555,-173
32-14,17184461,-179
32-15,17188367,-135
32-16,17192273,-179
32-17,17196179,-294
32-18,17200085,-345
32-19,17203991,-261
32-20,17207897,-180
32-21,17211803,-217
32-22,17215709,-263
32-23,17219615,-221
32-24,17223521,-171
32-25,17227427,-210
32-26,17231333,-277
32-27,17235239,-273
32-28,17239145,-196
32-29,17243051,-158
32-30,17246957,-230
32-31,17250863,-250
32-32,17254769,-151
32-1,17258681,-136
32-2,17262587,-219
32-3,17266493,-232
32-4,17270399,-181
32-5,17274305,-160
32-6,17278211,-205
32-7,17282117,-242
32-8,17286023,-222
32-9,17289929,-198
32-10,17293835,-223
32-11,17297741,-267
32-12,17301647,-255
32-13,17305553,-207
32-14,17309459,-243
32-15,17313365,-350
32-16,17317271,-388
32-17,17321177,-346
32-18,17325083,-345
32-19,17328989,-393
32-20,17332895,-380
32-21,17336801,-291
32-22,17340707,-242
32-23,17344613,-286
32-24,17348519,-313
32-25,17352425,-240
32-26,17356331,-172
32-27,17360237,-213
32-28,17364143,-254
32-29,17368049,-193
32-30,17371955,-129
32-31,17375861,-137
32-32,17379767,-163
32-1,17383678,-162
32-2,17387584,-106
32-3,17391490,-70
32-4,17395396,-111
32-5,17399302,-134
32-6,17403208,-106
32-7,17407114,-94
32-8,17411020,-136
32-9,17414926,-182
32-10,17418832,-143
32-11,17422738,-86
32-12,17426644,-129
32-13,17430550,-206
32-14,17434456,-215
32-15,17438362,-193
32-16,17442268,-214
32-17,17446174,-253
32-18,17450080,-250
32-19,17453986,-216
32-20,17457892,-196
32-21,17461798,-221
32-22,17465704,-238
32-23,17469610,-199
32-24,17473516,-178
32-25,17477422,-198
32-26,17481328,-197
32-27,17485234,-173
32-28,17489140,-115
32-29,17493046,-71
32-30,17496952,-114
32-31,17500858,-118
32-32,17504764,-55
32-1,17508798,-57
32-2,17512704,-95
32-3,17516610,-94
32-4,17520516,-76
32-5,17524422,-66
32-6,17528328,-69
32-7,17532234,-65
32-8,17536140,-39
32-9,17540046,-28
32-10,17543952,-70
32-11,17547858,-114
32-12,17551764,-102
32-13,17555670,-74
32-14,17559576,-79
32-15,17563482,-107
32-16,17567388,-115
32-17,17571294,-105
32-18,17575200,-122
32-19,17579106,-181
32-20,17583012,-221
32-21,17586918,-177
32-22,17590824,-141
32-23,17594730,-187
32-24,17598636,-210
32-25,17602542,-188
32-26,17606448,-182
32-27,17610354,-203
32-28,17614260,-199
32-29,17618166,-140
32-30,17622072,-124
32-31,17625978,-166
32-32,17629884,-206
32-1,17633704,-228
32-2,17637610,-210
32-3,17641516,-197
32-4,17645422,-231
32-5,17649328,-265
32-6,17653234,-258
32-7,17657140,-236
32-8,17661046,-257
32-9,17664952,-272
32-10,17668858,-230
32-11,17672764,-197
32-12,17676670,-210
32-13,17680576,-227
32-14,17684482,-222
32-15,17688388,-224
32-16,17692294,-236
32-17,17696200,-231
32-18,17700106,-227
32-19,17704012,-209
32-20,17707918,-189
32-21,17711824,-227
32-22,17715730,-247
32-23,17719636,-188
32-24,17723542,-138
32-25,17727448,-157
32-26,17731354,-174
32-27,17735260,-167
32-28,17739166,-142
32-29,17743072,-92
32-30,17746978,-120
32-31,17750884,-191
32-32,17754790,-157
32-1,17758671,-128
32-2,17762577,-172
32-3,17766483,-174
32-4,17770389,-151
32-5,17774295,-162
32-6,17778201,-167
32-7,17782107,-143
32-8,17786013,-135
32-9,17789919,-154
32-10,17793825,-164
32-11,17797731,-177
32-12,17801637,-195
32-13,17805543,-196
32-14,17809449,-193
32-15,17813355,-199
32-16,17817261,-211
32-17,17821167,-202
32-18,17825073,-178
32-19,17828979,-194
32-20,17832885,-212
32-21,17836791,-180
32-22,17840697,-156
32-23,17844603,-171
32-24,17848509,-182
32-25,17852415,-164
32-26,17856321,-135
32-27,17860227,-160
32-28,17864133,-186
32-29,17868039,-106
32-30,17871945,-71
32-31,17875851,-153
32-32,17879757,-186
32-1,17883669,-160
32-2,17887575,-140
32-3,17891481,-132
32-4,17895387,-146
32-5,17899293,-160
32-6,17903199,-146
32-7,17907105,-114
32-8,17911011,-107
32-9,17914917,-115
32-10,17918823,-105
32-11,17922729,-86
32-12,17926635,-75
32-13,17930541,-94
32-14,17934447,-112
32-15,17938353,-116
32-16,17942259,-168
32-17,17946165,-218
32-18,17950071,-205
32-19,17953977,-194
32-20,17957883,-214
32-21,17961789,-240
32-22,17965695,-238
32-23,17969601,-200
32-24,17973507,-170
32-25,17977413,-173
32-26,17981319,-169
32-27,17985225,-140
32-28,17989131,-73
32-29,17993037,-31
32-30,17996943,-83
32-31,18000849,-135
32-32,18004755,-132
32-1,18008666,-122
32-2,18012572,-115
32-3,18016478,-120
32-4,18020384,-108
32-5,18024290,-77
32-6,18028196,-87
32-7,18032102,-115
32-8,18036008,-114
32-9,18039914,-101
32-10,18043820,-98
32-11,18047726,-101
32-12,18051632,-84
32-13,18055538,-70
32-14,18059444,-112
32-15,18063350,-152
32-16,18067256,-131
32-17,18071162,-102
32-18,18075068,-100
32-19,18078974,-99
32-20,18082880,-84
32-21,18086786,-49
32-22,18090692,-29
32-23,18094598,-50
32-24,18098504,-99
32-25,18102410,-130
32-26,18106316,-116
32-27,18110222,-120
32-28,18114128,-121
32-29,18118034,-87
32-30,18121940,-124
32-31,18125846,-187
32-32,18129752,-194
32-1,18133786,-195
32-2,18137692,-183
32-3,18141598,-163
32-4,18145504,-167
32-5,18149410,-173
32-6,18153316,-159
32-7,18157222,-132
32-8,18161128,-146
32-9,18165034,-172
32-10,18168940,-163
32-11,18172846,-146
32-12,18176752,-151
32-13,18180658,-184
32-14,18184564,-223
32-15,18188470,-237
32-16,18192376,-240
32-17,18196282,-249
32-18,18200188,-243
32-19,18204094,-217
32-20,18208000,-215
32-21,18211906,-256
32-22,18215812,-279
32-23,18219718,-244
32-24,18223624,-194
32-25,18227530,-188
32-26,18231436,-188
32-27,18235342,-167
32-28,18239248,-141
32-29,18243154,-132
32-30,18247060,-170
32-31,18250966,-185
32-32,18254872,-152
32-1,18258662,-156
32-2,18262568,-199
32-3,18266474,-207
32-4,18270380,-163
32-5,18274286,-147
32-6,18278192,-185
32-7,18282098,-191
32-8,18286004,-161
32-9,18289910,-168
32-10,18293816,-204
32-11,18297722,-228
32-12,18301628,-232
32-13,18305534,-201
32-14,18309440,-177
32-15,18313346,-195
32-16,18317252,-190
32-17,18321158,-164
32-18,18325064,-161
32-19,18328970,-149
32-20,18332876,-133
32-21,18336782,-136
32-22,18340688,-138
32-23,18344594,-126
32-24,18348500,-120
32-25,18352406,-112
32-26,18356312,-83
32-27,18360218,-82
32-28,18364124,-91
32-29,18368030,-74
32-30,18371936,-97
32-31,18375842,-122
32-32,18379748,-98
32-1,18383690,-93
32-2,18387596,-104
32-3,18391502,-114
32-4,18395408,-146
32-5,18399314,-169
32-6,18403220,-161
32-7,18407126,-162
32-8,18411032,-200
32-9,18414938,-211
32-10,18418844,-179
32-11,18422750,-171
32-12,18426656,-189
32-13,18430562,-205
32-14,18434468,-198
32-15,18438374,-158
32-16,18442280,-132
32-17,18446186,-143
32-18,18450092,-148
32-19,18453998,-137
32-20,18457904,-154
32-21,18461810,-160
32-22,18465716,-131
32-23,18469622,-125
32-24,18473528,-135
32-25,18477434,-128
32-26,18481340,-121
32-27,18485246,-141
32-28,18489152,-134
32-29,18493058,-82
32-30,18496964,-113
32-31,18500870,-181
32-32,18504776,-164
32-1,18508657,-163
32-2,18512563,-201
32-3,18516469,-189
32-4,18520375,-151
32-5,18524281,-140
32-6,18528187,-155
32-7,18532093,-158
32-8,18535999,-144
32-9,18539905,-130
32-10,18543811,-133
32-11,18547717,-141
32-12,18551623,-124
32-13,18555529,-96
32-14,18559435,-90
32-15,18563341,-102
32-16,18567247,-97
32-17,18571153,-68
32-18,18575059,-46
32-19,18578965,-41
32-20,18582871,-54
32-21,18586777,-78
32-22,18590683,-78
32-23,18594589,-55
32-24,18598495,-30
32-25,18602401,-10
32-26,18606307,0
32-27,18610213,-5
32-28,18614119,-2
32-29,18618025,31
32-30,18621931,20
32-31,18625837,-24
32-32,18629743,-13
32-1,18633655,-1
32-2,18637561,-30
32-3,18641467,-43
32-4,18645373,-42
32-5,18649279,-44
32-6,18653185,-40
32-7,18657091,-42
32-8,18660997,-33
32-9,18664903,0
32-10,18668809,1
32-11,18672715,-13
32-12,18676621,4
32-13,18680527,21
32-14,18684433,22
32-15,18688339,32
32-16,18692245,36
32-17,18696151,33
32-18,18700057,32
32-19,18703963,23
32-20,18707869,19
32-21,18711775,24
32-22,18715681,23
32-23,18719587,18
32-24,18723493,16
32-25,18727399,15
32-26,18731305,6
32-27,18735211,-5
32-28,18739117,11
32-29,18743023,41
32-30,18746929,41
32-31,18750835,21
32-32,18754741,1
32-1,18758774,-12
32-2,18762680,-12
32-3,18766586,6
32-4,18770492,21
32-5,18774398,12
32-6,18778304,10
32-7,18782210,36
32-8,18786116,59
32-9,18790022,75
32-10,18793928,63
32-11,18797834,32
32-12,18801740,45
32-13,18805646,69
32-14,18809552,46
32-15,18813458,34
32-16,18817364,54
32-17,18821270,56
32-18,18825176,56
32-19,18829082,77
32-20,18832988,88
32-21,18836894,91
32-22,18840800,95
32-23,18844706,85
32-24,18848612,48
32-25,18852518,15
32-26,18856424,33
32-27,18860330,55
32-28,18864236,66
32-29,18868142,80
32-30,18872048,50
32-31,18875954,11
32-32,18879860,21
32-1,18883650,39
32-2,18887556,55
32-3,18891462,73
32-4,18895368,71
32-5,18899274,61
32-6,18903180,60
32-7,18907086,78
32-8,18910992,99
32-9,18914898,102
32-10,18918804,99
32-11,18922710,96
32-12,18926616,80
32-13,18930522,76
32-14,18934428,87
32-15,18938334,99
32-16,18942240,119
32-17,18946146,114
32-18,18950052,87
32-19,18953958,89
32-20,18957864,93
32-21,18961770,69
32-22,18965676,59
32-23,18969582,74
32-24,18973488,78
32-25,18977394,87
32-26,18981300,89
32-27,18985206,60
32-28,18989112,77
32-29,18993018,120
32-30,18996924,80
32-31,19000830,27
32-32,19004736,27
32-1,19008648,40
32-2,19012554,70
32-3,19016460,114
32-4,19020366,130
32-5,19024272,114
32-6,19028178,112
32-7,19032084,124
32-8,19035990,99
32-9,19039896,77
32-10,19043802,66
32-11,19047708,30
32-12,19051614,26
32-13,19055520,52
32-14,19059426,50
32-15,19063332,38
32-16,19067238,34
32-17,19071144,30
32-18,19075050,37
32-19,19078956,44
32-20,19082862,36
32-21,19086768,38
32-22,19090674,47
32-23,19094580,60
32-24,19098486,73
32-25,19102392,62
32-26,19106298,70
32-27,19110204,82
32-28,19114110,85
32-29,19118016,118
32-30,19121922,96
32-31,19125828,32
32-32,19129734,24
32-1,19133645,16
32-2,19137551,-2
32-3,19141457,5
32-4,19145363,4
32-5,19149269,0
32-6,19153175,22
32-7,19157081,37
32-8,19160987,13
32-9,19164893,-7
32-10,19168799,18
32-11,19172705,43
32-12,19176611,20
32-13,19180517,-28
32-14,19184423,-26
32-15,19188329,12
32-16,19192235,32
32-17,19196141,57
32-18,19200047,76
32-19,19203953,63
32-20,19207859,57
32-21,19211765,53
32-22,19215671,30
32-23,19219577,11
32-24,19223483,6
32-25,19227389,16
32-26,19231295,33
32-27,19235201,13
32-28,19239107,6
32-29,19243013,50
32-30,19246919,39
32-31,19250825,-16
32-32,19254731,-18
32-1,19258643,14
32-2,19262549,31
32-3,19266455,28
32-4,19270361,22
32-5,19274267,23
32-6,19278173,25
32-7,19282079,30
32-8,19285985,47
32-9,19289891,66
32-10,19293797,60
32-11,19297703,43
32-12,19301609,40
32-13,19305515,39
32-14,19309421,49
32-15,19313327,69
32-16,19317233,80
32-17,19321139,69
32-18,19325045,26
32-19,19328951,-2
32-20,19332857,14
32-21,19336763,28
32-22,19340669,5
32-23,19344575,-9
32-24,19348481,-2
32-25,19352387,-3
32-26,19356293,0
32-27,19360199,-11
32-28,19364105,-5
32-29,19368011,50
32-30,19371917,27
32-31,19375823,-46
32-32,19379729,-44
32-1,19383640,-31
32-2,19387546,-31
32-3,19391452,-10
32-4,19395358,14
32-5,19399264,24
32-6,19403170,9
32-7,19407076,-9
32-8,19410982,-23
32-9,19414888,-37
32-10,19418794,-29
32-11,19422700,-6
32-12,19426606,5
32-13,19430512,19
32-14,19434418,33
32-15,19438324,22
32-16,19442230,10
32-17,19446136,29
32-18,19450042,44
32-19,19453948,29
32-20,19457854,17
32-21,19461760,21
32-22,19465666,13
32-23,19469572,11
32-24,19473478,10
32-25,19477384,-17
32-26,19481290,-37
32-27,19485196,-46
32-28,19489102,-46
32-29,19493008,-23
32-30,19496914,-29
32-31,19500820,-40
32-32,19504726,-25
32-1,19508638,-28
32-2,19512544,-47
32-3,19516450,-62
32-4,19520356,-52
32-5,19524262,-16
32-6,19528168,-16
32-7,19532074,-34
32-8,19535980,-31
32-9,19539886,-22
32-10,19543792,-26
32-11,19547698,-36
32-12,19551604,-51
32-13,19555510,-63
32-14,19559416,-56
32-15,19563322,-48
32-16,19567228,-54
32-17,19571134,-58
32-18,19575040,-45
32-19,19578946,-21
32-20,19582852,-6
32-21,19586758,1
32-22,19590664,-4
32-23,19594570,-16
32-24,19598476,-25
32-25,19602382,-35
32-26,19606288,-29
32-27,19610194,-18
32-28,19614100,-15
32-29,19618006,3
32-30,19621912,-13
32-31,19625818,-50
32-32,19629724,-33
32-1,19633636,-6
32-2,19637542,3
32-3,19641448,11
32-4,19645354,14
32-5,19649260,25
32-6,19653166,39
32-7,19657072,40
32-8,19660978,47
32-9,19664884,55
32-10,19668790,53
32-11,19672696,52
32-12,19676602,37
32-13,19680508,23
32-14,19684414,42
32-15,19688320,62
32-16,19692226,57
32-17,19696132,50
32-18,19700038,62
32-19,19703944,69
32-20,19707850,40
32-21,19711756,18
32-22,19715662,32
32-23,19719568,40
32-24,19723474,23
32-25,19727380,2
32-26,19731286,2
32-27,19735192,5
32-28,19739098,25
32-29,19743004,65
32-30,19746910,48
32-31,19750816,26
32-32,19754722,40
32-1,19758633,38
32-2,19762539,40
32-3,19766445,42
32-4,19770351,28
32-5,19774257,22
32-6,19778163,13
32-7,19782069,1
32-8,19785975,-7
32-9,19789881,-28
32-10,19793787,-56
32-11,19797693,-59
32-12,19801599,-30
32-13,19805505,4
32-14,19809411,12
32-15,19813317,-8
32-16,19817223,-1
32-17,19821129,26
32-18,19825035,26
32-19,19828941,32
32-20,19832847,54
32-21,19836753,62
32-22,19840659,39
32-23,19844565,11
32-24,19848471,14
32-25,19852377,47
32-26,19856283,77
32-27,19860189,56
32-28,19864095,56
32-29,19868001,114
32-30,19871907,110
32-31,19875813,49
32-32,19879719,14
32-1,19883661,16
32-2,19887567,49
32-3,19891473,61
32-4,19895379,34
32-5,19899285,23
32-6,19903191,46
32-7,19907097,52
32-8,19911003,20
32-9,19914909,15
32-10,19918815,52
32-11,19922721,59
32-12,19926627,25
32-13,19930533,0
32-14,19934439,5
32-15,19938345,25
32-16,19942251,27
32-17,19946157,8
32-18,19950063,17
32-19,19953969,56
32-20,19957875,79
32-21,19961781,73
32-22,19965687,84
32-23,19969593,159
32-24,19973499,225
32-25,19977405,228
32-26,19981311,240
32-27,19985217,269
32-28,19989123,321
32-29,19993029,407
32-30,19996935,434
32-31,20000841,440
32-32,20004747,521
32-1,20008629,579
32-2,20012535,594
32-3,20016441,649
32-4,20020347,729
32-5,20024253,809
32-6,20028159,867
32-7,20032065,907
32-8,20035971,983
32-9,20039877,1042
32-10,20043783,1020
32-11,20047689,1000
32-12,20051595,1026
32-13,20055501,1061
32-14,20059407,1052
32-15,20063313,999
32-16,20067219,959
32-17,20071125,933
32-18,20075031,875
32-19,20078937,795
32-20,20082843,729
32-21,20086749,697
32-22,20090655,664
32-23,20094561,603
32-24,20098467,548
32-25,20102373,545
32-26,20106279,556
32-27,20110185,496
32-28,20114091,453
32-29,20117997,492
32-30,20121903,458
32-31,20125809,358
32-32,20129715,315
32-1,20133626,310
32-2,20137532,328
32-3,20141438,312
32-4,20145344,216
32-5,20149250,172
32-6,20153156,216
32-7,20157062,213
32-8,20160968,150
32-9,20164874,115
32-10,20168780,123
32-11,20172686,122
32-12,20176592,84
32-13,20180498,46
32-14,20184404,52
32-15,20188310,88
32-16,20192216,108
32-17,20196122,100
32-18,20200028,137
32-19,20203934,233
32-20,20207840,282
32-21,20211746,292
32-22,20215652,317
32-23,20219558,337
32-24,20223464,337
32-25,20227370,290
32-26,20231276,227
32-27,20235182,198
32-28,20239088,214
32-29,20242994,226
32-30,20246900,161
32-31,20250806,109
32-32,20254712,105
32-1,20258624,25
32-2,20262530,-62
32-3,20266436,-44
32-4,20270342,11
32-5,20274248,31
32-6,20278154,0
32-7,20282060,-39
32-8,20285966,-18
32-9,20289872,14
32-10,20293778,-9
32-11,20297684,-45
32-12,20301590,-19
32-13,20305496,39
32-14,20309402,19
32-15,20313308,-42
32-16,20317214,-1
32-17,20321120,74
32-18,20325026,51
32-19,20328932,-25
32-20,20332838,-45
32-21,20336744,7
32-22,20340650,38
32-23,20344556,5
32-24,20348462,-2
32-25,20352368,58
32-26,20356274,103
32-27,20360180,73
32-28,20364086,35
32-29,20367992,67
32-30,20371898,108
32-31,20375804,82
32-32,20379710,40
32-1,20383621,49
32-2,20387527,82
32-3,20391433,55
32-4,20395339,-6
32-5,20399245,-5
32-6,20403151,97
32-7,20407057,180
32-8,20410963,109
32-9,20414869,4
32-10,20418775,46
32-11,20422681,127
32-12,20426587,71
32-13,20430493,-35
32-14,20434399,-25
32-15,20438305,25
32-16,20442211,-18
32-17,20446117,-95
32-18,20450023,-104
32-19,20453929,-67
32-20,20457835,-90
32-21,20461741,-195
32-22,20465647,-262
32-23,20469553,-229
32-24,20473459,-221
32-25,20477365,-329
32-26,20481271,-420
32-27,20485177,-389
32-28,20489083,-323
32-29,20492989,-360
32-30,20496895,-494
32-31,20500801,-532
32-32,20504707,-460
32-1,20508619,-485
32-2,20512525,-584
32-3,20516431,-567
32-4,20520337,-444
32-5,20524243,-404
32-6,20528149,-483
32-7,20532055,-508
32-8,20535961,-435
32-9,20539867,-400
32-10,20543773,-469
32-11,20547679,-525
32-12,20551585,-442
32-13,20555491,-353
32-14,20559397,-421
32-15,20563303,-519
32-16,20567209,-484
32-17,20571115,-386
32-18,20575021,-395
32-19,20578927,-489
32-20,20582833,-477
32-21,20586739,-369
32-22,20590645,-359
32-23,20594551,-446
32-24,20598457,-465
32-25,20602363,-354
32-26,20606269,-264
32-27,20610175,-360
32-28,20614081,-447
32-29,20617987,-348
32-30,20621893,-271
32-31,20625799,-335
32-32,20629705,-413
32-1,20633617,-393
32-2,20637523,-288
32-3,20641429,-276
32-4,20645335,-376
32-5,20649241,-370
32-6,20653147,-273
32-7,20657053,-276
32-8,20660959,-370
32-9,20664865,-423
32-10,20668771,-366
32-11,20672677,-295
32-12,20676583,-370
32-13,20680489,-473
32-14,20684395,-437
32-15,20688301,-365
32-16,20692207,-392
32-17,20696113,-466
32-18,20700019,-437
32-19,20703925,-330
32-20,20707831,-308
32-21,20711737,-351
32-22,20715643,-330
32-23,20719549,-232
32-24,20723455,-178
32-25,20727361,-241
32-26,20731267,-281
32-27,20735173,-218
32-28,20739079,-141
32-29,20742985,-156
32-30,20746891,-243
32-31,20750797,-216
32-32,20754703,-113
32-1,20758614,-165
32-2,20762520,-291
32-3,20766426,-269
32-4,20770332,-174
32-5,20774238,-186
32-6,20778144,-292
32-7,20782050,-333
32-8,20785956,-265
32-9,20789862,-232
32-10,20793768,-299
32-11,20797674,-330
32-12,20801580,-257
32-13,20805486,-198
32-14,20809392,-228
32-15,20813298,-266
32-16,20817204,-222
32-17,20821110,-145
32-18,20825016,-158
32-19,20828922,-240
32-20,20832828,-231
32-21,20836734,-122
32-22,20840640,-84
32-23,20844546,-145
32-24,20848452,-174
32-25,20852358,-112
32-26,20856264,-68
32-27,20860170,-153
32-28,20864076,-212
32-29,20867982,-110
32-30,20871888,-38
32-31,20875794,-133
32-32,20879700,-250
32-1,20883612,-227
32-2,20887518,-131
32-3,20891424,-137
32-4,20895330,-226
32-5,20899236,-231
32-6,20903142,-133
32-7,20907048,-98
32-8,20910954,-195
32-9,20914860,-261
32-10,20918766,-200
32-11,20922672,-116
32-12,20926578,-137
32-13,20930484,-209
32-14,20934390,-167
32-15,20938296,-61
32-16,20942202,-62
32-17,20946108,-113
32-18,20950014,-75
32-19,20953920,17
32-20,20957826,25
32-21,20961732,-59
32-22,20965638,-74
32-23,20969544,37
32-24,20973450,114
32-25,20977356,59
32-26,20981262,26
32-27,20985168,100
32-28,20989074,177
32-29,20992980,158
32-30,20996886,65
32-31,21000792,64
32-32,21004698,139
32-1,21008610,84
32-2,21012516,-24
32-3,21016422,-6
32-4,21020328,68
32-5,21024234,64
32-6,21028140,5
32-7,21032046,22
32-8,21035952,114
32-9,21039858,142
32-10,21043764,63
32-11,21047670,22
32-12,21051576,88
32-13,21055482,140
32-14,21059388,74
32-15,21063294,-18
32-16,21067200,41
32-17,21071106,177
32-18,21075012,178
32-19,21078918,87
32-20,21082824,88
32-21,21086730,207
32-22,21090636,267
32-23,21094542,185
32-24,21098448,150
32-25,21102354,217
32-26,21106260,236
32-27,21110166,184
32-28,21114072,175
32-29,21117978,253
32-30,21121884,296
32-31,21125790,223
32-32,21129696,135
32-1,21133607,120
32-2,21137513,159
32-3,21141419,132
32-4,21145325,36
32-5,21149231,50
32-6,21153137,153
32-7,21157043,168
32-8,21160949,97
32-9,21164855,68
32-10,21168761,130
32-11,21172667,198
32-12,21176573,176
32-13,21180479,105
32-14,21184385,112
32-15,21188291,183
32-16,21192197,164
32-17,21196103,100
32-18,21200009,141
32-19,21203915,223
32-20,21207821,224
32-21,21211727,165
32-22,21215633,160
32-23,21219539,222
32-24,21223445,224
32-25,21227351,158
32-26,21231257,138
32-27,21235163,188
32-28,21239069,250
32-29,21242975,232
32-30,21246881,161
32-31,21250787,175
32-32,21254693,225
32-1,21258605,165
32-2,21262511,67
32-3,21266417,83
32-4,21270323,184
32-5,21274229,191
32-6,21278135,91
32-7,21282041,83
32-8,21285947,166
32-9,21289853,168
32-10,21293759,91
32-11,21297665,57
32-12,21301571,94
32-13,21305477,124
32-14,21309383,83
32-15,21313289,39
32-16,21317195,78
32-17,21321101,128
32-18,21325007,75
32-19,21328913,-23
32-20,21332819,-32
32-21,21336725,46
32-22,21340631,82
32-23,21344537,33
32-24,21348443,-4
32-25,21352349,23
32-26,21356255,12
32-27,21360161,-107
32-28,21364067,-174
32-29,21367973,-92
32-30,21371879,-39
32-31,21375785,-114
32-32,21379691,-172
32-1,21383603,-129
32-2,21387509,-52
32-3,21391415,-71
32-4,21395321,-174
32-5,21399227,-184
32-6,21403133,-79
32-7,21407039,-50
32-8,21410945,-127
32-9,21414851,-133
32-10,21418757,-49
32-11,21422663,-29
32-12,21426569,-105
32-13,21430475,-157
32-14,21434381,-120
32-15,21438287,-61
32-16,21442193,-91
32-17,21446099,-161
32-18,21450005,-142
32-19,21453911,-64
32-20,21457817,-64
32-21,21461723,-150
32-22,21465629,-185
32-23,21469535,-116
32-24,21473441,-78
32-25,21477347,-132
32-26,21481253,-143
32-27,21485159,-90
32-28,21489065,-47
32-29,21492971,-72
32-30,21496877,-179
32-31,21500783,-198
32-32,21504689,-106
32-1,21508600,-129
32-2,21512506,-228
32-3,21516412,-194
32-4,21520318,-80
32-5,21524224,-79
32-6,21528130,-198
32-7,21532036,-244
32-8,21535942,-167
32-9,21539848,-101
32-10,21543754,-127
32-11,21547660,-164
32-12,21551566,-99
32-13,21555472,-10
32-14,21559378,-50
32-15,21563284,-143
32-16,21567190,-146
32-17,21571096,-93
32-18,21575002,-106
32-19,21578908,-183
32-20,21582814,-186
32-21,21586720,-88
32-22,21590626,-72
32-23,21594532,-172
32-24,21598438,-198
32-25,21602344,-117
32-26,21606250,-72
32-27,21610156,-134
32-28,21614062,-156
32-29,21617968,-36
32-30,21621874,17
32-31,21625780,-89
32-32,21629686,-158
32-1,21633598,-109
32-2,21637504,-53
32-3,21641410,-100
32-4,21645316,-201
32-5,21649222,-211
32-6,21653128,-142
32-7,21657034,-123
32-8,21660940,-188
32-9,21664846,-214
32-10,21668752,-119
32-11,21672658,-18
32-12,21676564,-63
32-13,21680470,-143
32-14,21684376,-92
32-15,21688282,-7
32-16,21692188,-44
32-17,21696094,-138
32-18,21700000,-119
32-19,21703906,-32
32-20,21707812,-47
32-21,21711718,-126
32-22,21715624,-125
32-23,21719530,-44
32-24,21723436,-36
32-25,21727342,-135
32-26,21731248,-166
32-27,21735154,-97
32-28,21739060,-27
32-29,21742966,-37
32-30,21746872,-116
32-31,21750778,-88
32-32,21754684,20
32-1,21758595,-24
32-2,21762501,-119
32-3,21766407,-96
32-4,21770313,-22
32-5,21774219,-36
32-6,21778125,-148
32-7,21782031,-187
32-8,21785937,-89
32-9,21789843,-44
32-10,21793749,-133
32-11,21797655,-189
32-12,21801561,-119
32-13,21805467,-44
32-14,21809373,-86
32-15,21813279,-153
32-16,21817185,-88
32-17,21821091,23
32-18,21824997,7
32-19,21828903,-83
32-20,21832809,-76
32-21,21836715,7
32-22,21840621,10
32-23,21844527,-57
32-24,21848433,-60
32-25,21852339,15
32-26,21856245,77
32-27,21860151,24
32-28,21864057,-14
32-29,21867963,104
32-30,21871869,170
32-31,21875775,68
32-32,21879681,-12
32-1,21883593,29
32-2,21887499,113
32-3,21891405,131
32-4,21895311,86
32-5,21899217,97
32-6,21903123,183
32-7,21907029,213
32-8,21910935,143
32-9,21914841,141
32-10,21918747,255
32-11,21922653,316
32-12,21926559,257
32-13,21930465,207
32-14,21934371,275
32-15,21938277,366
32-16,21942183,360
32-17,21946089,329
32-18,21949995,392
32-19,21953901,516
32-20,21957807,542
32-21,21961713,457
32-22,21965619,464
32-23,21969525,597
32-24,21973431,642
32-25,21977337,551
32-26,21981243,523
32-27,21985149,627
32-28,21989055,719
32-29,21992961,687
32-30,21996867,609
32-31,22000773,651
32-32,22004679,757
32-1,22008591,722
32-2,22012497,636
32-3,22016403,706
32-4,22020309,854
32-5,22024215,885
32-6,22028121,815
32-7,22032027,809
32-8,22035933,896
32-9,22039839,942
32-10,22043745,892
32-11,22047651,845
32-12,22051557,908
32-13,22055463,984
32-14,22059369,899
32-15,22063275,784
32-16,22067181,827
32-17,22071087,894
32-18,22074993,809
32-19,22078899,678
32-20,22082805,710
32-21,22086711,848
32-22,22090617,839
32-23,22094523,701
32-24,22098429,662
32-25,22102335,763
32-26,22106241,845
32-27,22110147,812
32-28,22114053,801
32-29,22117959,926
32-30,22121865,1000
32-31,22125771,899
32-32,22129677,828
32-1,22133619,908
32-2,22137525,983
32-3,22141431,927
32-4,22145337,805
32-5,22149243,775
32-6,22153149,872
32-7,22157055,905
32-8,22160961,760
32-9,22164867,641
32-10,22168773,690
32-11,22172679,705
32-12,22176585,573
32-13,22180491,512
32-14,22184397,609
32-15,22188303,677
32-16,22192209,592
32-17,22196115,488
32-18,22200021,545
32-19,22203927,650
32-20,22207833,613
32-21,22211739,508
32-22,22215645,482
32-23,22219551,540
32-24,22223457,550
32-25,22227363,451
32-26,22231269,398
32-27,22235175,458
32-28,22239081,519
32-29,22242987,469
32-30,22246893,312
32-31,22250799,292
32-32,22254705,435
32-1,22258586,392
32-2,22262492,232
32-3,22266398,256
32-4,22270304,376
32-5,22274210,356
32-6,22278116,214
32-7,22282022,185
32-8,22285928,319
32-9,22289834,375
32-10,22293740,242
32-11,22297646,129
32-12,22301552,201
32-13,22305458,253
32-14,22309364,106
32-15,22313270,-10
32-16,22317176,56
32-17,22321082,143
32-18,22324988,77
32-19,22328894,-74
32-20,22332800,-73
32-21,22336706,23
32-22,22340612,-42
32-23,22344518,-194
32-24,22348424,-228
32-25,22352330,-147
32-26,22356236,-102
32-27,22360142,-195
32-28,22364048,-269
32-29,22367954,-157
32-30,22371860,-85
32-31,22375766,-251
32-32,22379672,-372
32-1,22383553,-275
32-2,22387459,-172
32-3,22391365,-215
32-4,22395271,-324
32-5,22399177,-317
32-6,22403083,-201
32-7,22406989,-188
32-8,22410895,-290
32-9,22414801,-313
32-10,22418707,-240
32-11,22422613,-213
32-12,22426519,-312
32-13,22430425,-413
32-14,22434331,-353
32-15,22438237,-261
32-16,22442143,-356
32-17,22446049,-531
32-18,22449955,-560
32-19,22453861,-464
32-20,22457767,-467
32-21,22461673,-582
32-22,22465579,-589
32-23,22469485,-502
32-24,22473391,-520
32-25,22477297,-630
32-26,22481203,-668
32-27,22485109,-584
32-28,22489015,-504
32-29,22492921,-590
32-30,22496827,-714
32-31,22500733,-648
32-32,22504639,-541
32-1,22508581,-601
32-2,22512487,-695
32-3,22516393,-656
32-4,22520299,-537
32-5,22524205,-537
32-6,22528111,-660
32-7,22532017,-689
32-8,22535923,-610
32-9,22539829,-644
32-10,22543735,-822
32-11,22547641,-891
32-12,22551547,-783
32-13,22555453,-710
32-14,22559359,-777
32-15,22563265,-861
32-16,22567171,-796
32-17,22571077,-656
32-18,22574983,-666
32-19,22578889,-771
32-20,22582795,-754
32-21,22586701,-649
32-22,22590607,-660
32-23,22594513,-766
32-24,22598419,-782
32-25,22602325,-719
32-26,22606231,-713
32-27,22610137,-811
32-28,22614043,-908
32-29,22617949,-859
32-30,22621855,-781
32-31,22625761,-874
32-32,22629667,-1016
32-1,22633579,-1009
32-2,22637485,-929
32-3,22641391,-976
32-4,22645297,-1089
32-5,22649203,-1054
32-6,22653109,-922
32-7,22657015,-941
32-8,22660921,-1094
32-9,22664827,-1143
32-10,22668733,-1046
32-11,22672639,-992
32-12,22676545,-1078
32-13,22680451,-1164
32-14,22684357,-1097
32-15,22688263,-996
32-16,22692169,-1058
32-17,22696075,-1168
32-18,22699981,-1080
32-19,22703887,-884
32-20,22707793,-869
32-21,22711699,-999
32-22,22715605,-966
32-23,22719511,-766
32-24,22723417,-719
32-25,22727323,-854
32-26,22731229,-889
32-27,22735135,-777
32-28,22739041,-689
32-29,22742947,-754
32-30,22746853,-889
32-31,22750759,-878
32-32,22754665,-823
32-1,22758576,-946
32-2,22762482,-1080
32-3,22766388,-1024
32-4,22770294,-876
32-5,22774200,-849
32-6,22778106,-973
32-7,22782012,-1011
32-8,22785918,-841
32-9,22789824,-723
32-10,22793730,-814
32-11,22797636,-862
32-12,22801542,-715
32-13,22805448,-619
32-14,22809354,-720
32-15,22813260,-780
32-16,22817166,-674
32-17,22821072,-590
32-18,22824978,-641
32-19,22828884,-714
32-20,22832790,-670
32-21,22836696,-546
32-22,22840602,-558
32-23,22844508,-695
32-24,22848414,-706
32-25,22852320,-553
32-26,22856226,-474
32-27,22860132,-587
32-28,22864038,-611
32-29,22867944,-401
32-30,22871850,-293
32-31,22875756,-410
32-32,22879662,-463
32-1,22883635,-348
32-2,22887541,-211
32-3,22891447,-205
32-4,22895353,-255
32-5,22899259,-115
32-6,22903165,171
32-7,22907071,317
32-8,22910977,280
32-9,22914883,330
32-10,22918789,550
32-11,22922695,662
32-12,22926601,529
32-13,22930507,398
32-14,22934413,457
32-15,22938319,563
32-16,22942225,487
32-17,22946131,332
32-18,22950037,354
32-19,22953943,463
32-20,22957849,405
32-21,22961755,239
32-22,22965661,253
32-23,22969567,436
32-24,22973473,463
32-25,22977379,338
32-26,22981285,329
32-27,22985191,436
32-28,22989097,495
32-29,22993003,405
32-30,22996909,241
32-31,23000815,229
32-32,23004721,284
32-1,23008602,100
32-2,23012508,-145
32-3,23016414,-145
32-4,23020320,-76
32-5,23024226,-179
32-6,23028132,-358
32-7,23032038,-394
32-8,23035944,-288
32-9,23039850,-266
32-10,23043756,-383
32-11,23047662,-416
32-12,23051568,-262
32-13,23055474,-136
32-14,23059380,-227
32-15,23063286,-320
32-16,23067192,-198
32-17,23071098,-66
32-18,23075004,-133
32-19,23078910,-234
32-20,23082816,-182
32-21,23086722,-41
32-22,23090628,-28
32-23,23094534,-166
32-24,23098440,-187
32-25,23102346,-39
32-26,23106252,-30
32-27,23110158,-314
32-28,23114064,-436
32-29,23117970,-321
32-30,23121876,-799
32-31,23125782,-1620
32-32,23129688,-1811
32-1,23133569,-1618
32-2,23137475,-1558
32-3,23141381,-1651
32-4,23145287,-1783
32-5,23149193,-1805
32-6,23153099,-1816
32-7,23157005,-1984
32-8,23160911,-2112
32-9,23164817,-1995
32-10,23168723,-1861
32-11,23172629,-1876
32-12,23176535,-1927
32-13,23180441,-1965
32-14,23184347,-1895
32-15,23188253,-1802
32-16,23192159,-1887
32-17,23196065,-1977
32-18,23199971,-1866
32-19,23203877,-1708
32-20,23207783,-1714
32-21,23211689,-1796
32-22,23215595,-1759
32-23,23219501,-1617
32-24,23223407,-1578
32-25,23227313,-1685
32-26,23231219,-1708
32-27,23235125,-1590
32-28,23239031,-1528
32-29,23242937,-1614
32-30,23246843,-1712
32-31,23250749,-1633
32-32,23254655,-1483
32-1,23258567,-1515
32-2,23262473,-1611
32-3,23266379,-1541
32-4,23270285,-1397
32-5,23274191,-1366
32-6,23278097,-1444
32-7,23282003,-1435
32-8,23285909,-1273
32-9,23289815,-1207
32-10,23293721,-1337
32-11,23297627,-1390
32-12,23301533,-1257
32-13,23305439,-1169
32-14,23309345,-1243
32-15,23313251,-1295
32-16,23317157,-1177
32-17,23321063,-1008
32-18,23324969,-998
32-19,23328875,-1084
32-20,23332781,-1038
32-21,23336687,-891
32-22,23340593,-890
32-23,23344499,-990
32-24,23348405,-940
32-25,23352311,-761
32-26,23356217,-716
32-27,23360123,-852
32-28,23364029,-876
32-29,23367935,-688
32-30,23371841,-603
32-31,23375747,-710
32-32,23379653,-766
32-1,23383565,-666
32-2,23387471,-540
32-3,23391377,-557
32-4,23395283,-631
32-5,23399189,-562
32-6,23403095,-436
32-7,23407001,-444
32-8,23410907,-525
32-9,23414813,-501
32-10,23418719,-363
32-11,23422625,-292
32-12,23426531,-378
32-13,23430437,-436
32-14,23434343,-322
32-15,23438249,-224
32-16,23442155,-274
32-17,23446061,-321
32-18,23449967,-261
32-19,23453873,-175
32-20,23457779,-191
32-21,23461685,-288
32-22,23465591,-272
32-23,23469497,-138
32-24,23473403,-112
32-25,23477309,-219
32-26,23481215,-232
32-27,23485121,-114
32-28,23489027,-31
32-29,23492933,-57
32-30,23496839,-126
32-31,23500745,-103
32-32,23504651,-20
32-1,23508562,-49
32-2,23512468,-116
32-3,23516374,-53
32-4,23520280,60
32-5,23524186,72
32-6,23528092,16
32-7,23531998,32
32-8,23535904,110
32-9,23539810,120
32-10,23543716,53
32-11,23547622,31
32-12,23551528,107
32-13,23555434,150
32-14,23559340,89
32-15,23563246,61
32-16,23567152,146
32-17,23571058,217
32-18,23574964,170
32-19,23578870,100
32-20,23582776,131
32-21,23586682,221
32-22,23590588,221
32-23,23594494,134
32-24,23598400,126
32-25,23602306,226
32-26,23606212,274
32-27,23610118,195
32-28,23614024,171
32-29,23617930,288
32-30,23621836,334
32-31,23625742,239
32-32,23629648,186
32-1,23633835,257
32-2,23637741,328
32-3,23641647,280
32-4,23645553,216
32-5,23649459,252
32-6,23653365,335
32-7,23657271,360
32-8,23661177,317
32-9,23665083,328
32-10,23668989,415
32-11,23672895,428
32-12,23676801,345
32-13,23680707,315
32-14,23684613,397
32-15,23688519,450
32-16,23692425,387
32-17,23696331,345
32-18,23700237,400
32-19,23704143,454
32-20,23708049,431
32-21,23711955,374
32-22,23715861,392
32-23,23719767,480
32-24,23723673,490
32-25,23727579,424
32-26,23731485,429
32-27,23735391,497
32-28,23739297,543
32-29,23743203,540
32-30,23747109,483
32-31,23751015,467
32-32,23754921,504
32-1,23758558,464
32-2,23762464,394
32-3,23766370,417
32-4,23770276,466
32-5,23774182,421
32-6,23778088,353
32-7,23781994,411
32-8,23785900,524
32-9,23789806,532
32-10,23793712,442
32-11,23797618,405
32-12,23801524,481
32-13,23805430,535
32-14,23809336,487
32-15,23813242,453
32-16,23817148,515
32-17,23821054,575
32-18,23824960,535
32-19,23828866,468
32-20,23832772,486
32-21,23836678,558
32-22,23840584,554
32-23,23844490,478
32-24,23848396,473
32-25,23852302,538
32-26,23856208,560
32-27,23860114,494
32-28,23864020,460
32-29,23867926,544
32-30,23871832,567
32-31,23875738,477
32-32,23879644,457
32-1,23883555,497
32-2,23887461,515
32-3,23891367,509
32-4,23895273,481
32-5,23899179,487
32-6,23903085,541
32-7,23906991,550
32-8,23910897,499
32-9,23914803,488
32-10,23918709,543
32-11,23922615,566
32-12,23926521,495
32-13,23930427,449
32-14,23934333,502
32-15,23938239,532
32-16,23942145,470
32-17,23946051,424
32-18,23949957,486
32-19,23953863,563
32-20,23957769,521
32-21,23961675,437
32-22,23965581,439
32-23,23969487,497
32-24,23973393,499
32-25,23977299,428
32-26,23981205,411
32-27,23985111,465
32-28,23989017,486
32-29,23992923,460
32-30,23996829,411
32-31,24000735,416
32-32,24004641,473
32-1,24008553,422
32-2,24012459,351
32-3,24016365,420
32-4,24020271,501
32-5,24024177,464
32-6,24028083,401
32-7,24031989,427
32-8,24035895,487
32-9,24039801,459
32-10,24043707,389
32-11,24047613,400
32-12,24051519,465
32-13,24055425,468
32-14,24059331,397
32-15,24063237,364
32-16,24067143,418
32-17,24071049,457
32-18,24074955,417
32-19,24078861,387
32-20,24082767,439
32-21,24086673,501
32-22,24090579,468
32-23,24094485,384
32-24,24098391,362
32-25,24102297,425
32-26,24106203,461
32-27,24110109,382
32-28,24114015,345
32-29,24117921,450
32-30,24121827,469
32-31,24125733,345
32-32,24129639,309
32-1,24133550,382
32-2,24137456,418
32-3,24141362,381
32-4,24145268,330
32-5,24149174,339
32-6,24153080,389
32-7,24156986,389
32-8,24160892,341
32-9,24164798,352
32-10,24168704,432
32-11,24172610,469
32-12,24176516,409
32-13,24180422,358
32-14,24184328,403
32-15,24188234,440
32-16,24192140,389
32-17,24196046,334
32-18,24199952,373
32-19,24203858,446
32-20,24207764,416
32-21,24211670,355
32-22,24215576,385
32-23,24219482,441
32-24,24223388,428
32-25,24227294,362
32-26,24231200,336
32-27,24235106,370
32-28,24239012,395
32-29,24242918,363
32-30,24246824,312
32-31,24250730,341
32-32,24254636,384
32-1,24258701,315
32-2,24262607,259
32-3,24266513,320
32-4,24270419,376
32-5,24274325,327
32-6,24278231,274
32-7,24282137,333
32-8,24286043,413
32-9,24289949,392
32-10,24293855,317
32-11,24297761,303
32-12,24301667,373
32-13,24305573,390
32-14,24309479,306
32-15,24313385,289
32-16,24317291,371
32-17,24321197,416
32-18,24325103,370
32-19,24329009,307
32-20,24332915,328
32-21,24336821,394
32-22,24340727,397
32-23,24344633,358
32-24,24348539,360
32-25,24352445,428
32-26,24356351,448
32-27,24360257,353
32-28,24364163,309
32-29,24368069,368
32-30,24371975,355
32-31,24375881,277
32-32,24379787,257
32-1,24383668,289
32-2,24387574,310
32-3,24391480,272
32-4,24395386,229
32-5,24399292,286
32-6,24403198,357
32-7,24407104,319
32-8,24411010,242
32-9,24414916,231
32-10,24418822,290
32-11,24422728,317
32-12,24426634,251
32-13,24430540,218
32-14,24434446,293
32-15,24438352,355
32-16,24442258,302
32-17,24446164,237
32-18,24450070,266
32-19,24453976,293
32-20,24457882,239
32-21,24461788,208
32-22,24465694,256
32-23,24469600,310
32-24,24473506,280
32-25,24477412,202
32-26,24481318,201
32-27,24485224,256
32-28,24489130,275
32-29,24493036,245
32-30,24496942,198
32-31,24500848,213
32-32,24504754,252
32-1,24508543,220
32-2,24512449,189
32-3,24516355,241
32-4,24520261,307
32-5,24524167,292
32-6,24528073,237
32-7,24531979,256
32-8,24535885,306
32-9,24539791,286
32-10,24543697,211
32-11,24547603,187
32-12,24551509,249
32-13,24555415,288
32-14,24559321,252
32-15,24563227,229
32-16,24567133,267
32-17,24571039,296
32-18,24574945,241
32-19,24578851,182
32-20,24582757,216
32-21,24586663,273
32-22,24590569,235
32-23,24594475,145
32-24,24598381,143
32-25,24602287,205
32-26,24606193,200
32-27,24610099,95
32-28,24614005,56
32-29,24617911,178
32-30,24621817,209
32-31,24625723,78
32-32,24629629,35
32-1,24633541,113
32-2,24637447,173
32-3,24641353,139
32-4,24645259,67
32-5,24649165,90
32-6,24653071,167
32-7,24656977,163
32-8,24660883,109
32-9,24664789,133
32-10,24668695,211
32-11,24672601,219
32-12,24676507,129
32-13,24680413,72
32-14,24684319,130
32-15,24688225,157
32-16,24692131,70
32-17,24696037,16
32-18,24699943,61
32-19,24703849,108
32-20,24707755,76
32-21,24711661,17
32-22,24715567,53
32-23,24719473,159
32-24,24723379,161
32-25,24727285,73
32-26,24731191,60
32-27,24735097,114
32-28,24739003,140
32-29,24742909,92
32-30,24746815,10
32-31,24750721,26
32-32,24754627,90
32-1,24758539,69
32-2,24762445,43
32-3,24766351,81
32-4,24770257,119
32-5,24774163,92
32-6,24778069,21
32-7,24781975,13
32-8,24785881,67
32-9,24789787,60
32-10,24793693,2
32-11,24797599,-6
32-12,24801505,41
32-13,24805411,62
32-14,24809317,17
32-15,24813223,-15
32-16,24817129,39
32-17,24821035,89
32-18,24824941,37
32-19,24828847,-26
32-20,24832753,10
32-21,24836659,76
32-22,24840565,41
32-23,24844471,-55
32-24,24848377,-64
32-25,24852283,13
32-26,24856189,34
32-27,24860095,-38
32-28,24864001,-39
32-29,24867907,48
32-30,24871813,36
32-31,24875719,-62
32-32,24879625,-90
32-1,24883658,-19
32-2,24887564,50
32-3,24891470,17
32-4,24895376,-36
32-5,24899282,9
32-6,24903188,89
32-7,24907094,70
32-8,24911000,-22
32-9,24914906,-18
32-10,24918812,76
32-11,24922718,94
32-12,24926624,17
32-13,24930530,-11
32-14,24934436,48
32-15,24938342,77
32-16,24942248,29
32-17,24946154,-12
32-18,24950060,42
32-19,24953966,112
32-20,24957872,52
32-21,24961778,-34
32-22,24965684,-8
32-23,24969590,58
32-24,24973496,45
32-25,24977402,-43
32-26,24981308,-72
32-27,24985214,-20
32-28,24989120,9
32-29,24993026,-30
32-30,24996932,-94
32-31,25000838,-77
32-32,25004744,-13
32-1,25008534,-46
32-2,25012440,-86
32-3,25016346,-20
32-4,25020252,20
32-5,25024158,-40
32-6,25028064,-100
32-7,25031970,-89
32-8,25035876,-38
32-9,25039782,-53
32-10,25043688,-138
32-11,25047594,-129
32-12,25051500,-28
32-13,25055406,-16
32-14,25059312,-87
32-15,25063218,-101
32-16,25067124,-41
32-17,25071030,0
32-18,25074936,-45
32-19,25078842,-88
32-20,25082748,-43
32-21,25086654,24
32-22,25090560,21
32-23,25094466,-28
32-24,25098372,-43
32-25,25102278,-6
32-26,25106184,5
32-27,25110090,-65
32-28,25113996,-61
32-29,25117902,59
32-30,25121808,61
32-31,25125714,-42
32-32,25129620,-67
32-1,25133654,-4
32-2,25137560,60
32-3,25141466,14
32-4,25145372,-76
32-5,25149278,-51
32-6,25153184,25
32-7,25157090,13
32-8,25160996,-54
32-9,25164902,-46
32-10,25168808,27
32-11,25172714,34
32-12,25176620,-29
32-13,25180526,-46
32-14,25184432,5
32-15,25188338,33
32-16,25192244,-8
32-17,25196150,-45
32-18,25200056,-20
32-19,25203962,-1
32-20,25207868,-43
32-21,25211774,-98
32-22,25215680,-101
32-23,25219586,-55
32-24,25223492,-54
32-25,25227398,-106
32-26,25231304,-103
32-27,25235210,-74
32-28,25239116,-73
32-29,25243022,-93
32-30,25246928,-155
32-31,25250834,-165
32-32,25254740,-114
32-1,25258529,-158
32-2,25262435,-220
32-3,25266341,-164
32-4,25270247,-102
32-5,25274153,-155
32-6,25278059,-217
32-7,25281965,-166
32-8,25285871,-90
32-9,25289777,-113
32-10,25293683,-174
32-11,25297589,-171
32-12,25301495,-128
32-13,25305401,-139
32-14,25309307,-207
32-15,25313213,-233
32-16,25317119,-173
32-17,25321025,-122
32-18,25324931,-165
32-19,25328837,-228
32-20,25332743,-207
32-21,25336649,-139
32-22,25340555,-152
32-23,25344461,-216
32-24,25348367,-203
32-25,25352273,-133
32-26,25356179,-134
32-27,25360085,-227
32-28,25363991,-243
32-29,25367897,-110
32-30,25371803,-84
32-31,25375709,-216
32-32,25379615,-250
32-1,25383527,-165
32-2,25387433,-128
32-3,25391339,-190
32-4,25395245,-260
32-5,25399151,-226
32-6,25403057,-146
32-7,25406963,-163
32-8,25410869,-249
32-9,25414775,-239
32-10,25418681,-160
32-11,25422587,-171
32-12,25426493,-253
32-13,25430399,-276
32-14,25434305,-208
32-15,25438211,-167
32-16,25442117,-216
32-17,25446023,-248
32-18,25449929,-188
32-19,25453835,-131
32-20,25457741,-177
32-21,25461647,-232
32-22,25465553,-179
32-23,25469459,-103
32-24,25473365,-122
32-25,25477271,-186
32-26,25481177,-194
32-27,25485083,-151
32-28,25488989,-121
32-29,25492895,-141
32-30,25496801,-191
32-31,25500707,-176
32-32,25504613,-133
32-1,25508524,-186
32-2,25512430,-223
32-3,25516336,-148
32-4,25520242,-91
32-5,25524148,-115
32-6,25528054,-147
32-7,25531960,-116
32-8,25535866,-36
32-9,25539772,-16
32-10,25543678,-80
32-11,25547584,-104
32-12,25551490,-52
32-13,25555396,-37
32-14,25559302,-93
32-15,25563208,-114
32-16,25567114,-59
32-17,25571020,-33
32-18,25574926,-81
32-19,25578832,-113
32-20,25582738,-53
32-21,25586644,30
32-22,25590550,2
32-23,25594456,-69
32-24,25598362,-53
32-25,25602268,12
32-26,25606174,10
32-27,25610080,-64
32-28,25613986,-52
32-29,25617892,56
32-30,25621798,66
32-31,25625704,-24
32-32,25629610,-56
32-1,25633522,-10
32-2,25637428,18
32-3,25641334,-16
32-4,25645240,-40
32-5,25649146,7
32-6,25653052,67
32-7,25656958,26
32-8,25660864,-79
32-9,25664770,-77
32-10,25668676,2
32-11,25672582,5
32-12,25676488,-59
32-13,25680394,-62
32-14,25684300,30
32-15,25688206,72
32-16,25692112,13
32-17,25696018,-13
32-18,25699924,52
32-19,25703830,102
32-20,25707736,61
32-21,25711642,5
32-22,25715548,26
32-23,25719454,89
32-24,25723360,76
32-25,25727266,-6
32-26,25731172,-11
32-27,25735078,35
32-28,25738984,44
32-29,25742890,17
32-30,25746796,-36
32-31,25750702,-24
32-32,25754608,46
32-1,25758520,22
32-2,25762426,-28
32-3,25766332,24
32-4,25770238,63
32-5,25774144,-9
32-6,25778050,-88
32-7,25781956,-50
32-8,25785862,34
32-9,25789768,15
32-10,25793674,-70
32-11,25797580,-65
32-12,25801486,17
32-13,25805392,37
32-14,25809298,-27
32-15,25813204,-59
32-16,25817110,8
32-17,25821016,65
32-18,25824922,21
32-19,25828828,-17
32-20,25832734,30
32-21,25836640,83
32-22,25840546,51
32-23,25844452,-18
32-24,25848358,-4
32-25,25852264,52
32-26,25856170,31
32-27,25860076,-15
32-28,25863982,23
32-29,25867888,97
32-30,25871794,84
32-31,25875700,6
32-32,25879606,-19
32-1,25883670,40
32-2,25887576,99
32-3,25891482,50
32-4,25895388,-41
32-5,25899294,-20
32-6,25903200,45
32-7,25907106,17
32-8,25911012,-17
32-9,25914918,36
32-10,25918824,94
32-11,25922730,75
32-12,25926636,0
32-13,25930542,-25
32-14,25934448,44
32-15,25938354,86
32-16,25942260,33
32-17,25946166,-2
32-18,25950072,36
32-19,25953978,74
32-20,25957884,24
32-21,25961790,-58
32-22,25965696,-48
32-23,25969602,10
32-24,25973508,-13
32-25,25977414,-85
32-26,25981320,-80
32-27,25985226,-22
32-28,25989132,7
32-29,25993038,6
32-30,25996944,-24
32-31,26000850,-13
32-32,26004756,22
32-1,26008515,-44
32-2,26012421,-105
32-3,26016327,-63
32-4,26020233,-27
32-5,26024139,-46
32-6,26028045,-86
32-7,26031951,-70
32-8,26035857,2
32-9,26039763,2
32-10,26043669,-68
32-11,26047575,-85
32-12,26051481,-25
32-13,26055387,12
32-14,26059293,-38
32-15,26063199,-70
32-16,26067105,1
32-17,26071011,30
32-18,26074917,-53
32-19,26078823,-103
32-20,26082729,-72
32-21,26086635,-24
32-22,26090541,-33
32-23,26094447,-77
32-24,26098353,-24
32-25,26102259,77
32-26,26106165,61
32-27,26110071,-44
32-28,26113977,-46
32-29,26117883,90
32-30,26121789,123
32-31,26125695,6
32-32,26129601,-43
32-1,26133513,16
32-2,26137419,66
32-3,26141325,53
32-4,26145231,18
32-5,26149137,33
32-6,26153043,81
32-7,26156949,68
32-8,26160855,6
32-9,26164761,25
32-10,26168667,101
32-11,26172573,78
32-12,26176479,2
32-13,26180385,11
32-14,26184291,63
32-15,26188197,47
32-16,26192103,-24
32-17,26196009,-46
32-18,26199915,34
32-19,26203821,117
32-20,26207727,76
32-21,26211633,14
32-22,26215539,52
32-23,26219445,98
32-24,26223351,48
32-25,26227257,-32
32-26,26231163,-14
32-27,26235069,61
32-28,26238975,49
32-29,26242881,-25
32-30,26246787,-45
32-31,26250693,6
32-32,26254599,35
32-1,26258510,-28
32-2,26262416,-72
32-3,26266322,-14
32-4,26270228,46
32-5,26274134,16
32-6,26278040,-19
32-7,26281946,46
32-8,26285852,132
32-9,26289758,107
32-10,26293664,22
32-11,26297570,27
32-12,26301476,125
32-13,26305382,147
32-14,26309288,53
32-15,26313194,16
32-16,26317100,81
32-17,26321006,99
32-18,26324912,18
32-19,26328818,-24
32-20,26332724,48
32-21,26336630,118
32-22,26340536,79
32-23,26344442,18
32-24,26348348,48
32-25,26352254,95
32-26,26356160,54
32-27,26360066,-35
32-28,26363972,-29
32-29,26367878,94
32-30,26371784,110
32-31,26375690,-20
32-32,26379596,-55
32-1,26383508,30
32-2,26387414,80
32-3,26391320,56
32-4,26395226,30
32-5,26399132,79
32-6,26403038,149
32-7,26406944,129
32-8,26410850,56
32-9,26414756,40
32-10,26418662,76
32-11,26422568,72
32-12,26426474,17
32-13,26430380,4
32-14,26434286,74
32-15,26438192,116
32-16,26442098,49
32-17,26446004,-24
32-18,26449910,12
32-19,26453816,61
32-20,26457722,-20
32-21,26461628,-113
32-22,26465534,-49
32-23,26469440,40
32-24,26473346,-9
32-25,26477252,-86
32-26,26481158,-52
32-27,26485064,22
32-28,26488970,55
32-29,26492876,40
32-30,26496782,-5
32-31,26500688,9
32-32,26504594,43
32-1,26508505,-30
32-2,26512411,-84
32-3,26516317,-2
32-4,26520223,67
32-5,26524129,12
32-6,26528035,-48
32-7,26531941,6
32-8,26535847,99
32-9,26539753,82
32-10,26543659,-12
32-11,26547565,-13
32-12,26551471,61
32-13,26555377,71
32-14,26559283,30
32-15,26563189,35
32-16,26567095,111
32-17,26571001,136
32-18,26574907,43
32-19,26578813,-16
32-20,26582719,50
32-21,26586625,100
32-22,26590531,27
32-23,26594437,-58
32-24,26598343,-40
32-25,26602249,36
32-26,26606155,50
32-27,26610061,-31
32-28,26613967,-32
32-29,26617873,82
32-30,26621779,71
32-31,26625685,-34
32-32,26629591,-26
32-1,26633686,46
32-2,26637592,68
32-3,26641498,1
32-4,26645404,-75
32-5,26649310,-44
32-6,26653216,26
32-7,26657122,28
32-8,26661028,13
32-9,26664934,55
32-10,26668840,125
32-11,26672746,134
32-12,26676652,72
32-13,26680558,39
32-14,26684464,82
32-15,26688370,92
32-16,26692276,20
32-17,26696182,-19
32-18,26700088,36
32-19,26703994,84
32-20,26707900,25
32-21,26711806,-46
32-22,26715712,3
32-23,26719618,77
32-24,26723524,40
32-25,26727430,-18
32-26,26731336,26
32-27,26735242,87
32-28,26739148,89
32-29,26743054,65
32-30,26746960,16
32-31,26750866,16
32-32,26754772,54
32-1,26758501,11
32-2,26762407,-14
32-3,26766313,52
32-4,26770219,69
32-5,26774125,-2
32-6,26778031,-56
32-7,26781937,-2
32-8,26785843,97
32-9,26789749,96
32-10,26793655,6
32-11,26797561,-16
32-12,26801467,53
32-13,26805373,70
32-14,26809279,-9
32-15,26813185,-39
32-16,26817091,25
32-17,26820997,40
32-18,26824903,-42
32-19,26828809,-81
32-20,26832715,-6
32-21,26836621,76
32-22,26840527,54
32-23,26844433,4
32-24,26848339,41
32-25,26852245,128
32-26,26856151,128
32-27,26860057,25
32-28,26863963,22
32-29,26867869,160
32-30,26871775,160
32-31,26875681,22
32-32,26879587,4
32-1,26883498,88
32-2,26887404,106
32-3,26891310,41
32-4,26895216,-10
32-5,26899122,8
32-6,26903028,38
32-7,26906934,8
32-8,26910840,-40
32-9,26914746,7
32-10,26918652,92
32-11,26922558,69
32-12,26926464,-21
32-13,26930370,-41
32-14,26934276,28
32-15,26938182,63
32-16,26942088,-6
32-17,26945994,-30
32-18,26949900,40
32-19,26953806,76
32-20,26957712,38
32-21,26961618,-4
32-22,26965524,37
32-23,26969430,106
32-24,26973336,52
32-25,26977242,-31
32-26,26981148,1
32-27,26985054,59
32-28,26988960,63
32-29,26992866,34
32-30,26996772,-5
32-31,27000678,6
32-32,27004584,43
32-1,27008496,-11
32-2,27012402,-60
32-3,27016308,23
32-4,27020214,103
32-5,27024120,74
32-6,27028026,19
32-7,27031932,48
32-8,27035838,92
32-9,27039744,16
32-10,27043650,-81
32-11,27047556,-44
32-12,27051462,30
32-13,27055368,8
32-14,27059274,-69
32-15,27063180,-83
32-16,27067086,-15
32-17,27070992,9
32-18,27074898,-55
32-19,27078804,-98
32-20,27082710,-60
32-21,27086616,-27
32-22,27090522,-80
32-23,27094428,-144
32-24,27098334,-108
32-25,27102240,-13
32-26,27106146,-10
32-27,27110052,-97
32-28,27113958,-90
32-29,27117864,16
32-30,27121770,17
32-31,27125676,-76
32-32,27129582,-82
32-1,27133494,2
32-2,27137400,36
32-3,27141306,-26
32-4,27145212,-91
32-5,27149118,-71
32-6,27153024,-15
32-7,27156930,-23
32-8,27160836,-72
32-9,27164742,-52
32-10,27168648,16
32-11,27172554,-9
32-12,27176460,-107
32-13,27180366,-126
32-14,27184272,-45
32-15,27188178,0
32-16,27192084,-60
32-17,27195990,-102
32-18,27199896,-35
32-19,27203802,6
32-20,27207708,-68
32-21,27211614,-133
32-22,27215520,-96
32-23,27219426,-30
32-24,27223332,-70
32-25,27227238,-158
32-26,27231144,-136
32-27,27235050,-71
32-28,27238956,-66
32-29,27242862,-84
32-30,27246768,-99
32-31,27250674,-58
32-32,27254580,4
32-1,27258491,-35
32-2,27262397,-81
32-3,27266303,-13
32-4,27270209,47
32-5,27274115,-5
32-6,27278021,-81
32-7,27281927,-68
32-8,27285833,-4
32-9,27289739,-24
32-10,27293645,-114
32-11,27297551,-127
32-12,27301457,-76
32-13,27305363,-85
32-14,27309269,-141
32-15,27313175,-148
32-16,27317081,-88
32-17,27320987,-39
32-18,27324893,-65
32-19,27328799,-91
32-20,27332705,-28
32-21,27336611,29
32-22,27340517,-33
32-23,27344423,-110
32-24,27348329,-88
32-25,27352235,-24
32-26,27356141,-43
32-27,27360047,-123
32-28,27363953,-87
32-29,27367859,37
32-30,27371765,20
32-31,27375671,-89
32-32,27379577,-108
32-1,27383672,-58
32-2,27387578,-34
32-3,27391484,-80
32-4,27395390,-132
32-5,27399296,-79
32-6,27403202,-5
32-7,27407108,-45
32-8,27411014,-125
32-9,27414920,-116
32-10,27418826,-55
32-11,27422732,-72
32-12,27426638,-165
32-13,27430544,-179
32-14,27434450,-90
32-15,27438356,-63
32-16,27442262,-121
32-17,27446168,-133
32-18,27450074,-70
32-19,27453980,-15
32-20,27457886,-47
32-21,27461792,-101
32-22,27465698,-60
32-23,27469604,12
32-24,27473510,-20
32-25,27477416,-95
32-26,27481322,-86
32-27,27485228,-39
32-28,27489134,-38
32-29,27493040,-63
32-30,27496946,-81
32-31,27500852,-58
32-32,27504758,-25
32-1,27508487,-89
32-2,27512393,-166
32-3,27516299,-95
32-4,27520205,4
32-5,27524111,-33
32-6,27528017,-92
32-7,27531923,-42
32-8,27535829,19
32-9,27539735,-2
32-10,27543641,-45
32-11,27547547,-32
32-12,27551453,23
32-13,27555359,25
32-14,27559265,-32
32-15,27563171,-35
32-16,27567077,34
32-17,27570983,52
32-18,27574889,-7
32-19,27578795,-31
32-20,27582701,14
32-21,27586607,41
32-22,27590513,-12
32-23,27594419,-69
32-24,27598325,-49
32-25,27602231,24
32-26,27606137,33
32-27,27610043,-60
32-28,27613949,-81
32-29,27617855,18
32-30,27621761,7
32-31,27625667,-109
32-32,27629573,-121
32-1,27633484,-58
32-2,27637390,-51
32-3,27641296,-116
32-4,27645202,-145
32-5,27649108,-76
32-6,27653014,-28
32-7,27656920,-72
32-8,27660826,-103
32-9,27664732,-60
32-10,27668638,-13
32-11,27672544,-52
32-12,27676450,-110
32-13,27680356,-67
32-14,27684262,8
32-15,27688168,-6
32-16,27692074,-70
32-17,27695980,-87
32-18,27699886,-46
32-19,27703792,-6
32-20,27707698,-19
32-21,27711604,-46
32-22,27715510,-7
32-23,27719416,43
32-24,27723322,-3
32-25,27727228,-71
32-26,27731134,-41
32-27,27735040,18
32-28,27738946,17
32-29,27742852,-30
32-30,27746758,-72
32-31,27750664,-43
32-32,27754570,-28
32-1,27758482,-124
32-2,27762388,-183
32-3,27766294,-114
32-4,27770200,-70
32-5,27774106,-124
32-6,27778012,-159
32-7,27781918,-130
32-8,27785824,-106
32-9,27789730,-124
32-10,27793636,-158
32-11,27797542,-138
32-12,27801448,-59
32-13,27805354,-46
32-14,27809260,-108
32-15,27813166,-104
32-16,27817072,-20
32-17,27820978,9
32-18,27824884,-68
32-19,27828790,-121
32-20,27832696,-58
32-21,27836602,1
32-22,27840508,-59
32-23,27844414,-127
32-24,27848320,-72
32-25,27852226,26
32-26,27856132,18
32-27,27860038,-73
32-28,27863944,-66
32-29,27867850,30
32-30,27871756,8
32-31,27875662,-91
32-32,27879568,-71
32-1,27883479,29
32-2,27887385,41
32-3,27891291,-39
32-4,27895197,-105
32-5,27899103,-80
32-6,27903009,-21
32-7,27906915,-47
32-8,27910821,-105
32-9,27914727,-70
32-10,27918633,3
32-11,27922539,-4
32-12,27926445,-75
32-13,27930351,-86
32-14,27934257,-26
32-15,27938163,-31
32-16,27942069,-100
32-17,27945975,-103
32-18,27949881,-17
32-19,27953787,42
32-20,27957693,7
32-21,27961599,-28
32-22,27965505,19
32-23,27969411,60
32-24,27973317,-6
32-25,27977223,-111
32-26,27981129,-104
32-27,27985035,-27
32-28,27988941,-32
32-29,27992847,-94
32-30,27996753,-120
32-31,28000659,-98
32-32,28004565,-99
32-1,28008477,-185
32-2,28012383,-236
32-3,28016289,-152
32-4,28020195,-81
32-5,28024101,-138
32-6,28028007,-204
32-7,28031913,-141
32-8,28035819,-66
32-9,28039725,-133
32-10,28043631,-203
32-11,28047537,-137
32-12,28051443,-53
32-13,28055349,-73
32-14,28059255,-152
32-15,28063161,-155
32-16,28067067,-67
32-17,28070973,-35
32-18,28074879,-104
32-19,28078785,-134
32-20,28082691,-66
32-21,28086597,-34
32-22,28090503,-98
32-23,28094409,-136
32-24,28098315,-83
32-25,28102221,-18
32-26,28106127,-30
32-27,28110033,-94
32-28,28113939,-71
32-29,28117845,24
32-30,28121751,0
32-31,28125657,-117
32-32,28129563,-126
32-1,28133627,-36
32-2,28137533,-15
32-3,28141439,-96
32-4,28145345,-135
32-5,28149251,-80
32-6,28153157,-43
32-7,28157063,-82
32-8,28160969,-128
32-9,28164875,-97
32-10,28168781,-27
32-11,28172687,-36
32-12,28176593,-87
32-13,28180499,-67
32-14,28184405,1
32-15,28188311,4
32-16,28192217,-65
32-17,28196123,-85
32-18,28200029,-12
32-19,28203935,28
32-20,28207841,-36
32-21,28211747,-88
32-22,28215653,-48
32-23,28219559,19
32-24,28223465,2
32-25,28227371,-64
32-26,28231277,-39
32-27,28235183,15
32-28,28239089,-2
32-29,28242995,-25
32-30,28246901,-39
32-31,28250807,-35
32-32,28254713,-28
32-1,28258472,-86
32-2,28262378,-128
32-3,28266284,-78
32-4,28270190,-43
32-5,28274096,-101
32-6,28278002,-150
32-7,28281908,-98
32-8,28285814,-36
32-9,28289720,-54
32-10,28293626,-92
32-11,28297532,-51
32-12,28301438,21
32-13,28305344,10
32-14,28309250,-44
32-15,28313156,-32
32-16,28317062,36
32-17,28320968,49
32-18,28324874,-39
32-19,28328780,-94
32-20,28332686,-29
32-21,28336592,17
32-22,28340498,-45
32-23,28344404,-117
32-24,28348310,-92
32-25,28352216,4
32-26,28356122,32
32-27,28360028,-37
32-28,28363934,-17
32-29,28367840,96
32-30,28371746,65
32-31,28375652,-64
32-32,28379558,-72
32-1,28383470,1
32-2,28387376,33
32-3,28391282,-18
32-4,28395188,-65
32-5,28399094,-8
32-6,28403000,52
32-7,28406906,17
32-8,28410812,-39
32-9,28414718,-23
32-10,28418624,27
32-11,28422530,9
32-12,28426436,-53
32-13,28430342,-60
32-14,28434248,-10
32-15,28438154,-2
32-16,28442060,-71
32-17,28445966,-90
32-18,28449872,-5
32-19,28453778,40
32-20,28457684,-21
32-21,28461590,-62
32-22,28465496,1
32-23,28469402,55
32-24,28473308,-13
32-25,28477214,-85
32-26,28481120,-45
32-27,28485026,18
32-28,28488932,37
32-29,28492838,4
32-30,28496744,-46
32-31,28500650,-6
32-32,28504556,35
32-1,28508437,-46
32-2,28512343,-88
32-3,28516249,-9
32-4,28520155,36
32-5,28524061,-23
32-6,28527967,-68
32-7,28531873,-5
32-8,28535779,43
32-9,28539685,6
32-10,28543591,-18
32-11,28547497,21
32-12,28551403,86
32-13,28555309,90
32-14,28559215,34
32-15,28563121,36
32-16,28567027,88
32-17,28570933,86
32-18,28574839,24
32-19,28578745,-19
32-20,28582651,11
32-21,28586557,48
32-22,28590463,-10
32-23,28594369,-87
32-24,28598275,-59
32-25,28602181,18
32-26,28606087,8
32-27,28609993,-72
32-28,28613899,-32
32-29,28617805,83
32-30,28621711,33
32-31,28625617,-94
32-32,28629523,-92
32-1,28633465,-4
32-2,28637371,29
32-3,28641277,-28
32-4,28645183,-50
32-5,28649089,36
32-6,28652995,92
32-7,28656901,27
32-8,28660807,-34
32-9,28664713,12
32-10,28668619,66
32-11,28672525,27
32-12,28676431,-30
32-13,28680337,4
32-14,28684243,83
32-15,28688149,68
32-16,28692055,-10
32-17,28695961,-5
32-18,28699867,86
32-19,28703773,117
32-20,28707679,26
32-21,28711585,-32
32-22,28715491,36
32-23,28719397,84
32-24,28723303,27
32-25,28727209,-16
32-26,28731115,31
32-27,28735021,77
32-28,28738927,62
32-29,28742833,46
32-30,28746739,43
32-31,28750645,63
32-32,28754551,75
32-1,28758463,5
32-2,28762369,-47
32-3,28766275,12
32-4,28770181,53
32-5,28774087,-21
32-6,28777993,-86
32-7,28781899,-11
32-8,28785805,66
32-9,28789711,15
32-10,28793617,-48
32-11,28797523,-15
32-12,28801429,35
32-13,28805335,-8
32-14,28809241,-92
32-15,28813147,-77
32-16,28817053,1
32-17,28820959,-1
32-18,28824865,-70
32-19,28828771,-104
32-20,28832677,-61
32-21,28836583,-6
32-22,28840489,-45
32-23,28844395,-113
32-24,28848301,-85
32-25,28852207,-15
32-26,28856113,-14
32-27,28860019,-62
32-28,28863925,-32
32-29,28867831,69
32-30,28871737,31
32-31,28875643,-96
32-32,28879549,-92
32-1,28883644,-6
32-2,28887550,16
32-3,28891456,-28
32-4,28895362,-47
32-5,28899268,3
32-6,28903174,50
32-7,28907080,2
32-8,28910986,-82
32-9,28914892,-51
32-10,28918798,22
32-11,28922704,-26
32-12,28926610,-111
32-13,28930516,-96
32-14,28934422,-10
32-15,28938328,8
32-16,28942234,-80
32-17,28946140,-115
32-18,28950046,-52
32-19,28953952,-39
32-20,28957858,-115
32-21,28961764,-155
32-22,28965670,-88
32-23,28969576,-19
32-24,28973482,-65
32-25,28977388,-135
32-26,28981294,-76
32-27,28985200,10
32-28,28989106,15
32-29,28993012,-1
32-30,28996918,-7
32-31,29000824,19
32-32,29004730,35
32-1,29008458,-30
32-2,29012364,-77
32-3,29016270,-23
32-4,29020176,12
32-5,29024082,-41
32-6,29027988,-76
32-7,29031894,-17
32-8,29035800,24
32-9,29039706,-33
32-10,29043612,-91
32-11,29047518,-42
32-12,29051424,52
32-13,29055330,49
32-14,29059236,-27
32-15,29063142,-54
32-16,29067048,-28
32-17,29070954,-27
32-18,29074860,-78
32-19,29078766,-109
32-20,29082672,-65
32-21,29086578,-13
32-22,29090484,-40
32-23,29094390,-105
32-24,29098296,-112
32-25,29102202,-64
32-26,29106108,-58
32-27,29110014,-117
32-28,29113920,-92
32-29,29117826,36
32-30,29121732,27
32-31,29125638,-91
32-32,29129544,-95
32-1,29133486,-30
32-2,29137392,-6
32-3,29141298,-31
32-4,29145204,-52
32-5,29149110,-10
32-6,29153016,2
32-7,29156922,-75
32-8,29160828,-109
32-9,29164734,-15
32-10,29168640,63
32-11,29172546,4
32-12,29176452,-68
32-13,29180358,-31
32-14,29184264,38
32-15,29188170,35
32-16,29192076,-19
32-17,29195982,-36
32-18,29199888,5
32-19,29203794,27
32-20,29207700,-33
32-21,29211606,-80
32-22,29215512,-22
32-23,29219418,29
32-24,29223324,-38
32-25,29227230,-97
32-26,29231136,-26
32-27,29235042,52
32-28,29238948,39
32-29,29242854,-17
32-30,29246760,-42
32-31,29250666,15
32-32,29254572,36
32-1,29258453,-58
32-2,29262359,-98
32-3,29266265,-39
32-4,29270171,-13
32-5,29274077,-54
32-6,29277983,-85
32-7,29281889,-37
32-8,29285795,20
32-9,29289701,-38
32-10,29293607,-126
32-11,29297513,-92
32-12,29301419,7
32-13,29305325,32
32-14,29309231,-16
32-15,29313137,-26
32-16,29317043,38
32-17,29320949,68
32-18,29324855,-2
32-19,29328761,-57
32-20,29332667,0
32-21,29336573,61
32-22,29340479,10
32-23,29344385,-50
32-24,29348291,-9
32-25,29352197,47
32-26,29356103,1
32-27,29360009,-98
32-28,29363915,-93
32-29,29367821,-12
32-30,29371727,-49
32-31,29375633,-140
32-32,29379539,-122
32-1,29383451,-36
32-2,29387357,-9
32-3,29391263,-71
32-4,29395169,-109
32-5,29399075,-56
32-6,29402981,-23
32-7,29406887,-82
32-8,29410793,-135
32-9,29414699,-99
32-10,29418605,-44
32-11,29422511,-69
32-12,29426417,-132
32-13,29430323,-117
32-14,29434229,-46
32-15,29438135,-49
32-16,29442041,-107
32-17,29445947,-80
32-18,29449853,11
32-19,29453759,31
32-20,29457665,-46
32-21,29461571,-93
32-22,29465477,-39
32-23,29469383,19
32-24,29473289,-40
32-25,29477195,-107
32-26,29481101,-37
32-27,29485007,37
32-28,29488913,23
32-29,29492819,7
32-30,29496725,-4
32-31,29500631,15
32-32,29504537,26
32-1,29508449,-58
32-2,29512355,-89
32-3,29516261,3
32-4,29520167,42
32-5,29524073,-26
32-6,29527979,-57
32-7,29531885,16
32-8,29535791,78
32-9,29539697,29
32-10,29543603,-38
32-11,29547509,-10
32-12,29551415,29
32-13,29555321,-23
32-14,29559227,-88
32-15,29563133,-55
32-16,29567039,32
32-17,29570945,37
32-18,29574851,-27
32-19,29578757,-45
32-20,29582663,3
32-21,29586569,48
32-22,29590475,3
32-23,29594381,-66
32-24,29598287,-40
32-25,29602193,12
32-26,29606099,-20
32-27,29610005,-75
32-28,29613911,-19
32-29,29617817,83
32-30,29621723,44
32-31,29625629,-52
32-32,29629535,-54
32-1,29633629,2
32-2,29637535,17
32-3,29641441,-57
32-4,29645347,-100
32-5,29649253,-24
32-6,29653159,35
32-7,29657065,-7
32-8,29660971,-72
32-9,29664877,-56
32-10,29668783,13
32-11,29672689,-20
32-12,29676595,-113
32-13,29680501,-89
32-14,29684407,13
32-15,29688313,13
32-16,29692219,-79
32-17,29696125,-72
32-18,29700031,36
32-19,29703937,65
32-20,29707843,3
32-21,29711749,10
32-22,29715655,99
32-23,29719561,128
32-24,29723467,59
32-25,29727373,-5
32-26,29731279,12
32-27,29735185,48
32-28,29739091,51
32-29,29742997,47
32-30,29746903,32
32-31,29750809,42
32-32,29754715,48
32-1,29758535,-24
32-2,29762441,-56
32-3,29766347,7
32-4,29770253,9
32-5,29774159,-49
32-6,29778065,-64
32-7,29781971,-27
32-8,29785877,11
32-9,29789783,-29
32-10,29793689,-104
32-11,29797595,-77
32-12,29801501,7
32-13,29805407,8
32-14,29809313,-47
32-15,29813219,-35
32-16,29817125,38
32-17,29821031,34
32-18,29824937,-46
32-19,29828843,-53
32-20,29832749,18
32-21,29836655,44
32-22,29840561,-14
32-23,29844467,-47
32-24,29848373,7
32-25,29852279,46
32-26,29856185,-12
32-27,29860091,-97
32-28,29863997,-40
32-29,29867903,118
32-30,29871809,91
32-31,29875715,-73
32-32,29879621,-86
32-1,29883442,-4
