32-1,28012963,-10320
32-2,28016869,-13448
32-3,28020775,-9808
32-4,28024681,-461
32-5,28028587,7855
32-6,28032493,9149
32-7,28036399,3151
32-8,28040305,-5394
32-9,28044211,-9548
32-10,28048117,-6220
32-11,28052023,2500
32-12,28055929,10876
32-13,28059835,13191
32-14,28063741,8394
32-15,28067647,-656
32-16,28071553,-8346
32-17,28075459,-9964
32-18,28079365,-4718
32-19,28083271,4726
32-20,28087177,12135
32-21,28091083,12520
32-22,28094989,5788
32-23,28098895,-3693
32-24,28102801,-9483
32-25,28106707,-8340
32-26,28110613,-1983
32-27,28114519,4812
32-28,28118425,6870
32-29,28122331,3512
32-30,28126237,-2500
32-31,28130143,-8765
32-32,28134049,-12723
32-1,28138113,-12707
32-2,28142019,-7083
32-3,28145925,2227
32-4,28149831,8815
32-5,28153737,8201
32-6,28157643,856
32-7,28161549,-7152
32-8,28165455,-9425
32-9,28169361,-4304
32-10,28173267,5107
32-11,28177173,12382
32-12,28181079,12784
32-13,28184985,6413
32-14,28188891,-2946
32-15,28192797,-9352
32-16,28196703,-9045
32-17,28200609,-2276
32-18,28204515,7233
32-19,28208421,12910
32-20,28212327,11100
32-21,28216233,3250
32-22,28220139,-6078
32-23,28224045,-10409
32-24,28227951,-7091
32-25,28231857,1244
32-26,28235763,8918
32-27,28239669,10176
32-28,28243575,5065
32-29,28247481,-2832
32-30,28251387,-9916
32-31,28255293,-13466
32-32,28259199,-12195
32-1,28263111,-5863
32-2,28267017,2473
32-3,28270923,7257
32-4,28274829,4994
32-5,28278735,-2351
32-6,28282641,-8424
32-7,28286547,-8156
32-8,28290453,-1279
32-9,28294359,8019
32-10,28298265,13332
32-11,28302171,11505
32-12,28306077,3846
32-13,28309983,-5409
32-14,28313889,-10602
32-15,28317795,-8936
32-16,28321701,-1023
32-17,28325607,8517
32-18,28329513,12830
32-19,28333419,9262
32-20,28337325,414
32-21,28341231,-7670
32-22,28345137,-9547
32-23,28349043,-4248
32-24,28352949,5077
32-25,28356855,12142
32-26,28360761,12252
32-27,28364667,6000
32-28,28368573,-3309
32-29,28372479,-11098
32-30,28376385,-13923
32-31,28380291,-10488
32-32,28384197,-1967
32-1,28387956,6033
32-2,28391862,8559
32-3,28395768,4176
32-4,28399674,-4548
32-5,28403580,-11033
32-6,28407486,-10681
32-7,28411392,-3266
32-8,28415298,6721
32-9,28419204,12241
32-10,28423110,9977
32-11,28427016,1600
32-12,28430922,-7200
32-13,28434828,-10298
32-14,28438734,-6100
32-15,28442640,2933
32-16,28446546,11050
32-17,28450452,12738
32-18,28454358,7308
32-19,28458264,-1917
32-20,28462170,-9000
32-21,28466076,-9548
32-22,28469982,-3424
32-23,28473888,6090
32-24,28477794,12445
32-25,28481700,11719
32-26,28485606,5085
32-27,28489512,-4244
32-28,28493418,-11561
32-29,28497324,-13525
32-30,28501230,-8936
32-31,28505136,8
32-32,28509042,7092
32-1,28512954,7936
32-2,28516860,2081
32-3,28520766,-7057
32-4,28524672,-13236
32-5,28528578,-12330
32-6,28532484,-4411
32-7,28536390,5531
32-8,28540296,10392
32-9,28544202,7281
32-10,28548108,-1020
32-11,28552014,-7747
32-12,28555920,-7596
32-13,28559826,-887
32-14,28563732,8075
32-15,28567638,13332
32-16,28571544,11753
32-17,28575450,4449
32-18,28579356,-4800
32-19,28583262,-10623
32-20,28587168,-9811
32-21,28591074,-2482
32-22,28594980,7188
32-23,28598886,12274
32-24,28602792,9877
32-25,28606698,2220
32-26,28610604,-6480
32-27,28614510,-11824
32-28,28618416,-11608
32-29,28622322,-5710
32-30,28626228,2721
32-31,28630134,8117
32-32,28634040,7376
32-1,28637951,490
32-2,28641857,-8476
32-3,28645763,-13538
32-4,28649669,-11102
32-5,28653575,-2086
32-6,28657481,7129
32-7,28661387,10209
32-8,28665293,5558
32-9,28669199,-3223
32-10,28673105,-9136
32-11,28677011,-7810
32-12,28680917,-189
32-13,28684823,8886
32-14,28688729,13245
32-15,28692635,10344
32-16,28696541,2091
32-17,28700447,-6640
32-18,28704353,-10317
32-19,28708259,-7013
32-20,28712165,1709
32-21,28716071,10547
32-22,28719977,13134
32-23,28723883,8421
32-24,28727789,-287
32-25,28731695,-7508
32-26,28735601,-9634
32-27,28739507,-6952
32-28,28743413,-988
32-29,28747319,4424
32-30,28751225,6113
32-31,28755131,3501
32-32,28759037,-2908
32-1,28762979,-9892
32-2,28766885,-12853
32-3,28770791,-8893
32-4,28774697,664
32-5,28778603,8866
32-6,28782509,9755
32-7,28786415,3359
32-8,28790321,-5381
32-9,28794227,-9505
32-10,28798133,-6074
32-11,28802039,2712
32-12,28805945,11169
32-13,28809851,13546
32-14,28813757,8744
32-15,28817663,-367
32-16,28821569,-8168
32-17,28825475,-9900
32-18,28829381,-4761
32-19,28833287,4592
32-20,28837193,11960
32-21,28841099,12264
32-22,28845005,5424
32-23,28848911,-4099
32-24,28852817,-9889
32-25,28856723,-8704
32-26,28860629,-2265
32-27,28864535,4666
32-28,28868441,6915
32-29,28872347,3721
32-30,28876253,-2166
32-31,28880159,-8327
32-32,28884065,-12355
32-1,28888282,-12723
32-2,28892188,-7708
32-3,28896094,1079
32-4,28900000,7542
32-5,28903906,7232
32-6,28907812,404
32-7,28911718,-7136
32-8,28915624,-9089
32-9,28919530,-3801
32-10,28923436,5670
32-11,28927342,12910
32-12,28931248,13200
32-13,28935154,6740
32-14,28939060,-2701
32-15,28942966,-9231
32-16,28946872,-9070
32-17,28950778,-2373
32-18,28954684,7228
32-19,28958590,13125
32-20,28962496,11523
32-21,28966402,3745
32-22,28970308,-5718
32-23,28974214,-10292
32-24,28978120,-7165
32-25,28982026,1067
32-26,28985932,8715
32-27,28989838,9933
32-28,28993744,4749
32-29,28997650,-3159
32-30,29001556,-10166
32-31,29005462,-13603
32-32,29009368,-12275
32-1,29012944,-5971
32-2,29016850,2363
32-3,29020756,7191
32-4,29024662,4950
32-5,29028568,-2394
32-6,29032474,-8481
32-7,29036380,-8227
32-8,29040286,-1347
32-9,29044192,7999
32-10,29048098,13370
32-11,29052004,11450
32-12,29055910,3647
32-13,29059816,-5463
32-14,29063722,-10104
32-15,29067628,-7774
32-16,29071534,420
32-17,29075440,9605
32-18,29079346,13297
32-19,29083252,9407
32-20,29087158,466
32-21,29091064,-7921
32-22,29094970,-10476
32-23,29098876,-5879
32-24,29102782,3384
32-25,29106688,11059
32-26,29110594,11929
32-27,29114500,6163
32-28,29118406,-3092
32-29,29122312,-11068
32-30,29126218,-14031
32-31,29130124,-10710
32-32,29134030,-2296
32-1,29137942,5691
32-2,29141848,8214
32-3,29145754,3870
32-4,29149660,-4755
32-5,29153566,-11164
32-6,29157472,-10778
32-7,29161378,-3359
32-8,29165284,6671
32-9,29169190,12251
32-10,29173096,9955
32-11,29177002,1620
32-12,29180908,-6852
32-13,29184814,-9386
32-14,29188720,-4688
32-15,29192626,4390
32-16,29196532,12035
32-17,29200438,13148
32-18,29204344,7439
32-19,29208250,-1936
32-20,29212156,-9377
32-21,29216062,-10546
32-22,29219968,-4874
32-23,29223874,4777
32-24,29227780,11690
32-25,29231686,11584
32-26,29235592,5134
32-27,29239498,-4406
32-28,29243404,-11417
32-29,29247310,-12137
32-30,29251216,-5975
32-31,29255122,3848
32-32,29259028,10456
32-1,29262939,9884
32-2,29266845,2796
32-3,29270751,-6943
32-4,29274657,-13490
32-5,29278563,-13278
32-6,29282469,-6242
32-7,29286375,3530
32-8,29290281,9210
32-9,29294187,7265
32-10,29298093,-375
32-11,29301999,-7310
32-12,29305905,-7823
32-13,29309811,-1479
32-14,29313717,7698
32-15,29317623,13405
32-16,29321529,12172
32-17,29325435,4970
32-18,29329341,-4388
32-19,29333247,-10366
32-20,29337153,-9702
32-21,29341059,-2508
32-22,29344965,7067
32-23,29348871,12102
32-24,29352777,9699
32-25,29356683,2118
32-26,29360589,-6348
32-27,29364495,-11215
32-28,29368401,-10450
32-29,29372307,-4320
32-30,29376213,3820
32-31,29380119,8555
32-32,29384025,7263
32-1,29387937,269
32-2,29391843,-8603
32-3,29395749,-13845
32-4,29399655,-11960
32-5,29403561,-3499
32-6,29407467,5644
32-7,29411373,9197
32-8,29415279,5227
32-9,29419185,-2859
32-10,29423091,-8193
32-11,29426997,-6522
32-12,29430903,1110
32-13,29434809,9752
32-14,29438715,13490
32-15,29442621,10292
32-16,29446527,2052
32-17,29450433,-6825
32-18,29454339,-11083
32-19,29458245,-8468
32-20,29462151,16
32-21,29466057,9202
32-22,29469963,12399
32-23,29473869,8149
32-24,29477775,-431
32-25,29481681,-7763
32-26,29485587,-10007
32-27,29489493,-7397
32-28,29493399,-1586
32-29,29497305,3665
32-30,29501211,5307
32-31,29505117,2782
32-32,29509023,-3449
32-1,29512935,-10235
32-2,29516841,-13047
32-3,29520747,-9028
32-4,29524653,509
32-5,29528559,8707
32-6,29532465,9690
32-7,29536371,3445
32-8,29540277,-5163
32-9,29544183,-9252
32-10,29548089,-5916
32-11,29551995,2697
32-12,29555901,11028
32-13,29559807,13444
32-14,29563713,8801
32-15,29567619,-145
32-16,29571525,-7883
32-17,29575431,-9676
32-18,29579337,-4661
32-19,29583243,4582
32-20,29587149,11940
32-21,29591055,12360
32-22,29594961,5687
32-23,29598867,-3737
32-24,29602773,-9570
32-25,29606679,-8535
32-26,29610585,-2258
32-27,29614491,4571
32-28,29618397,6784
32-29,29622303,3562
32-30,29626209,-2447
32-31,29630115,-8762
32-32,29634021,-12608
32-1,29638146,-12270
32-2,29642052,-6311
32-3,29645958,3121
32-4,29649864,9513
32-5,29653770,8525
32-6,29657676,920
32-7,29661582,-7104
32-8,29665488,-9206
32-9,29669394,-3983
32-10,29673300,5341
32-11,29677206,12504
32-12,29681112,12838
32-13,29685018,6468
32-14,29688924,-2872
32-15,29692830,-9353
32-16,29696736,-9179
32-17,29700642,-2518
32-18,29704548,7012
32-19,29708454,12853
32-20,29712360,11201
32-21,29716266,3424
32-22,29720172,-5994
32-23,29724078,-10570
32-24,29727984,-7443
32-25,29731890,853
32-26,29735796,8654
32-27,29739702,10093
32-28,29743608,5070
32-29,29747514,-2747
32-30,29751420,-9770
32-31,29755326,-13438
32-32,29759232,-12531
32-1,29762930,-6682
32-2,29766836,1409
32-3,29770742,6397
32-4,29774648,4592
32-5,29778554,-2391
32-6,29782460,-8400
32-7,29786366,-8289
32-8,29790272,-1552
32-9,29794178,7833
32-10,29798084,13386
32-11,29801990,11654
32-12,29805896,3920
32-13,29809802,-5282
32-14,29813708,-10072
32-15,29817614,-7865
32-16,29821520,239
32-17,29825426,9449
32-18,29829332,13296
32-19,29833238,9604
32-20,29837144,802
32-21,29841050,-7619
32-22,29844956,-10346
32-23,29848862,-5881
32-24,29852768,3406
32-25,29856674,11295
32-26,29860580,12392
32-27,29864486,6714
32-28,29868392,-2574
32-29,29872298,-10676
32-30,29876204,-13811
32-31,29880110,-10665
32-32,29884016,-2365
32-1,29887928,5613
32-2,29891834,8161
32-3,29895740,3826
32-4,29899646,-4639
32-5,29903552,-10623
32-6,29907458,-9728
32-7,29911364,-2069
32-8,29915270,7701
32-9,29919176,12742
32-10,29923082,10092
32-11,29926988,1571
32-12,29930894,-7246
32-13,29934800,-10406
32-14,29938706,-6305
32-15,29942612,2787
32-16,29946518,11088
32-17,29950424,12863
32-18,29954330,7366
32-19,29958236,-2026
32-20,29962142,-9248
32-21,29966048,-9857
32-22,29969954,-3782
32-23,29973860,5670
32-24,29977766,11987
32-25,29981672,11289
32-26,29985578,4766
32-27,29989484,-4430
32-28,29993390,-11657
32-29,29997296,-13569
32-30,30001202,-8949
32-31,30005108,86
32-32,30009014,7329
32-1,30012925,8379
32-2,30016831,2746
32-3,30020737,-6365
32-4,30024643,-12901
32-5,30028549,-12659
32-6,30032455,-5313
32-7,30036361,4557
32-8,30040267,10025
32-9,30044173,7717
32-10,30048079,-487
32-11,30051985,-8050
32-12,30055891,-9010
32-13,30059797,-2704
32-14,30063703,6933
32-15,30067609,13341
32-16,30071515,12491
32-17,30075421,5253
32-18,30079327,-4066
32-19,30083233,-9563
32-20,30087139,-8160
32-21,30091045,-632
32-22,30094951,8607
32-23,30098857,12984
32-24,30102763,10079
32-25,30106669,2343
32-26,30110575,-6214
32-27,30114481,-11478
32-28,30118387,-11290
32-29,30122293,-5376
32-30,30126199,3079
32-31,30130105,8390
32-32,30134011,7511
32-1,30137923,629
32-2,30141829,-8276
32-3,30145735,-13619
32-4,30149641,-11930
32-5,30153547,-3806
32-6,30157453,5076
32-7,30161359,8758
32-8,30165265,5161
32-9,30169171,-2766
32-10,30173077,-8302
32-11,30176983,-6929
32-12,30180889,729
32-13,30184795,9783
32-14,30188701,13978
32-15,30192607,10980
32-16,30196513,2686
32-17,30200419,-6255
32-18,30204325,-10419
32-19,30208231,-7672
32-20,30212137,862
32-21,30216043,9997
32-22,30219949,12943
32-23,30223855,8339
32-24,30227761,-273
32-25,30231667,-7083
32-26,30235573,-8523
32-27,30239479,-5373
32-28,30243385,381
32-29,30247291,5092
32-30,30251197,6165
32-31,30255103,3392
32-32,30259009,-2800
32-1,30262920,-9742
32-2,30266826,-13120
32-3,30270732,-9719
32-4,30274638,-482
32-5,30278544,7838
32-6,30282450,9145
32-7,30286356,3254
32-8,30290262,-4951
32-9,30294168,-8580
32-10,30298074,-4846
32-11,30301980,3822
32-12,30305886,11671
32-13,30309792,13438
32-14,30313698,8499
32-15,30317604,-535
32-16,30321510,-8552
32-17,30325416,-10879
32-18,30329322,-6210
32-19,30333228,3323
32-20,30337134,11438
32-21,30341040,12597
32-22,30344946,6244
32-23,30348852,-3323
32-24,30352758,-9404
32-25,30356664,-8427
32-26,30360570,-2092
32-27,30364476,4784
32-28,30368382,7035
32-29,30372288,3775
32-30,30376194,-2392
32-31,30380100,-8804
32-32,30384006,-12401
32-1,30388132,-11481
32-2,30392038,-4998
32-3,30395944,4467
32-4,30399850,10384
32-5,30403756,8819
32-6,30407662,734
32-7,30411568,-7754
32-8,30415474,-10343
32-9,30419380,-5470
32-10,30423286,3971
32-11,30427192,11721
32-12,30431098,12688
32-13,30435004,6625
32-14,30438910,-2742
32-15,30442816,-9292
32-16,30446722,-9032
32-17,30450628,-2246
32-18,30454534,7313
32-19,30458440,13102
32-20,30462346,11341
32-21,30466252,3424
32-22,30470158,-6080
32-23,30474064,-10639
32-24,30477970,-7435
32-25,30481876,931
32-26,30485782,8789
32-27,30489688,10260
32-28,30493594,5241
32-29,30497500,-2627
32-30,30501406,-9707
32-31,30505312,-13302
32-32,30509218,-12174
32-1,30512916,-6060
32-2,30516822,2170
32-3,30520728,7059
32-4,30524634,4995
32-5,30528540,-2213
32-6,30532446,-8288
32-7,30536352,-8088
32-8,30540258,-1269
32-9,30544164,8052
32-10,30548070,13457
32-11,30551976,11586
32-12,30555882,3808
32-13,30559788,-5329
32-14,30563694,-10054
32-15,30567600,-7842
32-16,30571506,242
32-17,30575412,9461
32-18,30579318,13364
32-19,30583224,9703
32-20,30587130,878
32-21,30591036,-7583
32-22,30594942,-10363
32-23,30598848,-5965
32-24,30602754,3237
32-25,30606660,11050
32-26,30610566,12114
32-27,30614472,6421
32-28,30618378,-2844
32-29,30622284,-10760
32-30,30626190,-13501
32-31,30630096,-9892
32-32,30634002,-1299
32-1,30637913,6617
32-2,30641819,8842
32-3,30645725,4136
32-4,30649631,-4747
32-5,30653537,-11176
32-6,30657443,-10685
32-7,30661349,-3258
32-8,30665255,6692
32-9,30669161,12230
32-10,30673067,10065
32-11,30676973,1818
32-12,30680879,-6977
32-13,30684785,-10198
32-14,30688691,-6129
32-15,30692597,2926
32-16,30696503,11266
32-17,30700409,13148
32-18,30704315,7715
32-19,30708221,-1679
32-20,30712127,-9010
32-21,30716033,-9778
32-22,30719939,-3819
32-23,30723845,5658
32-24,30727751,12148
32-25,30731657,11617
32-26,30735563,5143
32-27,30739469,-4154
32-28,30743375,-11573
32-29,30747281,-13651
32-30,30751187,-9086
32-31,30755093,14
32-32,30758999,7329
32-1,30762911,8355
32-2,30766817,2641
32-3,30770723,-6584
32-4,30774629,-13236
32-5,30778535,-13104
32-6,30782441,-5875
32-7,30786347,3998
32-8,30790253,9613
32-9,30794159,7529
32-10,30798065,-467
32-11,30801971,-7948
32-12,30805877,-8960
32-13,30809783,-2787
32-14,30813689,6744
32-15,30817595,13156
32-16,30821501,12393
32-17,30825407,5247
32-18,30829313,-4099
32-19,30833219,-9758
32-20,30837125,-8551
32-21,30841031,-1126
32-22,30844937,8234
32-23,30848843,12881
32-24,30852749,10208
32-25,30856655,2575
32-26,30860561,-6060
32-27,30864467,-11567
32-28,30868373,-11690
32-29,30872279,-6010
32-30,30876185,2492
32-31,30880091,8144
32-32,30883997,7650
32-1,30887909,837
32-2,30891815,-8195
32-3,30895721,-13280
32-4,30899627,-10714
32-5,30903533,-1491
32-6,30907439,7851
32-7,30911345,10902
32-8,30915251,6041
32-9,30919157,-3036
32-10,30923063,-9217
32-11,30926969,-8053
32-12,30930875,-421
32-13,30934781,8828
32-14,30938687,13416
32-15,30942593,10644
32-16,30946499,2349
32-17,30950405,-6520
32-18,30954311,-10317
32-19,30958217,-7046
32-20,30962123,1699
32-21,30966029,10524
32-22,30969935,12951
32-23,30973841,7978
32-24,30977747,-940
32-25,30981653,-8226
32-26,30985559,-10240
32-27,30989465,-7387
32-28,30993371,-1364
32-29,30997277,3952
32-30,31001183,5496
32-31,31005089,2840
32-32,31008995,-3465
32-1,31012906,-10288
32-2,31016812,-13154
32-3,31020718,-9192
32-4,31024624,307
32-5,31028530,8507
32-6,31032436,9544
32-7,31036342,3319
32-8,31040248,-5389
32-9,31044154,-9695
32-10,31048060,-6549
32-11,31051966,2095
32-12,31055872,10646
32-13,31059778,13279
32-14,31063684,8703
32-15,31067590,-342
32-16,31071496,-8201
32-17,31075402,-9995
32-18,31079308,-4855
32-19,31083214,4560
32-20,31087120,12028
32-21,31091026,12451
32-22,31094932,5716
32-23,31098838,-3817
32-24,31102744,-9688
32-25,31106650,-8569
32-26,31110556,-2131
32-27,31114462,4883
32-28,31118368,7222
32-29,31122274,4030
32-30,31126180,-2027
32-31,31130086,-8406
32-32,31133992,-12317
32-1,31138117,-12079
32-2,31142023,-6287
32-3,31145929,2946
32-4,31149835,9211
32-5,31153741,8220
32-6,31157647,695
32-7,31161553,-7268
32-8,31165459,-9363
32-9,31169365,-4138
32-10,31173271,5207
32-11,31177177,12341
32-12,31181083,12666
32-13,31184989,6352
32-14,31188895,-3139
32-15,31192801,-10123
32-16,31196707,-10603
32-17,31200613,-4282
32-18,31204519,5549
32-19,31208425,12068
32-20,31212331,10871
32-21,31216237,3172
32-22,31220143,-6073
32-23,31224049,-10038
32-24,31227955,-6159
32-25,31231861,2360
32-26,31235767,9696
32-27,31239673,10468
32-28,31243579,5074
32-29,31247485,-2757
32-30,31251391,-9707
32-31,31255297,-13458
32-32,31259203,-12743
32-1,31262901,-6973
32-2,31266807,1171
32-3,31270713,6178
32-4,31274619,4454
32-5,31278525,-2180
32-6,31282431,-7608
32-7,31286337,-6886
32-8,31290243,96
32-9,31294149,9124
32-10,31298055,14005
32-11,31301961,11809
32-12,31305867,3987
32-13,31309773,-5330
32-14,31313679,-10677
32-15,31317585,-9220
32-16,31321491,-1424
32-17,31325397,8152
32-18,31329303,12758
32-19,31333209,9648
32-20,31337115,970
32-21,31341021,-7576
32-22,31344927,-10366
32-23,31348833,-5825
32-24,31352739,3439
32-25,31356645,11158
32-26,31360551,12085
32-27,31364457,6290
32-28,31368363,-2978
32-29,31372269,-10829
32-30,31376175,-13516
32-31,31380081,-9914
32-32,31383987,-1337
32-1,31387899,6638
32-2,31391805,9006
32-3,31395711,4410
32-4,31399617,-4475
32-5,31403523,-11006
32-6,31407429,-10630
32-7,31411335,-3192
32-8,31415241,6861
32-9,31419147,12500
32-10,31423053,10347
32-11,31426959,2003
32-12,31430865,-6937
32-13,31434771,-10288
32-14,31438677,-6298
32-15,31442583,2738
32-16,31446489,11109
32-17,31450395,13052
32-18,31454301,7691
32-19,31458207,-1672
32-20,31462113,-9011
32-21,31466019,-9753
32-22,31469925,-3703
32-23,31473831,5892
32-24,31477737,12463
32-25,31481643,11970
32-26,31485549,5494
32-27,31489455,-3824
32-28,31493361,-11254
32-29,31497267,-13329
32-30,31501173,-8787
32-31,31505079,240
32-32,31508985,7462
32-1,31512897,8360
32-2,31516803,2492
32-3,31520709,-6757
32-4,31524615,-13139
32-5,31528521,-12529
32-6,31532427,-4919
32-7,31536333,4965
32-8,31540239,10214
32-9,31544145,7656
32-10,31548051,-589
32-11,31551957,-8042
32-12,31555863,-8959
32-13,31559769,-2826
32-14,31563675,6572
32-15,31567581,12935
32-16,31571487,12224
32-17,31575393,5134
32-18,31579299,-4196
32-19,31583205,-9846
32-20,31587111,-8633
32-21,31591017,-1229
32-22,31594923,8078
32-23,31598829,12653
32-24,31602735,9950
32-25,31606641,2348
32-26,31610547,-6205
32-27,31614453,-11583
32-28,31618359,-11601
32-29,31622265,-5913
32-30,31626171,2529
32-31,31630077,8081
32-32,31633983,7601
32-1,31637894,1021
32-2,31641800,-7914
32-3,31645706,-13388
32-4,31649612,-11631
32-5,31653518,-3095
32-6,31657424,6263
32-7,31661330,9996
32-8,31665236,5980
32-9,31669142,-2626
32-10,31673048,-8846
32-11,31676954,-7935
32-12,31680860,-460
32-13,31684766,8770
32-14,31688672,13398
32-15,31692578,10682
32-16,31696484,2441
32-17,31700390,-6429
32-18,31704296,-10290
32-19,31708202,-7133
32-20,31712108,1481
32-21,31716014,10292
32-22,31719920,12881
32-23,31723826,8138
32-24,31727732,-620
32-25,31731638,-7911
32-26,31735544,-10081
32-27,31739450,-7441
32-28,31743356,-1535
32-29,31747262,3874
32-30,31751168,5643
32-31,31755074,3230
32-32,31758980,-2943
32-1,31762892,-9832
32-2,31766798,-12927
32-3,31770704,-9199
32-4,31774610,287
32-5,31778516,8713
32-6,31782422,10000
32-7,31786328,3889
32-8,31790234,-4872
32-9,31794140,-9264
32-10,31798046,-6106
32-11,31801952,2591
32-12,31805858,11161
32-13,31809764,13727
32-14,31813670,9091
32-15,31817576,38
32-16,31821482,-7906
32-17,31825388,-9906
32-18,31829294,-5042
32-19,31833200,4200
32-20,31837106,11719
32-21,31841012,12336
32-22,31844918,5794
32-23,31848824,-3682
32-24,31852730,-9716
32-25,31856636,-8883
32-26,31860542,-2726
32-27,31864448,4142
32-28,31868354,6542
32-29,31872260,3518
32-30,31876166,-2288
32-31,31880072,-8421
32-32,31883978,-12405
32-1,31887890,-12760
32-2,31891796,-7909
32-3,31895702,653
32-4,31899608,7062
32-5,31903514,6930
32-6,31907420,422
32-7,31911326,-6862
32-8,31915232,-8746
32-9,31919138,-3540
32-10,31923044,5810
32-11,31926950,12975
32-12,31930856,13199
32-13,31934762,6645
32-14,31938668,-2857
32-15,31942574,-9385
32-16,31946480,-9174
32-17,31950386,-2425
32-18,31954292,7188
32-19,31958198,13020
32-20,31962104,11277
32-21,31966010,3386
32-22,31969916,-6068
32-23,31973822,-10537
32-24,31977728,-7316
32-25,31981634,934
32-26,31985540,8580
32-27,31989446,9868
32-28,31993352,4834
32-29,31997258,-2977
32-30,32001164,-9981
32-31,32005070,-13262
32-32,32008976,-11375
32-1,32012887,-4200
32-2,32016793,4839
32-3,32020699,9738
32-4,32024605,6933
32-5,32028511,-1319
32-6,32032417,-8300
32-7,32036323,-8608
32-8,32040229,-1908
32-9,32044135,7594
32-10,32048041,13347
32-11,32051947,11749
32-12,32055853,4031
32-13,32059759,-5219
32-14,32063665,-10076
32-15,32067571,-7907
32-16,32071477,135
32-17,32075383,9238
32-18,32079289,13078
32-19,32083195,9559
32-20,32087101,842
32-21,32091007,-7894
32-22,32094913,-11276
32-23,32098819,-7389
32-24,32102725,1851
32-25,32106631,10249
32-26,32110537,11992
32-27,32114443,6631
32-28,32118349,-2707
32-29,32122255,-10850
32-30,32126161,-13699
32-31,32130067,-10087
32-32,32133973,-1478
32-1,32137885,6509
32-2,32141791,8849
32-3,32145697,4206
32-4,32149603,-4746
32-5,32153509,-11390
32-6,32157415,-11113
32-7,32161321,-3708
32-8,32165227,6420
32-9,32169133,12123
32-10,32173039,9877
32-11,32176945,1557
32-12,32180851,-6933
32-13,32184757,-9511
32-14,32188663,-4884
32-15,32192569,4112
32-16,32196475,11808
32-17,32200381,13132
32-18,32204287,7668
32-19,32208193,-1599
32-20,32212099,-9172
32-21,32216005,-10597
32-22,32219911,-5111
32-23,32223817,4547
32-24,32227723,11640
32-25,32231629,11698
32-26,32235535,5309
32-27,32239441,-4302
32-28,32243347,-11512
32-29,32247253,-12422
32-30,32251159,-6343
32-31,32255065,3591
32-32,32258971,10450
32-1,32262883,10080
32-2,32266789,3049
32-3,32270695,-6802
32-4,32274601,-13519
32-5,32278507,-13444
32-6,32282413,-6515
32-7,32286319,3187
32-8,32290225,8825
32-9,32294131,6876
32-10,32298037,-694
32-11,32301943,-7513
32-12,32305849,-7912
32-13,32309755,-1565
32-14,32313661,7490
32-15,32317567,13105
32-16,32321473,11886
32-17,32325379,4800
32-18,32329285,-4487
32-19,32333191,-10561
32-20,32337097,-10078
32-21,32341003,-3015
32-22,32344909,6694
32-23,32348815,12148
32-24,32352721,10186
32-25,32356627,2798
32-26,32360533,-5951
32-27,32364439,-11574
32-28,32368345,-11679
32-29,32372251,-6045
32-30,32376157,2280
32-31,32380063,7699
32-32,32383969,7054
32-1,32387880,401
32-2,32391786,-8420
32-3,32395692,-13817
32-4,32399598,-12245
32-5,32403504,-4177
32-6,32407410,4776
32-7,32411316,8558
32-8,32415222,5053
32-9,32419128,-2831
32-10,32423034,-8453
32-11,32426940,-7240
32-12,32430846,299
32-13,32434752,9440
32-14,32438658,13872
32-15,32442564,10973
32-16,32446470,2643
32-17,32450376,-6207
32-18,32454282,-10019
32-19,32458188,-6864
32-20,32462094,1716
32-21,32466000,10438
32-22,32469906,12924
32-23,32473812,8121
32-24,32477718,-630
32-25,32481624,-7862
32-26,32485530,-10001
32-27,32489436,-7352
32-28,32493342,-1446
32-29,32497248,3928
32-30,32501154,5598
32-31,32505060,3012
32-32,32508966,-3342
32-1,32512908,-10324
32-2,32516814,-13377
32-3,32520720,-9563
32-4,32524626,-21
32-5,32528532,8424
32-6,32532438,9719
32-7,32536344,3674
32-8,32540250,-4967
32-9,32544156,-9244
32-10,32548062,-6084
32-11,32551968,2487
32-12,32555874,10960
32-13,32559780,13588
32-14,32563686,9123
32-15,32567592,222
32-16,32571498,-7667
32-17,32575404,-9692
32-18,32579310,-4855
32-19,32583216,4394
32-20,32587122,11962
32-21,32591028,12591
32-22,32594934,5997
32-23,32598840,-3501
32-24,32602746,-9536
32-25,32606652,-8674
32-26,32610558,-2501
32-27,32614464,4359
32-28,32618370,6771
32-29,32622276,3784
32-30,32626182,-1975
32-31,32630088,-8130
32-32,32633994,-12218
32-1,32638089,-12593
32-2,32641995,-7485
32-3,32645901,1528
32-4,32649807,8240
32-5,32653713,7994
32-6,32657619,1029
32-7,32661525,-6743
32-8,32665431,-8902
32-9,32669337,-3793
32-10,32673243,5506
32-11,32677149,12684
32-12,32681055,13033
32-13,32684961,6723
32-14,32688867,-2582
32-15,32692773,-9117
32-16,32696679,-9048
32-17,32700585,-2421
32-18,32704491,7247
32-19,32708397,13307
32-20,32712303,11771
32-21,32716209,3923
32-22,32720115,-5698
32-23,32724021,-10446
32-24,32727927,-7407
32-25,32731833,880
32-26,32735739,8771
32-27,32739645,10303
32-28,32743551,5336
32-29,32747457,-2563
32-30,32751363,-9781
32-31,32755269,-13410
32-32,32759175,-11999
32-1,32762873,-5272
32-2,32766779,3614
32-3,32770685,8750
32-4,32774591,6366
32-5,32778497,-1621
32-6,32782403,-8610
32-7,32786309,-9044
32-8,32790215,-2391
32-9,32794121,7249
32-10,32798027,13242
32-11,32801933,11877
32-12,32805839,4331
32-13,32809745,-4935
32-14,32813651,-10011
32-15,32817557,-8145
32-16,32821463,-298
32-17,32825369,8925
32-18,32829275,13045
32-19,32833181,9620
32-20,32837087,907
32-21,32840993,-7599
32-22,32844899,-10458
32-23,32848805,-6084
32-24,32852711,3140
32-25,32856617,10985
32-26,32860523,12069
32-27,32864429,6429
32-28,32868335,-2786
32-29,32872241,-10864
32-30,32876147,-14066
32-31,32880053,-11051
32-32,32883959,-2826
32-1,32887871,5202
32-2,32891777,7913
32-3,32895683,3738
32-4,32899589,-4872
32-5,32903495,-11401
32-6,32907401,-11181
32-7,32911307,-3918
32-8,32915213,6027
32-9,32919119,11597
32-10,32923025,9351
32-11,32926931,1056
32-12,32930837,-7494
32-13,32934743,-10175
32-14,32938649,-5570
32-15,32942555,3594
32-16,32946461,11539
32-17,32950367,12924
32-18,32954273,7277
32-19,32958179,-2031
32-20,32962085,-9162
32-21,32965991,-9813
32-22,32969897,-3784
32-23,32973803,5731
32-24,32977709,12178
32-25,32981615,11576
32-26,32985521,5065
32-27,32989427,-4209
32-28,32993333,-11579
32-29,32997239,-13658
32-30,33001145,-9177
32-31,33005051,-149
32-32,33008957,7212
32-1,33012868,8369
32-2,33016774,2734
32-3,33020680,-6411
32-4,33024586,-12835
32-5,33028492,-12317
32-6,33032398,-4717
32-7,33036304,5228
32-8,33040210,10554
32-9,33044116,8028
32-10,33048022,-284
32-11,33051928,-7869
32-12,33055834,-8876
32-13,33059740,-2755
32-14,33063646,6607
32-15,33067552,12800
32-16,33071458,11930
32-17,33075364,4814
32-18,33079270,-4625
32-19,33083176,-10668
32-20,33087082,-10004
32-21,33090988,-2851
32-22,33094894,6823
32-23,33098800,12191
32-24,33102706,10188
32-25,33106612,2904
32-26,33110518,-5554
32-27,33114424,-10704
32-28,33118330,-10296
32-29,33122236,-4357
32-30,33126142,3903
32-31,33130048,8921
32-32,33133954,7809
32-1,33137958,796
32-2,33141864,-8282
32-3,33145770,-13753
32-4,33149676,-11984
32-5,33153582,-3503
32-6,33157488,5766
32-7,33161394,9417
32-8,33165300,5469
32-9,33169206,-2709
32-10,33173112,-8215
32-11,33177018,-6660
32-12,33180924,974
32-13,33184830,9766
32-14,33188736,13784
32-15,33192642,10838
32-16,33196548,2692
32-17,33200454,-6259
32-18,33204360,-10661
32-19,33208266,-8162
32-20,33212172,262
32-21,33216078,9460
32-22,33219984,12696
32-23,33223890,8434
32-24,33227796,-186
32-25,33231702,-7551
32-26,33235608,-9833
32-27,33239514,-7304
32-28,33243420,-1534
32-29,33247326,3804
32-30,33251232,5581
32-31,33255138,3097
32-32,33259044,-3182
32-1,33262864,-9898
32-2,33266770,-12429
32-3,33270676,-8072
32-4,33274582,1609
32-5,33278488,9657
32-6,33282394,10403
32-7,33286300,3904
32-8,33290206,-5213
32-9,33294112,-10098
32-10,33298018,-7511
32-11,33301924,897
32-12,33305830,9732
32-13,33309736,12836
32-14,33313642,8541
32-15,33317548,-457
32-16,33321454,-8427
32-17,33325360,-10334
32-18,33329266,-5327
32-19,33333172,3983
32-20,33337078,11620
32-21,33340984,12456
32-22,33344890,6127
32-23,33348796,-3187
32-24,33352702,-9163
32-25,33356608,-8385
32-26,33360514,-2312
32-27,33364420,4528
32-28,33368326,7022
32-29,33372232,4165
32-30,33376138,-1600
32-31,33380044,-7947
32-32,33383950,-12067
32-1,33387861,-12053
32-2,33391767,-6313
32-3,33395673,3110
32-4,33399579,9626
32-5,33403485,8771
32-6,33407391,1194
32-7,33411297,-6988
32-8,33415203,-9326
32-9,33419109,-4268
32-10,33423015,5063
32-11,33426921,12429
32-12,33430827,13016
32-13,33434733,6797
32-14,33438639,-2565
32-15,33442545,-9226
32-16,33446451,-9256
32-17,33450357,-2699
32-18,33454263,6979
32-19,33458169,13238
32-20,33462075,12030
32-21,33465981,4464
32-22,33469887,-5078
32-23,33473793,-10001
32-24,33477699,-7227
32-25,33481605,859
32-26,33485511,8675
32-27,33489417,10242
32-28,33493323,5313
32-29,33497229,-2495
32-30,33501135,-9634
32-31,33505041,-13453
32-32,33508947,-12640
32-1,33512859,-6724
32-2,33516765,1651
32-3,33520671,6930
32-4,33524577,5229
32-5,33528483,-1951
32-6,33532389,-8348
32-7,33536295,-8520
32-8,33540201,-1880
32-9,33544107,7597
32-10,33548013,13395
32-11,33551919,11935
32-12,33555825,4453
32-13,33559731,-4683
32-14,33563637,-9694
32-15,33567543,-7849
32-16,33571449,-41
32-17,33575355,9206
32-18,33579261,13391
32-19,33583167,10004
32-20,33587073,1264
32-21,33590979,-7387
32-22,33594885,-10480
32-23,33598791,-6283
32-24,33602697,2907
32-25,33606603,10848
32-26,33610509,12032
32-27,33614415,6370
32-28,33618321,-2997
32-29,33622227,-11155
32-30,33626133,-14045
32-31,33630039,-10308
32-32,33633945,-1255
32-1,33637856,7237
32-2,33641762,9705
32-3,33645668,4827
32-4,33649574,-4363
32-5,33653480,-10998
32-6,33657386,-10548
32-7,33661292,-3179
32-8,33665198,6600
32-9,33669104,12010
32-10,33673010,9818
32-11,33676916,1578
32-12,33680822,-7281
32-13,33684728,-10662
32-14,33688634,-6747
32-15,33692540,2285
32-16,33696446,10733
32-17,33700352,12817
32-18,33704258,7644
32-19,33708164,-1627
32-20,33712070,-9050
32-21,33715976,-10019
32-22,33719882,-4274
32-23,33723788,5085
32-24,33727694,11603
32-25,33731600,11179
32-26,33735506,4864
32-27,33739412,-4273
32-28,33743318,-11580
32-29,33747224,-13631
32-30,33751130,-9190
32-31,33755036,-253
32-32,33758942,6993
32-1,33763007,8021
32-2,33766913,2320
32-3,33770819,-6834
32-4,33774725,-13238
32-5,33778631,-12745
32-6,33782537,-5226
32-7,33786443,4684
32-8,33790349,10049
32-9,33794255,7599
32-10,33798161,-631
32-11,33802067,-8150
32-12,33805973,-9128
32-13,33809879,-3025
32-14,33813785,6345
32-15,33817691,12650
32-16,33821597,11870
32-17,33825503,4814
32-18,33829409,-4413
32-19,33833315,-10028
32-20,33837221,-8872
32-21,33841127,-1526
32-22,33845033,7861
32-23,33848939,12643
32-24,33852845,10129
32-25,33856751,2613
32-26,33860657,-5978
32-27,33864563,-11461
32-28,33868469,-11582
32-29,33872375,-5974
32-30,33876281,2401
32-31,33880187,7906
32-32,33884093,7342
32-1,33887852,627
32-2,33891758,-8325
32-3,33895664,-13557
32-4,33899570,-11338
32-5,33903476,-2397
32-6,33907382,7042
32-7,33911288,10544
32-8,33915194,6178
32-9,33919100,-2726
32-10,33923006,-9103
32-11,33926912,-8226
32-12,33930818,-686
32-13,33934724,8724
32-14,33938630,13570
32-15,33942536,11026
32-16,33946442,2855
32-17,33950348,-6046
32-18,33954254,-9970
32-19,33958160,-6833
32-20,33962066,1815
32-21,33965972,10688
32-22,33969878,13298
32-23,33973784,8479
32-24,33977690,-404
32-25,33981596,-7769
32-26,33985502,-9864
32-27,33989408,-7045
32-28,33993314,-998
32-29,33997220,4437
32-30,34001126,6134
32-31,34005032,3615
32-32,34008938,-2628
32-1,34012849,-9521
32-2,34016755,-12568
32-3,34020661,-8805
32-4,34024567,603
32-5,34028473,8844
32-6,34032379,9899
32-7,34036285,3598
32-8,34040191,-5212
32-9,34044097,-9531
32-10,34048003,-6294
32-11,34051909,2402
32-12,34055815,10894
32-13,34059721,13475
32-14,34063627,9016
32-15,34067533,26
32-16,34071439,-8223
32-17,34075345,-10780
32-18,34079251,-6289
32-19,34083157,3183
32-20,34087063,11479
32-21,34090969,12812
32-22,34094875,6547
32-23,34098781,-2769
32-24,34102687,-8369
32-25,34106593,-6905
32-26,34110499,-490
32-27,34114405,5931
32-28,34118311,7558
32-29,34122217,3984
32-30,34126123,-1881
32-31,34130029,-7852
32-32,34133935,-12024
32-1,34137847,-13065
32-2,34141753,-8948
32-3,34145659,-706
32-4,34149565,5839
32-5,34153471,6120
32-6,34157377,170
32-7,34161283,-6531
32-8,34165189,-7937
32-9,34169095,-2537
32-10,34173001,6581
32-11,34176907,13280
32-12,34180813,13283
32-13,34184719,6951
32-14,34188625,-2379
32-15,34192531,-9342
32-16,34196437,-10039
32-17,34200343,-3980
32-18,34204249,5709
32-19,34208155,12310
32-20,34212061,11447
32-21,34215967,4025
32-22,34219873,-5479
32-23,34223779,-10255
32-24,34227685,-7229
32-25,34231591,1012
32-26,34235497,8800
32-27,34239403,10269
32-28,34243309,5239
32-29,34247215,-2673
32-30,34251121,-9819
32-31,34255027,-13457
32-32,34258933,-12349
32-1,34262845,-6195
32-2,34266751,2182
32-3,34270657,7124
32-4,34274563,5084
32-5,34278469,-1861
32-6,34282375,-7447
32-7,34286281,-6780
32-8,34290187,82
32-9,34294093,8970
32-10,34297999,13882
32-11,34301905,11893
32-12,34305811,4326
32-13,34309717,-4903
32-14,34313623,-10368
32-15,34317529,-9101
32-16,34321435,-1417
32-17,34325341,8245
32-18,34329247,13039
32-19,34333153,10080
32-20,34337059,1463
32-21,34340965,-7199
32-22,34344871,-10249
32-23,34348777,-5963
32-24,34352683,3170
32-25,34356589,10927
32-26,34360495,11925
32-27,34364401,6106
32-28,34368307,-3244
32-29,34372213,-11172
32-30,34376119,-13866
32-31,34380025,-10203
32-32,34383931,-1545
32-1,34387995,6469
32-2,34391901,8848
32-3,34395807,4314
32-4,34399713,-4650
32-5,34403619,-11583
32-6,34407525,-11839
32-7,34411431,-4967
32-8,34415337,5042
32-9,34419243,11217
32-10,34423149,9787
32-11,34427055,1926
32-12,34430961,-6973
32-13,34434867,-10504
32-14,34438773,-6632
32-15,34442679,2371
32-16,34446585,10831
32-17,34450491,12959
32-18,34454397,7783
32-19,34458303,-1445
32-20,34462209,-8800
32-21,34466115,-9727
32-22,34470021,-3989
32-23,34473927,5359
32-24,34477833,12004
32-25,34481739,11841
32-26,34485645,5755
32-27,34489551,-3336
32-28,34493457,-10805
32-29,34497363,-13067
32-30,34501269,-8703
32-31,34505175,364
32-32,34509081,7851
32-1,34512840,9079
32-2,34516746,3447
32-3,34520652,-5822
32-4,34524558,-12475
32-5,34528464,-12215
32-6,34532370,-4822
32-7,34536276,5136
32-8,34540182,10616
32-9,34544088,8215
32-10,34547994,-58
32-11,34551900,-7752
32-12,34555806,-8967
32-13,34559712,-3030
32-14,34563618,6334
32-15,34567524,12819
32-16,34571430,12239
32-17,34575336,5207
32-18,34579242,-4177
32-19,34583148,-10001
32-20,34587054,-8941
32-21,34590960,-1536
32-22,34594866,8009
32-23,34598772,12972
32-24,34602678,10584
32-25,34606584,3102
32-26,34610490,-5575
32-27,34614396,-11210
32-28,34618302,-11439
32-29,34622208,-5824
32-30,34626114,2660
32-31,34630020,8226
32-32,34633926,7590
32-1,34637838,713
32-2,34641744,-8377
32-3,34645650,-13645
32-4,34649556,-11430
32-5,34653462,-2536
32-6,34657368,6816
32-7,34661274,10230
32-8,34665180,5873
32-9,34669086,-2919
32-10,34672992,-9208
32-11,34676898,-8327
32-12,34680804,-883
32-13,34684710,8425
32-14,34688616,13237
32-15,34692522,10642
32-16,34696428,2382
32-17,34700334,-6642
32-18,34704240,-10693
32-19,34708146,-7637
32-20,34712052,1030
32-21,34715958,10067
32-22,34719864,12987
32-23,34723770,8536
32-24,34727676,-112
32-25,34731582,-7507
32-26,34735488,-9877
32-27,34739394,-7390
32-28,34743300,-1524
32-29,34747206,3926
32-30,34751112,5718
32-31,34755018,3305
32-32,34758924,-2826
32-1,34762835,-9742
32-2,34766741,-13108
32-3,34770647,-9922
32-4,34774553,-988
32-5,34778459,7280
32-6,34782365,8870
32-7,34786271,3281
32-8,34790177,-5052
32-9,34794083,-9283
32-10,34797989,-6166
32-11,34801895,2463
32-12,34805801,11003
32-13,34809707,13588
32-14,34813613,8975
32-15,34817519,-100
32-16,34821425,-8074
32-17,34825331,-10078
32-18,34829237,-5140
32-19,34833143,4281
32-20,34837049,12047
32-21,34840955,12882
32-22,34844861,6437
32-23,34848767,-3053
32-24,34852673,-9136
32-25,34856579,-8335
32-26,34860485,-2197
32-27,34864391,4652
32-28,34868297,7012
32-29,34872203,3933
32-30,34876109,-1902
32-31,34880015,-8077
32-32,34883921,-12176
32-1,34887833,-12709
32-2,34891739,-7976
32-3,34895645,632
32-4,34899551,7214
32-5,34903457,7262
32-6,34907363,805
32-7,34911269,-6641
32-8,34915175,-8814
32-9,34919081,-3868
32-10,34922987,5377
32-11,34926893,12636
32-12,34930799,13052
32-13,34934705,6686
32-14,34938611,-2715
32-15,34942517,-9242
32-16,34946423,-9062
32-17,34950329,-2408
32-18,34954235,7095
32-19,34958141,12932
32-20,34962047,11490
32-21,34965953,4044
32-22,34969859,-5610
32-23,34973765,-11288
32-24,34977671,-9630
32-25,34981577,-2185
32-26,34985483,6073
32-27,34989389,8834
32-28,34993295,4918
32-29,34997201,-2691
32-30,35001107,-9939
32-31,35005013,-13064
32-32,35008919,-10533
32-1,35012830,-2916
32-2,35016736,5983
32-3,35020642,10324
32-4,35024548,6917
32-5,35028454,-1614
32-6,35032360,-8506
32-7,35036266,-8626
32-8,35040172,-1969
32-9,35044078,7288
32-10,35047984,12873
32-11,35051890,11378
32-12,35055796,3928
32-13,35059702,-5379
32-14,35063608,-10843
32-15,35067514,-9462
32-16,35071420,-1681
32-17,35075326,8093
32-18,35079232,12967
32-19,35083138,9979
32-20,35087044,1440
32-21,35090950,-6812
32-22,35094856,-9235
32-23,35098762,-4521
32-24,35102668,4468
32-25,35106574,11597
32-26,35110480,11970
32-27,35114386,5941
32-28,35118292,-3280
32-29,35122198,-11138
32-30,35126104,-14086
32-31,35130010,-10816
32-32,35133916,-2365
32-1,35137828,5776
32-2,35141734,8551
32-3,35145640,4429
32-4,35149546,-4229
32-5,35153452,-10937
32-6,35157358,-10954
32-7,35161264,-3877
32-8,35165170,6101
32-9,35169076,12014
32-10,35172982,10248
32-11,35176888,2188
32-12,35180794,-6704
32-13,35184700,-10199
32-14,35188606,-6374
32-15,35192512,2539
32-16,35196418,10877
32-17,35200324,12902
32-18,35204230,7656
32-19,35208136,-1644
32-20,35212042,-8994
32-21,35215948,-9805
32-22,35219854,-3849
32-23,35223760,5705
32-24,35227666,12387
32-25,35231572,12097
32-26,35235478,5843
32-27,35239384,-3348
32-28,35243290,-10866
32-29,35247196,-13192
32-30,35251102,-8923
32-31,35255008,29
32-32,35258914,7427
32-1,35262826,8583
32-2,35266732,2905
32-3,35270638,-6323
32-4,35274544,-12864
32-5,35278450,-12492
32-6,35282356,-5071
32-7,35286262,4776
32-8,35290168,10142
32-9,35294074,7742
32-10,35297980,-447
32-11,35301886,-7991
32-12,35305792,-9025
32-13,35309698,-2941
32-14,35313604,6488
32-15,35317510,12942
32-16,35321416,12313
32-17,35325322,5306
32-18,35329228,-3975
32-19,35333134,-9671
32-20,35337040,-8528
32-21,35340946,-1146
32-22,35344852,8293
32-23,35348758,13137
32-24,35352664,10634
32-25,35356570,3067
32-26,35360476,-5631
32-27,35364382,-11259
32-28,35368288,-11500
32-29,35372194,-5921
32-30,35376100,2581
32-31,35380006,8283
32-32,35383912,7843
32-1,35387823,1147
32-2,35391729,-7910
32-3,35395635,-13338
32-4,35399541,-11381
32-5,35403447,-2676
32-6,35407353,6705
32-7,35411259,10281
32-8,35415165,6053
32-9,35419071,-2674
32-10,35422977,-8888
32-11,35426883,-7911
32-12,35430789,-445
32-13,35434695,8758
32-14,35438601,13416
32-15,35442507,10778
32-16,35446413,2648
32-17,35450319,-6195
32-18,35454225,-10155
32-19,35458131,-7200
32-20,35462037,1189
32-21,35465943,9951
32-22,35469849,12687
32-23,35473755,8199
32-24,35477661,-321
32-25,35481567,-7591
32-26,35485473,-9970
32-27,35489379,-7609
32-28,35493285,-1842
32-29,35497191,3663
32-30,35501097,5575
32-31,35505003,3184
32-32,35508909,-3072
32-1,35512821,-10093
32-2,35516727,-13258
32-3,35520633,-9547
32-4,35524539,-9
32-5,35528445,8550
32-6,35532351,9933
32-7,35536257,3857
32-8,35540163,-4943
32-9,35544069,-9441
32-10,35547975,-6394
32-11,35551881,2231
32-12,35555787,10841
32-13,35559693,13548
32-14,35563599,9024
32-15,35567505,-24
32-16,35571411,-8060
32-17,35575317,-10165
32-18,35579223,-5348
32-19,35583129,3959
32-20,35587035,11690
32-21,35590941,12592
32-22,35594847,6284
32-23,35598753,-3122
32-24,35602659,-9293
32-25,35606565,-8684
32-26,35610471,-2673
32-27,35614377,4274
32-28,35618283,6947
32-29,35622189,4173
32-30,35626095,-1505
32-31,35630001,-7687
32-32,35633907,-11902
32-1,35637819,-12581
32-2,35641725,-8012
32-3,35645631,496
32-4,35649537,7076
32-5,35653443,7169
32-6,35657349,759
32-7,35661255,-6668
32-8,35665161,-8822
32-9,35669067,-3811
32-10,35672973,5567
32-11,35676879,13008
32-12,35680785,13603
32-13,35684691,7322
32-14,35688597,-2167
32-15,35692503,-8929
32-16,35696409,-9005
32-17,35700315,-2449
32-18,35704221,7189
32-19,35708127,13245
32-20,35712033,11732
32-21,35715939,3948
32-22,35719845,-5604
32-23,35723751,-10335
32-24,35727657,-7374
32-25,35731563,742
32-26,35735469,8498
32-27,35739375,10015
32-28,35743281,5108
32-29,35747187,-2729
32-30,35751093,-9866
32-31,35754999,-13281
32-32,35758905,-11543
32-1,35762816,-4541
32-2,35766722,4403
32-3,35770628,9313
32-4,35774534,6592
32-5,35778440,-1609
32-6,35782346,-8639
32-7,35786252,-9028
32-8,35790158,-2382
32-9,35794064,7186
32-10,35797970,13145
32-11,35801876,11762
32-12,35805782,4198
32-13,35809688,-5045
32-14,35813594,-10042
32-15,35817500,-8043
32-16,35821406,-72
32-17,35825312,9203
32-18,35829218,13297
32-19,35833124,9822
32-20,35837030,1062
32-21,35840936,-7508
32-22,35844842,-10475
32-23,35848748,-6212
32-24,35852654,3007
32-25,35856560,10996
32-26,35860466,12261
32-27,35864372,6699
32-28,35868278,-2553
32-29,35872184,-10696
32-30,35876090,-13914
32-31,35879996,-10928
32-32,35883902,-2774
32-1,35887814,5191
32-2,35891720,7902
32-3,35895626,3812
32-4,35899532,-4787
32-5,35903438,-11476
32-6,35907344,-11482
32-7,35911250,-4328
32-8,35915156,5811
32-9,35919062,11805
32-10,35922968,9919
32-11,35926874,1766
32-12,35930780,-6846
32-13,35934686,-9670
32-14,35938592,-5186
32-15,35942498,3864
32-16,35946404,11740
32-17,35950310,13180
32-18,35954216,7694
32-19,35958122,-1689
32-20,35962028,-9411
32-21,35965934,-10921
32-22,35969840,-5496
32-23,35973746,4159
32-24,35977652,11372
32-25,35981558,11550
32-26,35985464,5337
32-27,35989370,-4110
32-28,35993276,-11492
32-29,35997182,-13008
32-30,36001088,-7748
32-31,36004994,1731
32-32,36008900,8908
32-1,36012811,9385
32-2,36016717,3180
32-3,36020623,-6292
32-4,36024529,-13119
32-5,36028435,-13325
32-6,36032341,-6533
32-7,36036247,3287
32-8,36040153,9271
32-9,36044059,7696
32-10,36047965,246
32-11,36051871,-6819
32-12,36055777,-7618
32-13,36059683,-1529
32-14,36063589,7542
32-15,36067495,13368
32-16,36071401,12306
32-17,36075307,5227
32-18,36079213,-4159
32-19,36083119,-10356
32-20,36087025,-9927
32-21,36090931,-2877
32-22,36094837,6880
32-23,36098743,12438
32-24,36102649,10566
32-25,36106555,3228
32-26,36110461,-5572
32-27,36114367,-11343
32-28,36118273,-11589
32-29,36122179,-5993
32-30,36126085,2483
32-31,36129991,8136
32-32,36133897,7598
32-1,36137809,811
32-2,36141715,-8236
32-3,36145621,-13547
32-4,36149527,-11438
32-5,36153433,-2653
32-6,36157339,6645
32-7,36161245,9982
32-8,36165151,5629
32-9,36169057,-2795
32-10,36172963,-8354
32-11,36176869,-6776
32-12,36180775,794
32-13,36184681,9512
32-14,36188587,13535
32-15,36192493,10640
32-16,36196399,2577
32-17,36200305,-6367
32-18,36204211,-10868
32-19,36208117,-8503
32-20,36212023,-156
32-21,36215929,9118
32-22,36219835,12497
32-23,36223741,8322
32-24,36227647,-313
32-25,36231553,-7812
32-26,36235459,-10217
32-27,36239365,-7700
32-28,36243271,-1817
32-29,36247177,3772
32-30,36251083,5794
32-31,36254989,3588
32-32,36258895,-2413
32-1,36262807,-9417
32-2,36266713,-13144
32-3,36270619,-10540
32-4,36274525,-2111
32-5,36278431,6092
32-6,36282337,8106
32-7,36286243,3164
32-8,36290149,-4673
32-9,36294055,-8738
32-10,36297961,-5692
32-11,36301867,2814
32-12,36305773,11319
32-13,36309679,13956
32-14,36313585,9432
32-15,36317491,435
32-16,36321397,-7532
32-17,36325303,-9627
32-18,36329209,-4887
32-19,36333115,4325
32-20,36337021,12021
32-21,36340927,12923
32-22,36344833,6608
32-23,36348739,-2772
32-24,36352645,-8924
32-25,36356551,-8357
32-26,36360457,-2486
32-27,36364363,4264
32-28,36368269,6798
32-29,36372175,4029
32-30,36376081,-1541
32-31,36379987,-7733
32-32,36383893,-12064
32-1,36387835,-12694
32-2,36391741,-7675
32-3,36395647,1562
32-4,36399553,8676
32-5,36403459,8790
32-6,36407365,1924
32-7,36411271,-6159
32-8,36415177,-8856
32-9,36419083,-4187
32-10,36422989,5039
32-11,36426895,12616
32-12,36430801,13554
32-13,36434707,7613
32-14,36438613,-1728
32-15,36442519,-8636
32-16,36446425,-9006
32-17,36450331,-2732
32-18,36454237,6807
32-19,36458143,13046
32-20,36462049,11834
32-21,36465955,4291
32-22,36469861,-5244
32-23,36473767,-10195
32-24,36477673,-7438
32-25,36481579,654
32-26,36485485,8569
32-27,36489391,10283
32-28,36493297,5426
32-29,36497203,-2494
32-30,36501109,-9779
32-31,36505015,-13314
32-32,36508921,-11596
32-1,36512802,-4516
32-2,36516708,4584
32-3,36520614,9648
32-4,36524520,6975
32-5,36528426,-1310
32-6,36532332,-8486
32-7,36536238,-9022
32-8,36540144,-2528
32-9,36544050,6906
32-10,36547956,12803
32-11,36551862,11450
32-12,36555768,3962
32-13,36559674,-5308
32-14,36563580,-10485
32-15,36567486,-8703
32-16,36571392,-830
32-17,36575298,8599
32-18,36579204,12996
32-19,36583110,9773
32-20,36587016,1098
32-21,36590922,-7604
32-22,36594828,-10809
32-23,36598734,-6734
32-24,36602640,2412
32-25,36606546,10488
32-26,36610452,11916
32-27,36614358,6428
32-28,36618264,-2933
32-29,36622170,-11136
32-30,36626076,-13952
32-31,36629982,-10053
32-32,36633888,-854
32-1,36637800,7654
32-2,36641706,9973
32-3,36645612,4882
32-4,36649518,-4489
32-5,36653424,-11203
32-6,36657330,-10758
32-7,36661236,-3405
32-8,36665142,6351
32-9,36669048,11735
32-10,36672954,9533
32-11,36676860,1339
32-12,36680766,-7519
32-13,36684672,-11016
32-14,36688578,-7254
32-15,36692484,1732
32-16,36696390,10346
32-17,36700296,12659
32-18,36704202,7558
32-19,36708108,-1786
32-20,36712014,-9296
32-21,36715920,-10215
32-22,36719826,-4279
32-23,36723732,5268
32-24,36727638,11905
32-25,36731544,11523
32-26,36735450,5197
32-27,36739356,-4002
32-28,36743262,-11450
32-29,36747168,-13671
32-30,36751074,-9306
32-31,36754980,-234
32-32,36758886,7318
32-1,36762797,8635
32-2,36766703,3036
32-3,36770609,-6259
32-4,36774515,-12945
32-5,36778421,-12675
32-6,36782327,-5232
32-7,36786233,4736
32-8,36790139,10217
32-9,36794045,7843
32-10,36797951,-455
32-11,36801857,-8200
32-12,36805763,-9429
32-13,36809669,-3419
32-14,36813575,6084
32-15,36817481,12658
32-16,36821387,12085
32-17,36825293,5041
32-18,36829199,-4319
32-19,36833105,-10069
32-20,36837011,-8935
32-21,36840917,-1526
32-22,36844823,7969
32-23,36848729,12831
32-24,36852635,10261
32-25,36856541,2672
32-26,36860447,-5747
32-27,36864353,-10570
32-28,36868259,-9820
32-29,36872165,-3758
32-30,36876071,4336
32-31,36879977,8974
32-32,36883883,7638
32-1,36887795,903
32-2,36891701,-7857
32-3,36895607,-14043
32-4,36899513,-14414
32-5,36903419,-8574
32-6,36907325,-613
32-7,36911231,3994
32-8,36915137,2494
32-9,36919043,-3353
32-10,36922949,-7833
32-11,36926855,-6411
32-12,36930761,893
32-13,36934667,9730
32-14,36938573,13964
32-15,36942479,11170
32-16,36946385,3083
32-17,36950291,-5943
32-18,36954197,-10536
32-19,36958103,-8289
32-20,36962009,4
32-21,36965915,9354
32-22,36969821,12846
32-23,36973727,8785
32-24,36977633,383
32-25,36981539,-6685
32-26,36985445,-8578
32-27,36989351,-5780
32-28,36993257,-129
32-29,36997163,4805
32-30,37001069,6202
32-31,37004975,3706
32-32,37008881,-2348
32-1,37012793,-9405
32-2,37016699,-13100
32-3,37020605,-10125
32-4,37024511,-1070
32-5,37028417,7538
32-6,37032323,9376
32-7,37036229,3927
32-8,37040135,-4200
32-9,37044041,-8105
32-10,37047947,-4724
32-11,37051853,3740
32-12,37055759,11698
32-13,37059665,13776
32-14,37063571,9094
32-15,37067477,148
32-16,37071383,-8067
32-17,37075289,-10811
32-18,37079195,-6604
32-19,37083101,2666
32-20,37087007,10919
32-21,37090913,12463
32-22,37094819,6479
32-23,37098725,-2969
32-24,37102631,-9273
32-25,37106537,-8668
32-26,37110443,-2614
32-27,37114349,4277
32-28,37118255,6870
32-29,37122161,4087
32-30,37126067,-1531
32-31,37129973,-7719
32-32,37133879,-11967
32-1,37137851,-12497
32-2,37141757,-7493
32-3,37145663,1587
32-4,37149569,8384
32-5,37153475,8135
32-6,37157381,1252
32-7,37161287,-6290
32-8,37165193,-8113
32-9,37169099,-2835
32-10,37173005,6206
32-11,37176911,12900
32-12,37180817,12987
32-13,37184723,6786
32-14,37188629,-2475
32-15,37192535,-9507
32-16,37196441,-10312
32-17,37200347,-4310
32-18,37204253,5504
32-19,37208159,12439
32-20,37212065,11892
32-21,37215971,4622
32-22,37219877,-4987
32-23,37223783,-10102
32-24,37227689,-7413
32-25,37231595,654
32-26,37235501,8563
32-27,37239407,10371
32-28,37243313,5659
32-29,37247219,-2024
32-30,37251125,-9165
32-31,37255031,-13137
32-32,37258937,-12597
32-1,37262788,-6996
32-2,37266694,1216
32-3,37270600,6595
32-4,37274506,5175
32-5,37278412,-1722
32-6,37282318,-8012
32-7,37286224,-8280
32-8,37290130,-1814
32-9,37294036,7556
32-10,37297942,13397
32-11,37301848,12067
32-12,37305754,4680
32-13,37309660,-4503
32-14,37313566,-9686
32-15,37317472,-8012
32-16,37321378,-240
32-17,37325284,9188
32-18,37329190,13682
32-19,37333096,10564
32-20,37337002,1946
32-21,37340908,-6768
32-22,37344814,-10037
32-23,37348720,-6025
32-24,37352626,3062
32-25,37356532,11088
32-26,37360438,12472
32-27,37364344,6971
32-28,37368250,-2265
32-29,37372156,-10343
32-30,37376062,-13320
32-31,37379968,-9961
32-32,37383874,-1489
32-1,37387785,6566
32-2,37391691,9085
32-3,37395597,4769
32-4,37399503,-4029
32-5,37403409,-11154
32-6,37407315,-11962
32-7,37411221,-5762
32-8,37415127,3878
32-9,37419033,10257
32-10,37422939,9346
32-11,37426845,1965
32-12,37430751,-6672
32-13,37434657,-10164
32-14,37438563,-6291
32-15,37442469,2764
32-16,37446375,11236
32-17,37450281,13332
32-18,37454187,8091
32-19,37458093,-1270
32-20,37461999,-8764
32-21,37465905,-9761
32-22,37469811,-3980
32-23,37473717,5496
32-24,37477623,12213
32-25,37481529,11959
32-26,37485435,5701
32-27,37489341,-3533
32-28,37493247,-11058
32-29,37497153,-13286
32-30,37501059,-8831
32-31,37504965,357
32-32,37508871,7942
32-1,37512783,9183
32-2,37516689,3479
32-3,37520595,-5914
32-4,37524501,-12655
32-5,37528407,-12395
32-6,37532313,-4905
32-7,37536219,5209
32-8,37540125,10837
32-9,37544031,8515
32-10,37547937,171
32-11,37551843,-7728
32-12,37555749,-9138
32-13,37559655,-3286
32-14,37563561,6135
32-15,37567467,12780
32-16,37571373,12358
32-17,37575279,5440
32-18,37579185,-3913
32-19,37583091,-9802
32-20,37586997,-8911
32-21,37590903,-1752
32-22,37594809,7605
32-23,37598715,12528
32-24,37602621,10199
32-25,37606527,2781
32-26,37610433,-5908
32-27,37614339,-11638
32-28,37618245,-11982
32-29,37622151,-6408
32-30,37626057,2211
32-31,37629963,8029
32-32,37633869,7657
32-1,37637781,1083
32-2,37641687,-7898
32-3,37645593,-13602
32-4,37649499,-12358
32-5,37653405,-4516
32-6,37657311,4450
32-7,37661217,8409
32-8,37665123,5071
32-9,37669029,-2796
32-10,37672935,-8544
32-11,37676841,-7467
32-12,37680747,47
32-13,37684653,9314
32-14,37688559,13917
32-15,37692465,11113
32-16,37696371,2744
32-17,37700277,-6275
32-18,37704183,-10273
32-19,37708089,-7229
32-20,37711995,1361
32-21,37715901,10283
32-22,37719807,13028
32-23,37723713,8434
32-24,37727619,-224
32-25,37731525,-7557
32-26,37735431,-9885
32-27,37739337,-7430
32-28,37743243,-1610
32-29,37747149,3875
32-30,37751055,5756
32-31,37754961,3391
32-32,37758867,-2833
32-1,37762778,-9879
32-2,37766684,-13122
32-3,37770590,-9475
32-4,37774496,52
32-5,37778402,8662
32-6,37782308,10133
32-7,37786214,4080
32-8,37790120,-4808
32-9,37794026,-9454
32-10,37797932,-6552
32-11,37801838,1980
32-12,37805744,10558
32-13,37809650,13276
32-14,37813556,8773
32-15,37817462,-250
32-16,37821368,-8256
32-17,37825274,-10316
32-18,37829180,-5459
32-19,37833086,3882
32-20,37836992,11709
32-21,37840898,12841
32-22,37844804,6827
32-23,37848710,-2580
32-24,37852616,-9193
32-25,37856522,-9245
32-26,37860428,-3681
32-27,37864334,3375
32-28,37868240,6583
32-29,37872146,4321
32-30,37876052,-1222
32-31,37879958,-7571
32-32,37883864,-11740
32-1,37887837,-11867
32-2,37891743,-6563
32-3,37895649,2412
32-4,37899555,8897
32-5,37903461,8406
32-6,37907367,1357
32-7,37911273,-6444
32-8,37915179,-8717
32-9,37919085,-3840
32-10,37922991,5250
32-11,37926897,12453
32-12,37930803,13092
32-13,37934709,7141
32-14,37938615,-2166
32-15,37942521,-9284
32-16,37946427,-10108
32-17,37950333,-4183
32-18,37954239,5485
32-19,37958145,12168
32-20,37962051,11242
32-21,37965957,3770
32-22,37969863,-5460
32-23,37973769,-9660
32-24,37977675,-6106
32-25,37981581,2195
32-26,37985487,9593
32-27,37989393,10616
32-28,37993299,5446
32-29,37997205,-2298
32-30,38001111,-9435
32-31,38005017,-13514
32-32,38008923,-12886
32-1,38012829,-720
32-2,38016735,-826
32-3,38020641,-533
32-4,38024547,1148
32-5,38028453,2725
32-6,38032359,2353
32-7,38036265,921
32-8,38040171,-464
32-9,38044077,-1231
32-10,38047983,-808
32-11,38051889,391
32-12,38055795,1802
32-13,38059701,2513
32-14,38063607,1614
32-15,38067513,15
32-16,38071419,-1414
32-17,38075325,-1897
32-18,38079231,-927
32-19,38083137,647
32-20,38087043,2084
32-21,38090949,2221
32-22,38094855,1020
32-23,38098761,-556
32-24,38102667,-1595
32-25,38106573,-558
32-26,38110479,1040
32-27,38114385,924
32-28,38118291,-1248
32-29,38122197,-4675
32-30,38126103,-6361
32-31,38130009,-4932
32-32,38133915,-2224
32-1,38137821,191
32-2,38141727,1296
32-3,38145633,1678
32-4,38149539,2337
32-5,38153445,1841
32-6,38157351,424
32-7,38161257,-727
32-8,38165163,-1169
32-9,38169069,-507
32-10,38172975,625
32-11,38176881,1892
32-12,38180787,2207
32-13,38184693,1086
32-14,38188599,-423
32-15,38192505,-1703
32-16,38196411,-1772
32-17,38200317,-675
32-18,38204223,877
32-19,38208129,2506
32-20,38212035,2573
32-21,38215941,799
32-22,38219847,-1452
32-23,38223753,-3440
32-24,38227659,-3418
32-25,38231565,-598
32-26,38235471,2414
32-27,38239377,2492
32-28,38243283,-1595
32-29,38247189,-6883
32-30,38251095,-9025
32-31,38255001,-6893
32-32,38258907,-2323
32-1,38262813,1705
32-2,38266719,3335
32-3,38270625,2730
32-4,38274531,1549
32-5,38278437,592
32-6,38282343,-195
32-7,38286249,-275
32-8,38290155,370
32-9,38294061,1317
32-10,38297967,2113
32-11,38301873,1888
32-12,38305779,839
32-13,38309685,-203
32-14,38313591,-792
32-15,38317497,-398
32-16,38321403,677
32-17,38325309,1899
32-18,38329215,2604
32-19,38333121,2065
32-20,38337027,927
32-21,38340933,-130
32-22,38344839,-597
32-23,38348745,-308
32-24,38352651,249
32-25,38356557,1630
32-26,38360463,3246
32-27,38364369,2839
32-28,38368275,-1733
32-29,38372181,-10473
32-30,38376087,-18412
32-31,38379993,-19887
32-32,38383899,-13581
32-1,38387805,-3483
32-2,38391711,3294
32-3,38395617,3829
32-4,38399523,1039
32-5,38403429,-1389
32-6,38407335,-1254
32-7,38411241,199
32-8,38415147,1375
32-9,38419053,3055
32-10,38422959,4094
32-11,38426865,2721
32-12,38430771,-2842
32-13,38434677,-11932
32-14,38438583,-18764
32-15,38442489,-18766
32-16,38446395,-11318
32-17,38450301,-625
32-18,38454207,5641
32-19,38458113,3386
32-20,38462019,-5222
32-21,38465925,-13850
32-22,38469831,-16257
32-23,38473737,-11280
32-24,38477643,-1999
32-25,38481549,5886
32-26,38485455,7321
32-27,38489361,2173
32-28,38493267,-7005
32-29,38497173,-15689
32-30,38501079,-19314
32-31,38504985,-15715
32-32,38508891,-6020
32-1,38512797,3290
32-2,38516703,6131
32-3,38520609,1339
32-4,38524515,-8345
32-5,38528421,-16575
32-6,38532327,-18167
32-7,38536233,-12031
32-8,38540139,-1367
32-9,38544045,6515
32-10,38547951,6322
32-11,38551857,-1159
32-12,38555763,-10023
32-13,38559669,-13251
32-14,38563575,-8726
32-15,38567481,539
32-16,38571387,8696
32-17,38575293,10365
32-18,38579199,4839
32-19,38583105,-4505
32-20,38587011,-11837
32-21,38590917,-12721
32-22,38594823,-6775
32-23,38598729,2922
32-24,38602635,9654
32-25,38606541,9313
32-26,38610447,3022
32-27,38614353,-6342
32-28,38618259,-13972
32-29,38622165,-16051
32-30,38626071,-11075
32-31,38629977,-1012
32-32,38633883,7236
32-1,38637789,8486
32-2,38641695,2313
32-3,38645601,-7707
32-4,38649507,-14784
32-5,38653413,-14471
32-6,38657319,-6838
32-7,38661225,3622
32-8,38665131,9650
32-9,38669037,7441
32-10,38672943,-929
32-11,38676849,-8817
32-12,38680755,-10059
32-13,38684661,-4009
32-14,38688567,5446
32-15,38692473,12066
32-16,38696379,11696
32-17,38700285,4890
32-18,38704191,-4563
32-19,38708097,-10942
32-20,38712003,-10559
32-21,38715909,-3469
32-22,38719815,6665
32-23,38723721,12487
32-24,38727627,10235
32-25,38731533,2839
32-26,38735439,-5307
32-27,38739345,-10097
32-28,38743251,-9882
32-29,38747157,-4964
32-30,38751063,2448
32-31,38754969,7663
32-32,38758875,7534
32-1,38762781,-283
32-2,38766687,768
32-3,38770593,1379
32-4,38774499,2403
32-5,38778405,2011
32-6,38782311,448
32-7,38786217,-881
32-8,38790123,-1479
32-9,38794029,-779
32-10,38797935,549
32-11,38801841,1965
32-12,38805747,2381
32-13,38809653,1159
32-14,38813559,-558
32-15,38817465,-1914
32-16,38821371,-2060
32-17,38825277,-789
32-18,38829183,1001
32-19,38833089,2421
32-20,38836995,2336
32-21,38840901,886
32-22,38844807,-521
32-23,38848713,-1653
32-24,38852619,-1504
32-25,38856525,550
32-26,38860431,2527
32-27,38864337,2145
32-28,38868243,-1714
32-29,38872149,-6526
32-30,38876055,-8585
32-31,38879961,-6650
32-32,38883867,-2388
32-1,38887773,1209
32-2,38891679,2625
32-3,38895585,2071
32-4,38899491,826
32-5,38903397,-424
32-6,38907303,-1434
32-7,38911209,-1441
32-8,38915115,-385
32-9,38919021,1090
32-10,38922927,2434
32-11,38926833,2366
32-12,38930739,782
32-13,38934645,-1060
32-14,38938551,-2365
32-15,38942457,-2070
32-16,38946363,-605
32-17,38950269,1213
32-18,38954175,2686
32-19,38958081,2111
32-20,38961987,-64
32-21,38965893,-2453
32-22,38969799,-3882
32-23,38973705,-3299
32-24,38977611,-1088
32-25,38981517,2065
32-26,38985423,3855
32-27,38989329,1714
32-28,38993235,-3152
32-29,38997141,-7726
32-30,39001047,-9033
32-31,39004953,-5848
32-32,39008859,-696
32-1,39012765,3068
32-2,39016671,3414
32-3,39020577,1434
32-4,39024483,-28
32-5,39028389,-486
32-6,39032295,-216
32-7,39036201,670
32-8,39040107,1782
32-9,39044013,2482
32-10,39047919,1905
32-11,39051825,603
32-12,39055731,-594
32-13,39059637,-1170
32-14,39063543,-646
32-15,39067449,534
32-16,39071355,1874
32-17,39075261,2527
32-18,39079167,1874
32-19,39083073,762
32-20,39086979,-244
32-21,39090885,-530
32-22,39094791,86
32-23,39098697,678
32-24,39102603,1896
32-25,39106509,3496
32-26,39110415,3212
32-27,39114321,-1181
32-28,39118227,-9629
32-29,39122133,-16968
32-30,39126039,-17899
32-31,39129945,-11608
32-32,39133851,-1427
32-1,39137757,5658
32-2,39141663,4589
32-3,39145569,-3030
32-4,39149475,-11537
32-5,39153381,-14991
32-6,39157287,-11639
32-7,39161193,-3927
32-8,39165099,3915
32-9,39169005,6903
32-10,39172911,3301
32-11,39176817,-4935
32-12,39180723,-13571
32-13,39184629,-17621
32-14,39188535,-14532
32-15,39192441,-5468
32-16,39196347,3987
32-17,39200253,7108
32-18,39204159,2182
32-19,39208065,-7163
32-20,39211971,-14518
32-21,39215877,-15066
32-22,39219783,-8906
32-23,39223689,587
32-24,39227595,7295
32-25,39231501,7168
32-26,39235407,1186
32-27,39239313,-8126
32-28,39243219,-16485
32-29,39247125,-19743
32-30,39251031,-15600
32-31,39254937,-5394
32-32,39258843,3946
32-1,39262749,6400
32-2,39266655,827
32-3,39270561,-9259
32-4,39274467,-16645
32-5,39278373,-16425
32-6,39282279,-8712
32-7,39286185,1863
32-8,39290091,8080
32-9,39293997,6081
32-10,39297903,-2382
32-11,39301809,-11073
32-12,39305715,-13573
32-13,39309621,-8482
32-14,39313527,1079
32-15,39317433,8979
32-16,39321339,9907
32-17,39325245,3600
32-18,39329151,-5921
32-19,39333057,-12421
32-20,39336963,-11913
32-21,39340869,-4864
32-22,39344775,5039
32-23,39348681,10924
32-24,39352587,9064
32-25,39356493,1992
32-26,39360399,-6440
32-27,39364305,-12180
32-28,39368211,-12968
32-29,39372117,-8363
32-30,39376023,-293
32-31,39379929,5962
32-32,39383835,6541
32-1,39387741,713
32-2,39391647,-8448
32-3,39395553,-14857
32-4,39399459,-13691
32-5,39403365,-5092
32-6,39407271,5101
32-7,39411177,9850
32-8,39415083,6390
32-9,39418989,-2325
32-10,39422895,-9349
32-11,39426801,-9262
32-12,39430707,-2245
32-13,39434613,7351
32-14,39438519,13202
32-15,39442425,11658
32-16,39446331,3914
32-17,39450237,-5421
32-18,39454143,-10426
32-19,39458049,-8389
32-20,39461955,-307
32-21,39465861,9052
32-22,39469767,13200
32-23,39473673,9410
32-24,39477579,401
32-25,39481485,-7286
32-26,39485391,-9544
32-27,39489297,-6813
32-28,39493203,-1176
32-29,39497109,3619
32-30,39501015,4912
32-31,39504921,2865
32-32,39508827,-2487
32-1,39512733,-8992
32-2,39516639,-12767
32-3,39520545,-10410
32-4,39524451,-1038
32-5,39528357,8545
32-6,39532263,11042
32-7,39536169,5551
32-8,39540075,-3609
32-9,39543981,-9080
32-10,39547887,-6925
32-11,39551793,1275
32-12,39555699,10301
32-13,39559605,14056
32-14,39563511,10438
32-15,39567417,1744
32-16,39571323,-6819
32-17,39575229,-9914
32-18,39579135,-5957
32-19,39583041,3137
32-20,39586947,11772
32-21,39590853,13884
32-22,39594759,8559
32-23,39598665,-1156
32-24,39602571,-8799
32-25,39606477,-8766
32-26,39610383,-2219
32-27,39614289,5872
32-28,39618195,9170
32-29,39622101,5514
32-30,39626007,-1430
32-31,39629913,-8070
32-32,39633819,-11982
32-1,39637725,-11703
32-2,39641631,-6457
32-3,39645537,2577
32-4,39649443,10141
32-5,39653349,10445
32-6,39657255,3289
32-7,39661161,-5457
32-8,39665067,-8941
32-9,39668973,-4860
32-10,39672879,4162
32-11,39676785,12298
32-12,39680691,14151
32-13,39684597,8998
32-14,39688503,-209
32-15,39692409,-7784
32-16,39696315,-9062
32-17,39700221,-3445
32-18,39704127,6215
32-19,39708033,13515
32-20,39711939,13549
32-21,39715845,6628
32-22,39719751,-2983
32-23,39723657,-9276
32-24,39727563,-8115
32-25,39731469,-73
32-26,39735375,9355
32-27,39739281,13165
32-28,39743187,9108
32-29,39747093,330
32-30,39750999,-8401
32-31,39754905,-13103
32-32,39758811,-12551
32-1,39762717,-6599
32-2,39766623,1868
32-3,39770529,7532
32-4,39774435,7025
32-5,39778341,489
32-6,39782247,-6432
32-7,39786153,-7706
32-8,39790059,-2029
32-9,39793965,7416
32-10,39797871,14200
32-11,39801777,13984
32-12,39805683,7340
32-13,39809589,-2026
32-14,39813495,-8570
32-15,39817401,-8745
32-16,39821307,-2452
32-17,39825213,6925
32-18,39829119,12838
32-19,39833025,11371
32-20,39836931,3684
32-21,39840837,-5168
32-22,39844743,-9078
32-23,39848649,-5779
32-24,39852555,2878
32-25,39856461,11501
32-26,39860367,14266
32-27,39864273,10087
32-28,39868179,1221
32-29,39872085,-7804
32-30,39875991,-12173
32-31,39879897,-9735
32-32,39883803,-1227
32-1,39887709,7785
32-2,39891615,11196
32-3,39895521,7451
32-4,39899427,-1380
32-5,39903333,-9751
32-6,39907239,-12459
32-7,39911145,-7778
32-8,39915051,2023
32-9,39918957,10287
32-10,39922863,11491
32-11,39926769,5231
32-12,39930675,-3760
32-13,39934581,-8393
32-14,39938487,-5425
32-15,39942393,3212
32-16,39946299,11930
32-17,39950205,14765
32-18,39954111,10268
32-19,39958017,1215
32-20,39961923,-6797
32-21,39965829,-8774
32-22,39969735,-3857
32-23,39973641,5358
32-24,39977547,12700
32-25,39981453,13365
32-26,39985359,7776
32-27,39989265,-1463
32-28,39993171,-9770
32-29,39997077,-12942
32-30,40000983,-9153
32-31,40004889,285
32-32,40008795,8995
32-1,40012701,11295
32-2,40016607,6140
32-3,40020513,-3472
32-4,40024419,-11120
32-5,40028325,-11996
32-6,40032231,-5519
32-7,40036137,4438
32-8,40040043,10961
32-9,40043949,9845
32-10,40047855,2212
32-11,40051761,-6044
32-12,40055667,-8453
32-13,40059573,-3376
32-14,40063479,6027
32-15,40067385,13528
32-16,40071291,14264
32-17,40075197,8189
32-18,40079103,-1304
32-19,40083009,-8502
32-20,40086915,-9204
32-21,40090821,-3082
32-22,40094727,6760
32-23,40098633,13295
32-24,40102539,12166
32-25,40106445,5480
32-26,40110351,-2772
32-27,40114257,-8332
32-28,40118163,-8996
32-29,40122069,-4696
32-30,40125975,2699
32-31,40129881,8459
32-32,40133787,8987
32-1,40137693,3527
32-2,40141599,-5367
32-3,40145505,-12166
32-4,40149411,-12001
32-5,40153317,-4450
32-6,40157223,5277
32-7,40161129,10405
32-8,40165035,7890
32-9,40168941,101
32-10,40172847,-6396
32-11,40176753,-6275
32-12,40180659,447
32-13,40184565,9469
32-14,40188471,14611
32-15,40192377,12772
32-16,40196283,5200
32-17,40200189,-4127
32-18,40204095,-9711
32-19,40208001,-8540
32-20,40211907,-903
32-21,40215813,8816
32-22,40219719,13848
32-23,40223625,10880
32-24,40227531,2245
32-25,40231437,-5533
32-26,40235343,-8000
32-27,40239249,-5472
32-28,40243155,-207
32-29,40247061,4194
32-30,40250967,5339
32-31,40254873,3446
32-32,40258779,-1508
32-1,40262685,-7663
32-2,40266591,-11452
32-3,40270497,-9541
32-4,40274403,-854
32-5,40278309,8264
32-6,40282215,10768
32-7,40286121,5748
32-8,40290027,-2662
32-9,40293933,-7475
32-10,40297839,-5014
32-11,40301745,3076
32-12,40305651,11619
32-13,40309557,14851
32-14,40313463,11078
32-15,40317369,2425
32-16,40321275,-6429
32-17,40325181,-10292
32-18,40329087,-7135
32-19,40332993,1671
32-20,40336899,10610
32-21,40340805,13330
32-22,40344711,8530
32-23,40348617,-1007
32-24,40352523,-8728
32-25,40356429,-8760
32-26,40360335,-2269
32-27,40364241,5686
32-28,40368147,8916
32-29,40372053,5324
32-30,40375959,-1367
32-31,40379865,-7598
32-32,40383771,-11383
32-1,40387677,-11827
32-2,40391583,-8218
32-3,40395489,-734
32-4,40399395,6563
32-5,40403301,8077
32-6,40407207,2703
32-7,40411113,-4845
32-8,40415019,-8145
32-9,40418925,-4410
32-10,40422831,4355
32-11,40426737,12468
32-12,40430643,14383
32-13,40434549,9253
32-14,40438455,73
32-15,40442361,-7496
32-16,40446267,-8854
32-17,40450173,-3395
32-18,40454079,6063
32-19,40457985,13178
32-20,40461891,13138
32-21,40465797,6317
32-22,40469703,-3096
32-23,40473609,-9273
32-24,40477515,-8260
32-25,40481421,-524
32-26,40485327,8773
32-27,40489233,12818
32-28,40493139,9205
32-29,40497045,751
32-30,40500951,-7977
32-31,40504857,-12927
32-32,40508763,-12669
32-1,40512669,-6999
32-2,40516575,1236
32-3,40520481,6749
32-4,40524387,6261
32-5,40528293,-87
32-6,40532199,-6841
32-7,40536105,-8112
32-8,40540011,-2572
32-9,40543917,6787
32-10,40547823,13686
32-11,40551729,13637
32-12,40555635,6959
32-13,40559541,-2476
32-14,40563447,-8748
32-15,40567353,-8267
32-16,40571259,-1312
32-17,40575165,8278
32-18,40579071,13831
32-19,40582977,11805
32-20,40586883,3719
32-21,40590789,-5460
32-22,40594695,-9777
32-23,40598601,-6944
32-24,40602507,1494
32-25,40606413,10346
32-26,40610319,13513
32-27,40614225,9636
32-28,40618131,948
32-29,40622037,-8093
32-30,40625943,-12684
32-31,40629849,-10627
32-32,40633755,-2574
32-1,40637661,6226
32-2,40641567,9794
32-3,40645473,6451
32-4,40649379,-1969
32-5,40653285,-10204
32-6,40657191,-13101
32-7,40661097,-8818
32-8,40665003,612
32-9,40668909,8737
32-10,40672815,10054
32-11,40676721,4061
32-12,40680627,-4692
32-13,40684533,-9232
32-14,40688439,-6309
32-15,40692345,2230
32-16,40696251,10920
32-17,40700157,13865
32-18,40704063,9563
32-19,40707969,641
32-20,40711875,-7482
32-21,40715781,-9787
32-22,40719687,-5192
32-23,40723593,3946
32-24,40727499,11518
32-25,40731405,12537
32-26,40735311,7207
32-27,40739217,-1923
32-28,40743123,-10302
32-29,40747029,-13672
32-30,40750935,-10091
32-31,40754841,-762
32-32,40758747,8039
32-1,40762653,10550
32-2,40766559,5643
32-3,40770465,-3808
32-4,40774371,-11699
32-5,40778277,-13427
32-6,40782183,-8167
32-7,40786089,895
32-8,40789995,7460
32-9,40793901,7323
32-10,40797807,958
32-11,40801713,-6440
32-12,40805619,-8629
32-13,40809525,-3719
32-14,40813431,5524
32-15,40817337,12954
32-16,40821243,13606
32-17,40825149,7460
32-18,40829055,-1885
32-19,40832961,-8615
32-20,40836867,-8786
32-21,40840773,-2476
32-22,40844679,7000
32-23,40848585,12909
32-24,40852491,11371
32-25,40856397,4581
32-26,40860303,-3769
32-27,40864209,-9732
32-28,40868115,-10960
32-29,40872021,-6871
32-30,40875927,892
32-31,40879833,7318
32-32,40883739,8418
32-1,40887645,3197
32-2,40891551,-5622
32-3,40895457,-12184
32-4,40899363,-11645
32-5,40903269,-3781
32-6,40907175,5940
32-7,40911081,10776
32-8,40914987,7851
32-9,40918893,-536
32-10,40922799,-7812
32-11,40926705,-8430
32-12,40930611,-2002
32-13,40934517,7447
32-14,40938423,13416
32-15,40942329,12108
32-16,40946235,4598
32-17,40950141,-4671
32-18,40954047,-9785
32-19,40957953,-7946
32-20,40961859,-114
32-21,40965765,9082
32-22,40969671,13234
32-23,40973577,9573
32-24,40977483,743
32-25,40981389,-6861
32-26,40985295,-9146
32-27,40989201,-6569
32-28,40993107,-1256
32-29,40997013,3250
32-30,41000919,4519
32-31,41004825,2728
32-32,41008731,-2199
32-1,41012637,-8388
32-2,41016543,-12243
32-3,41020449,-10387
32-4,41024355,-1741
32-5,41028261,7415
32-6,41032167,10177
32-7,41036073,5376
32-8,41039979,-3265
32-9,41043885,-8783
32-10,41047791,-7085
32-11,41051697,773
32-12,41055603,9759
32-13,41059509,13715
32-14,41063415,10509
32-15,41067321,2085
32-16,41071227,-6794
32-17,41075133,-10775
32-18,41079039,-7791
32-19,41082945,873
32-20,41086851,9870
32-21,41090757,12719
32-22,41094663,7992
32-23,41098569,-1339
32-24,41102475,-8651
32-25,41106381,-8169
32-26,41110287,-1393
32-27,41114193,6290
32-28,41118099,8851
32-29,41122005,4664
32-30,41125911,-2281
32-31,41129817,-8522
32-32,41133723,-12266
32-1,41137629,-12558
32-2,41141535,-8449
32-3,41145441,-305
32-4,41149347,7372
32-5,41153253,8764
32-6,41157159,2950
32-7,41161065,-4900
32-8,41164971,-8126
32-9,41168877,-4154
32-10,41172783,4561
32-11,41176689,12270
32-12,41180595,13826
32-13,41184501,8703
32-14,41188407,-345
32-15,41192313,-8201
32-16,41196219,-10335
32-17,41200125,-5594
32-18,41204031,3766
32-19,41207937,11479
32-20,41211843,12290
32-21,41215749,6020
32-22,41219655,-3333
32-23,41223561,-9703
32-24,41227467,-8805
32-25,41231373,-1097
32-26,41235279,8121
32-27,41239185,12020
32-28,41243091,8229
32-29,41246997,-338
32-30,41250903,-9025
32-31,41254809,-13856
32-32,41258715,-13564
32-1,41262621,-8013
32-2,41266527,100
32-3,41270433,5629
32-4,41274339,5354
32-5,41278245,-498
32-6,41282151,-6566
32-7,41286057,-7238
32-8,41289963,-1510
32-9,41293869,7458
32-10,41297775,13657
32-11,41301681,13161
32-12,41305587,6520
32-13,41309493,-2825
32-14,41313399,-9471
32-15,41317305,-9756
32-16,41321211,-3395
32-17,41325117,6200
32-18,41329023,12306
32-19,41332929,11006
32-20,41336835,3427
32-21,41340741,-5595
32-22,41344647,-9961
32-23,41348553,-7217
32-24,41352459,1107
32-25,41356365,9888
32-26,41360271,13083
32-27,41364177,9244
32-28,41368083,574
32-29,41371989,-8431
32-30,41375895,-12986
32-31,41379801,-10934
32-32,41383707,-2933
32-1,41387613,5828
32-2,41391519,9407
32-3,41395425,6075
32-4,41399331,-2353
32-5,41403237,-10611
32-6,41407143,-13548
32-7,41411049,-9303
32-8,41414955,102
32-9,41418861,8219
32-10,41422767,9564
32-11,41426673,3635
32-12,41430579,-5065
32-13,41434485,-9581
32-14,41438391,-6681
32-15,41442297,1808
32-16,41446203,10486
32-17,41450109,13477
32-18,41454015,9277
32-19,41457921,440
32-20,41461827,-7673
32-21,41465733,-10011
32-22,41469639,-5443
32-23,41473545,3717
32-24,41477451,11406
32-25,41481357,12571
32-26,41485263,7336
32-27,41489169,-1794
32-28,41493075,-10248
32-29,41496981,-13699
32-30,41500887,-10217
32-31,41504793,-989
32-32,41508699,7741
32-1,41512605,10206
32-2,41516511,5257
32-3,41520417,-4253
32-4,41524323,-12039
32-5,41528229,-13291
32-6,41532135,-7269
32-7,41536041,2463
32-8,41539947,9124
32-9,41543853,8430
32-10,41547759,1225
32-11,41551665,-6941
32-12,41555571,-9600
32-13,41559477,-4883
32-14,41563383,4347
32-15,41567289,11997
32-16,41571195,12968
32-17,41575101,7046
32-18,41579007,-2255
32-19,41582913,-9135
32-20,41586819,-9472
32-21,41590725,-3216
32-22,41594631,6366
32-23,41598537,12576
32-24,41602443,11377
32-25,41606349,4757
32-26,41610255,-3626
32-27,41614161,-9791
32-28,41618067,-11313
32-29,41621973,-7472
32-30,41625879,210
32-31,41629785,6747
32-32,41633691,8071
32-1,41637597,3126
32-2,41641503,-5547
32-3,41645409,-12402
32-4,41649315,-12700
32-5,41653221,-5871
32-6,41657127,3231
32-7,41661033,8247
32-8,41664939,6179
32-9,41668845,-1215
32-10,41672751,-7848
32-11,41676657,-8272
32-12,41680563,-1906
32-13,41684469,7460
32-14,41688375,13352
32-15,41692281,12017
32-16,41696187,4546
32-17,41700093,-4748
32-18,41703999,-10008
32-19,41707905,-8394
32-20,41711811,-706
32-21,41715717,8579
32-22,41719623,13015
32-23,41723529,9669
32-24,41727435,968
32-25,41731341,-6721
32-26,41735247,-9102
32-27,41739153,-6552
32-28,41743059,-1207
32-29,41746965,3348
32-30,41750871,4640
32-31,41754777,2919
32-32,41758683,-1893
32-1,41762589,-8034
32-2,41766495,-11944
32-3,41770401,-10260
32-4,41774307,-1748
32-5,41778213,7432
32-6,41782119,10253
32-7,41786025,5445
32-8,41789931,-3314
32-9,41793837,-9041
32-10,41797743,-7543
32-11,41801649,205
32-12,41805555,9293
32-13,41809461,13551
32-14,41813367,10764
32-15,41817273,2625
32-16,41821179,-6488
32-17,41825085,-11170
32-18,41828991,-8923
32-19,41832897,-522
32-20,41836803,8874
32-21,41840709,12459
32-22,41844615,8293
32-23,41848521,-960
32-24,41852427,-8605
32-25,41856333,-8520
32-26,41860239,-1914
32-27,41864145,5878
32-28,41868051,8772
32-29,41871957,4902
32-30,41875863,-1916
32-31,41879769,-8141
32-32,41883675,-11852
33-1,41887581,-12147
33-2,41891487,-8306
33-3,41895393,-684
33-4,41899299,6569
33-5,41903205,7955
33-6,41907111,2341
33-7,41911017,-5503
33-8,41914923,-9027
33-9,41918829,-5378
33-10,41922735,3445
33-11,41926641,11662
33-12,41930547,13646
33-13,41934453,8563
33-14,41938359,-580
33-15,41942265,-8174
33-16,41946171,-9618
33-17,41950077,-4294
33-18,41953983,5054
33-19,41957889,12201
33-20,41961795,12365
33-21,41965701,5787
33-22,41969607,-3732
33-23,41973513,-10425
33-24,41977419,-9998
33-25,41981325,-2547
33-26,41985231,6996
33-27,41989137,11597
33-28,41993043,8404
33-29,41996949,-23
33-30,42000855,-8874
33-31,42004761,-13475
33-32,42008667,-12132
33-33,42012573,-5115
32-1,42016479,3981
32-2,42020385,9427
32-3,42024291,8020
32-4,42028197,455
32-5,42032103,-7278
32-6,42036009,-9099
32-7,42039915,-3797
32-8,42043821,5480
32-9,42047727,12440
32-10,42051633,12636
32-11,42055539,6311
32-12,42059445,-3067
32-13,42063351,-9766
32-14,42067257,-9909
32-15,42071163,-3355
32-16,42075069,6382
32-17,42078975,12487
32-18,42082881,10955
32-19,42086787,3168
32-20,42090693,-5680
32-21,42094599,-9476
32-22,42098505,-6125
32-23,42102411,2367
32-24,42106317,10779
32-25,42110223,13447
32-26,42114129,9344
32-27,42118035,724
32-28,42121941,-8230
32-29,42125847,-13013
32-30,42129753,-11394
32-31,42133659,-3715
32-32,42137565,5001
32-1,42141471,8786
32-2,42145377,5698
32-3,42149283,-2585
32-4,42153189,-10647
32-5,42157095,-13167
32-6,42161001,-8391
32-7,42164907,1281
32-8,42168813,9247
32-9,42172719,10262
32-10,42176625,3977
32-11,42180531,-5201
32-12,42184437,-10414
32-13,42188343,-8214
32-14,42192249,44
32-15,42196155,9143
32-16,42200061,12846
32-17,42203967,9124
32-18,42207873,366
32-19,42211779,-7908
32-20,42215685,-10368
32-21,42219591,-5821
32-22,42223497,3349
32-23,42227403,11167
32-24,42231309,12312
32-25,42235215,7017
32-26,42239121,-1816
32-27,42243027,-9848
32-28,42246933,-13128
32-29,42250839,-10059
32-30,42254745,-1704
32-31,42258651,6460
32-32,42262557,9128
32-1,42266463,4855
32-2,42270369,-4006
32-3,42274275,-11715
32-4,42278181,-13286
32-5,42282087,-7454
32-6,42285993,2155
32-7,42289899,8881
32-8,42293805,8488
32-9,42297711,1606
32-10,42301617,-6386
32-11,42305523,-9140
32-12,42309429,-4692
32-13,42313335,4287
32-14,42317241,11807
32-15,42321147,12802
32-16,42325053,7012
32-17,42328959,-2205
32-18,42332865,-9099
32-19,42336771,-9573
32-20,42340677,-3473
32-21,42344583,5978
32-22,42348489,12168
32-23,42352395,11118
32-24,42356301,4161
32-25,42360207,-4370
32-26,42364113,-9790
32-27,42368019,-10376
32-28,42371925,-6168
32-29,42375831,666
32-30,42379737,5695
32-31,42383643,6232
32-32,42387549,1594
32-1,42391455,-6277
32-2,42395361,-12296
32-3,42399267,-12274
32-4,42403173,-5011
32-5,42407079,4852
32-6,42410985,9950
32-7,42414891,7409
32-8,42418797,-659
32-9,42422703,-7871
32-10,42426609,-8635
32-11,42430515,-2460
32-12,42434421,6896
32-13,42438327,13026
32-14,42442233,12065
32-15,42446139,4877
32-16,42450045,-4334
32-17,42453951,-9733
32-18,42457857,-8296
32-19,42461763,-799
32-20,42465669,8416
32-21,42469575,12861
32-22,42473481,9616
32-23,42477387,1146
32-24,42481293,-7022
32-25,42485199,-9724
32-26,42489105,-6494
32-27,42493011,-206
32-28,42496917,4816
32-29,42500823,5266
32-30,42504729,1917
32-31,42508635,-3708
32-32,42512541,-9395
32-1,42516447,-12353
32-2,42520353,-10037
32-3,42524259,-1959
32-4,42528165,6812
32-5,42532071,9932
32-6,42535977,5361
32-7,42539883,-3237
32-8,42543789,-8953
32-9,42547695,-7508
32-10,42551601,287
32-11,42555507,9518
32-12,42559413,13846
32-13,42563319,10754
32-14,42567225,2254
32-15,42571131,-6585
32-16,42575037,-10172
32-17,42578943,-6699
32-18,42582849,2124
32-19,42586755,10816
32-20,42590661,13347
32-21,42594567,8555
32-22,42598473,-810
32-23,42602379,-8507
32-24,42606285,-9368
32-25,42610191,-3639
32-26,42614097,4633
32-27,42618003,9056
32-28,42621909,6696
32-29,42625815,146
32-30,42629721,-7114
32-31,42633627,-12081
32-32,42637533,-13083
32-1,42641439,-9475
32-2,42645345,-1799
32-3,42649251,5284
32-4,42653157,6777
32-5,42657063,1764
32-6,42660969,-5681
32-7,42664875,-9094
32-8,42668781,-5595
32-9,42672687,3082
32-10,42676593,11323
32-11,42680499,13478
32-12,42684405,8571
32-13,42688311,-540
32-14,42692217,-8222
32-15,42696123,-9821
32-16,42700029,-4589
32-17,42703935,4781
32-18,42707841,11986
32-19,42711747,12085
32-20,42715653,5327
32-21,42719559,-4182
32-22,42723465,-10496
32-23,42727371,-9482
32-24,42731277,-1737
32-25,42735183,7601
32-26,42739089,11805
32-27,42742995,8465
32-28,42746901,297
32-29,42750807,-8331
32-30,42754713,-13248
32-31,42758619,-12693
32-32,42762525,-6361
32-1,42766431,2627
32-2,42770337,8529
32-3,42774243,7719
32-4,42778149,499
32-5,42782055,-7262
32-6,42785961,-9363
32-7,42789867,-4310
32-8,42793773,4884
32-9,42797679,11892
32-10,42801585,12119
32-11,42805491,5787
32-12,42809397,-3363
32-13,42813303,-9527
32-14,42817209,-9090
32-15,42821115,-2318
32-16,42825021,7058
32-17,42828927,12537
32-18,42832833,10643
32-19,42836739,2775
32-20,42840645,-6269
32-21,42844551,-10561
32-22,42848457,-7785
32-23,42852363,609
32-24,42856269,9501
32-25,42860175,12820
32-26,42864081,9262
32-27,42867987,918
32-28,42871893,-8023
32-29,42875799,-12883
32-30,42879705,-11330
32-31,42883611,-3615
32-32,42887517,5342
32-1,42891423,9377
32-2,42895329,6390
32-3,42899235,-1992
32-4,42903141,-10453
32-5,42907047,-13580
32-6,42910953,-9387
32-7,42914859,18
32-8,42918765,8181
32-9,42922671,9604
32-10,42926577,3686
32-11,42930483,-5114
32-12,42934389,-9802
32-13,42938295,-7018
32-14,42942201,1493
32-15,42946107,10192
32-16,42950013,13173
32-17,42953919,9014
32-18,42957825,127
32-19,42961731,-8348
32-20,42965637,-11260
32-21,42969543,-7106
32-22,42973449,2202
32-23,42977355,10638
32-24,42981261,12451
32-25,42985167,7539
32-26,42989073,-1170
32-27,42992979,-9003
32-28,42996885,-11868
32-29,43000791,-8466
32-30,43004697,-149
32-31,43008603,7631
32-32,43012509,9810
32-1,43016415,5218
32-2,43020321,-3805
32-3,43024227,-11757
32-4,43028133,-13723
32-5,43032039,-8250
32-6,43035945,1304
32-7,43039851,8216
32-8,43043757,7992
32-9,43047663,1292
32-10,43051569,-6357
32-11,43055475,-8593
32-12,43059381,-3711
32-13,43063287,5224
32-14,43067193,12230
32-15,43071099,12767
32-16,43075005,6936
32-17,43078911,-2226
32-18,43082817,-9409
32-19,43086723,-10483
32-20,43090629,-4780
32-21,43094535,4838
32-22,43098441,11609
32-23,43102347,11142
32-24,43106253,4452
32-25,43110159,-4105
32-26,43114065,-9635
32-27,43117971,-10285
32-28,43121877,-6175
32-29,43125783,537
32-30,43129689,5552
32-31,43133595,6187
32-32,43137501,1701
32-1,43141407,-6034
32-2,43145313,-11993
32-3,43149219,-12008
32-4,43153125,-4892
32-5,43157031,4742
32-6,43160937,9536
32-7,43164843,6802
32-8,43168749,-993
32-9,43172655,-7462
32-10,43176561,-7415
32-11,43180467,-921
32-12,43184373,7998
32-13,43188279,13347
32-14,43192185,11946
32-15,43196091,4819
32-16,43199997,-4305
32-17,43203903,-10065
32-18,43207809,-9271
32-19,43211715,-2098
32-20,43215621,7388
32-21,43219527,12445
32-22,43223433,9734
32-23,43227339,1486
32-24,43231245,-6766
32-25,43235151,-9641
32-26,43239057,-6549
32-27,43242963,-397
32-28,43246869,4563
32-29,43250775,5038
32-30,43254681,1697
32-31,43258587,-3949
32-32,43262493,-9679
32-1,43266399,-12652
32-2,43270305,-10298
32-3,43274211,-2198
32-4,43278117,6651
32-5,43282023,9931
32-6,43285929,5541
32-7,43289835,-2925
32-8,43293741,-8663
32-9,43297647,-7373
32-10,43301553,193
32-11,43305459,9216
32-12,43309365,13480
32-13,43313271,10484
32-14,43317177,2159
32-15,43321083,-6566
32-16,43324989,-10174
32-17,43328895,-6807
32-18,43332801,1900
32-19,43336707,10525
32-20,43340613,13028
32-21,43344519,8182
32-22,43348425,-1240
32-23,43352331,-8913
32-24,43356237,-9642
32-25,43360143,-3720
32-26,43364049,4658
32-27,43367955,9074
32-28,43371861,6675
32-29,43375767,55
32-30,43379673,-7329
32-31,43383579,-12309
32-32,43387485,-12936
32-1,43391391,-8465
32-2,43395297,272
32-3,43399203,7964
32-4,43403109,9236
32-5,43407015,3344
32-6,43410921,-5170
32-7,43414827,-9331
32-8,43418733,-6126
32-9,43422639,2538
32-10,43426545,10963
32-11,43430451,13355
32-12,43434357,8608
32-13,43438263,-478
32-14,43442169,-8316
32-15,43446075,-10118
32-16,43449981,-5060
32-17,43453887,4241
32-18,43457793,11660
32-19,43461699,12205
32-20,43465605,5910
32-21,43469511,-3356
32-22,43473417,-9787
32-23,43477323,-9106
32-24,43481229,-1630
32-25,43485135,7639
32-26,43489041,11934
32-27,43492947,8649
32-28,43496853,438
32-29,43500759,-8260
32-30,43504665,-13301
32-31,43508571,-12958
32-32,43512477,-6879
32-1,43516383,1987
32-2,43520289,7986
32-3,43524195,7450
32-4,43528101,488
32-5,43532007,-7212
32-6,43535913,-9339
32-7,43539819,-4270
32-8,43543725,5052
32-9,43547631,12219
32-10,43551537,12520
32-11,43555443,6143
32-12,43559349,-3227
32-13,43563255,-9735
32-14,43567161,-9604
32-15,43571067,-2967
32-16,43574973,6529
32-17,43578879,12337
32-18,43582785,10788
32-19,43586691,3114
32-20,43590597,-5970
32-21,43594503,-10469
32-22,43598409,-7931
32-23,43602315,269
32-24,43606221,9040
32-25,43610127,12274
32-26,43614033,8572
32-27,43617939,11
32-28,43621845,-8872
32-29,43625751,-13029
32-30,43629657,-10367
32-31,43633563,-1736
32-32,43637469,7379
32-1,43641375,10745
32-2,43645281,6875
32-3,43649187,-2065
32-4,43653093,-10727
32-5,43656999,-13973
32-6,43660905,-10098
32-7,43664811,-933
32-8,43668717,7419
32-9,43672623,9332
32-10,43676529,3902
32-11,43680435,-4714
32-12,43684341,-9586
32-13,43688247,-7149
32-14,43692153,1116
32-15,43696059,9828
32-16,43699965,12993
32-17,43703871,8998
32-18,43707777,313
32-19,43711683,-7811
32-20,43715589,-10313
32-21,43719495,-5959
32-22,43723401,3064
32-23,43727307,10876
32-24,43731213,12106
32-25,43735119,6894
32-26,43739025,-1869
32-27,43742931,-9836
32-28,43746837,-13075
32-29,43750743,-9994
32-30,43754649,-1631
32-31,43758555,6549
32-32,43762461,9244
32-1,43766367,4981
32-2,43770273,-3934
32-3,43774179,-11721
32-4,43778085,-13367
32-5,43781991,-7548
32-6,43785897,2139
32-7,43789803,8956
32-8,43793709,8635
32-9,43797615,1728
32-10,43801521,-6438
32-11,43805427,-9426
32-12,43809333,-5144
32-13,43813239,3841
32-14,43817145,11521
32-15,43821051,12684
32-16,43824957,6975
32-17,43828863,-2246
32-18,43832769,-9157
32-19,43836675,-9598
32-20,43840581,-3446
32-21,43844487,6027
32-22,43848393,12227
32-23,43852299,11227
32-24,43856205,4346
32-25,43860111,-4133
32-26,43864017,-9575
32-27,43867923,-10253
32-28,43871829,-6166
32-29,43875735,568
32-30,43879641,5567
32-31,43883547,6164
32-32,43887453,1638
32-1,43891359,-6125
32-2,43895265,-12067
32-3,43899171,-12020
32-4,43903077,-4815
32-5,43906983,4874
32-6,43910889,9747
32-7,43914795,7030
32-8,43918701,-1112
32-9,43922607,-8294
32-10,43926513,-8953
32-11,43930419,-2627
32-12,43934325,6873
32-13,43938231,13096
32-14,43942137,12262
32-15,43946043,5182
32-16,43949949,-4228
32-17,43953855,-10224
32-18,43957761,-9451
32-19,43961667,-2190
32-20,43965573,7461
32-21,43969479,12665
32-22,43973385,9911
32-23,43977291,1582
32-24,43981197,-6454
32-25,43985103,-8749
32-26,43989009,-5086
32-27,43992915,1124
32-28,43996821,5560
32-29,44000727,5399
32-30,44004633,1830
32-31,44008539,-3611
32-32,44012445,-9171
32-1,44016351,-12477
32-2,44020257,-10805
32-3,44024163,-3204
32-4,44028069,5608
32-5,44031975,9176
32-6,44035881,5164
32-7,44039787,-2870
32-8,44043693,-8080
32-9,44047599,-6261
32-10,44051505,1539
32-11,44055411,10248
32-12,44059317,13868
32-13,44063223,10460
32-14,44067129,2062
32-15,44071035,-6819
32-16,44074941,-10964
32-17,44078847,-8261
32-18,44082753,220
32-19,44086659,9260
32-20,44090565,12495
32-21,44094471,8254
32-22,44098377,-929
32-23,44102283,-8691
32-24,44106189,-9569
32-25,44110095,-3742
32-26,44114001,4608
32-27,44117907,9103
32-28,44121813,6807
32-29,44125719,311
32-30,44129625,-6887
32-31,44133531,-11908
32-32,44137437,-13207
32-1,44141343,-10081
32-2,44145249,-2823
32-3,44149155,4168
32-4,44153061,5901
32-5,44156967,1445
32-6,44160873,-5241
32-7,44164779,-7932
32-8,44168685,-4049
32-9,44172591,4437
32-10,44176497,12090
32-11,44180403,13781
32-12,44184309,8890
32-13,44188215,-38
32-14,44192121,-7986
32-15,44196027,-10357
32-16,44199933,-5841
32-17,44203839,3458
32-18,44207745,11291
32-19,44211651,12227
32-20,44215557,6021
32-21,44219463,-3408
32-22,44223369,-9972
32-23,44227275,-9276
32-24,44231181,-1764
32-25,44235087,7583
32-26,44238993,12064
32-27,44242899,8901
32-28,44246805,529
32-29,44250711,-8236
32-30,44254617,-12498
32-31,44258523,-10474
32-32,44262429,-2818
32-1,44266335,6256
32-2,44270241,10961
32-3,44274147,8763
32-4,44278053,503
32-5,44281959,-8433
32-6,44285865,-12087
32-7,44289771,-8465
32-8,44293677,598
32-9,44297583,9134
32-10,44301489,11367
32-11,44305395,6278
32-12,44309301,-2820
32-13,44313207,-9584
32-14,44317113,-9555
32-15,44321019,-2856
32-16,44324925,6710
32-17,44328831,12675
32-18,44332737,11291
32-19,44336643,3683
32-20,44340549,-5483
32-21,44344455,-10125
32-22,44348361,-7691
32-23,44352267,459
32-24,44356173,9311
32-25,44360079,12752
32-26,44363985,9297
32-27,44367891,888
32-28,44371797,-8113
32-29,44375703,-12620
32-30,44379609,-10312
32-31,44383515,-1833
32-32,44387421,7446
32-1,44391327,11127
32-2,44395233,7466
32-3,44399139,-1438
32-4,44403045,-10200
32-5,44406951,-13575
32-6,44410857,-9810
32-7,44414763,-728
32-8,44418669,7592
32-9,44422575,9533
32-10,44426481,4186
32-11,44430387,-4378
32-12,44434293,-9285
32-13,44438199,-6919
32-14,44442105,1292
32-15,44446011,10052
32-16,44449917,13304
32-17,44453823,9310
32-18,44457729,542
32-19,44461635,-7672
32-20,44465541,-10206
32-21,44469447,-5861
32-22,44473353,3123
32-23,44477259,10877
32-24,44481165,12047
32-25,44485071,6819
32-26,44488977,-1936
32-27,44492883,-9940
32-28,44496789,-13248
32-29,44500695,-10210
32-30,44504601,-1762
32-31,44508507,6626
32-32,44512413,9501
32-1,44516319,5302
32-2,44520225,-3679
32-3,44524131,-11604
32-4,44528037,-13305
32-5,44531943,-7392
32-6,44535849,2490
32-7,44539755,9463
32-8,44543661,9102
32-9,44547567,1988
32-10,44551473,-6436
32-11,44555379,-9586
32-12,44559285,-5309
32-13,44563191,3760
32-14,44567097,11544
32-15,44571003,12768
32-16,44574909,7074
32-17,44578815,-2220
32-18,44582721,-9326
32-19,44586627,-10039
32-20,44590533,-4143
32-21,44594439,5221
32-22,44598345,11475
32-23,44602251,10586
32-24,44606157,3784
32-25,44610063,-4682
32-26,44613969,-10145
32-27,44617875,-10853
32-28,44621781,-6796
32-29,44625687,-21
32-30,44629593,5119
32-31,44633499,5904
32-32,44637405,1555
32-1,44641311,-6138
32-2,44645217,-12154
32-3,44649123,-12263
32-4,44653029,-5165
32-5,44656935,4636
32-6,44660841,9819
32-7,44664747,7439
32-8,44668653,-537
32-9,44672559,-7796
32-10,44676465,-8671
32-11,44680371,-2535
32-12,44684277,6871
32-13,44688183,13032
32-14,44692089,12051
32-15,44695995,4820
32-16,44699901,-4424
32-17,44703807,-9868
32-18,44707713,-8510
32-19,44711619,-1062
32-20,44715525,8200
32-21,44719431,12784
32-22,44723337,9675
32-23,44727243,1223
32-24,44731149,-7045
32-25,44735055,-9855
32-26,44738961,-6707
32-27,44742867,-526
32-28,44746773,4347
32-29,44750679,4657
32-30,44754585,1280
32-31,44758491,-4248
32-32,44762397,-9810
32-1,44766303,-12666
32-2,44770209,-10269
32-3,44774115,-2096
32-4,44778021,6833
32-5,44781927,10126
32-6,44785833,5619
32-7,44789739,-3057
32-8,44793645,-8960
32-9,44797551,-7734
32-10,44801457,-121
32-11,44805363,8996
32-12,44809269,13375
32-13,44813175,10605
32-14,44817081,2451
32-15,44820987,-6461
32-16,44824893,-10630
32-17,44828799,-7874
32-18,44832705,655
32-19,44836611,9728
32-20,44840517,12910
32-21,44844423,8548
32-22,44848329,-532
32-23,44852235,-7824
32-24,44856141,-8125
32-25,44860047,-2061
32-26,44863953,5927
32-27,44867859,9676
32-28,44871765,6779
32-29,44875671,105
32-30,44879577,-7042
32-31,44883483,-12080
32-32,44887389,-13443
32-1,44891295,-10013
32-2,44895201,-2021
32-3,44899107,5655
32-4,44903013,7575
32-5,44906919,2583
32-6,44910825,-5125
32-7,44914731,-8761
32-8,44918637,-5328
32-9,44922543,3215
32-10,44926449,11157
32-11,44930355,13083
32-12,44934261,8313
32-13,44938167,-550
32-14,44942073,-8463
32-15,44945979,-10796
32-16,44949885,-6253
32-17,44953791,3080
32-18,44957697,11044
32-19,44961603,12108
32-20,44965509,5955
32-21,44969415,-3230
32-22,44973321,-9192
32-23,44977227,-7744
32-24,44981133,172
32-25,44985039,9166
32-26,44988945,12796
32-27,44992851,9074
32-28,44996757,943
32-29,45000663,-7473
32-30,45004569,-12705
32-31,45008475,-13247
32-32,45012381,-8244
32-1,45016287,27
32-2,45020193,6217
32-3,45024099,6435
32-4,45028005,400
32-5,45031911,-6526
32-6,45035817,-8190
32-7,45039723,-2966
32-8,45043629,6134
32-9,45047535,12783
32-10,45051441,12677
32-11,45055347,6254
32-12,45059253,-3083
32-13,45063159,-9860
32-14,45067065,-10264
32-15,45070971,-3959
32-16,45074877,5736
32-17,45078783,12085
32-18,45082689,10973
32-19,45086595,3398
32-20,45090501,-5857
32-21,45094407,-10543
32-22,45098313,-8061
32-23,45102219,124
32-24,45106125,8987
32-25,45110031,12489
32-26,45113937,9104
32-27,45117843,756
32-28,45121749,-8165
32-29,45125655,-12587
32-30,45129561,-10171
32-31,45133467,-1636
32-32,45137373,7552
32-1,45141279,11062
32-2,45145185,7235
32-3,45149091,-1763
32-4,45152997,-10499
32-5,45156903,-13802
32-6,45160809,-9995
32-7,45164715,-928
32-8,45168621,7342
32-9,45172527,9306
32-10,45176433,4056
32-11,45180339,-4452
32-12,45184245,-9377
32-13,45188151,-7063
32-14,45192057,1151
32-15,45195963,10042
32-16,45199869,13513
32-17,45203775,9735
32-18,45207681,1056
32-19,45211587,-7283
32-20,45215493,-10054
32-21,45219399,-5896
32-22,45223305,3015
32-23,45227211,10814
32-24,45231117,12064
32-25,45235023,6862
32-26,45238929,-1888
32-27,45242835,-9931
32-28,45246741,-13359
32-29,45250647,-10521
32-30,45254553,-2269
32-31,45258459,6123
32-32,45262365,9210
32-1,45266271,5287
32-2,45270177,-3508
32-3,45274083,-11418
32-4,45277989,-13254
32-5,45281895,-7571
32-6,45285801,2116
32-7,45289707,9045
32-8,45293613,8833
32-9,45297519,2002
32-10,45301425,-6138
32-11,45305331,-9100
32-12,45309237,-4788
32-13,45313143,4188
32-14,45317049,11865
32-15,45320955,13051
32-16,45324861,7393
32-17,45328767,-1836
32-18,45332673,-8950
32-19,45336579,-9749
32-20,45340485,-3929
32-21,45344391,5460
32-22,45348297,11880
32-23,45352203,11150
32-24,45356109,4402
32-25,45360015,-4142
32-26,45363921,-9757
32-27,45367827,-10570
32-28,45371733,-6523
32-29,45375639,326
32-30,45379545,5535
32-31,45383451,6295
32-32,45387357,1846
32-1,45391263,-5982
32-2,45395169,-12117
32-3,45399075,-12302
32-4,45402981,-5257
32-5,45406887,4555
32-6,45410793,9791
32-7,45414699,7480
32-8,45418605,-430
32-9,45422511,-7707
32-10,45426417,-8669
32-11,45430323,-2630
32-12,45434229,6764
32-13,45438135,13072
32-14,45442041,12261
32-15,45445947,5082
32-16,45449853,-4267
32-17,45453759,-9878
32-18,45457665,-8574
32-19,45461571,-1030
32-20,45465477,8440
32-21,45469383,13252
32-22,45473289,10320
32-23,45477195,1956
32-24,45481101,-6413
32-25,45485007,-9518
32-26,45488913,-6686
32-27,45492819,-630
32-28,45496725,4388
32-29,45500631,4922
32-30,45504537,1649
32-31,45508443,-3827
32-32,45512349,-9424
32-1,45516255,-12680
32-2,45520161,-11214
32-3,45524067,-4222
32-4,45527973,4038
32-5,45531879,7676
32-6,45535785,4289
32-7,45539691,-3205
32-8,45543597,-8417
32-9,45547503,-7018
32-10,45551409,577
32-11,45555315,9727
32-12,45559221,14119
32-13,45563127,11212
32-14,45567033,2900
32-15,45570939,-5901
32-16,45574845,-9681
32-17,45578751,-6545
32-18,45582657,2034
32-19,45586563,10744
32-20,45590469,13476
32-21,45594375,8861
32-22,45598281,-454
32-23,45602187,-8251
32-24,45606093,-9266
32-25,45609999,-3630
32-26,45613905,4668
32-27,45617811,9224
32-28,45621717,7019
32-29,45625623,491
32-30,45629529,-6904
32-31,45633435,-11949
32-32,45637341,-12502
32-1,45641247,-7817
32-2,45645153,255
32-3,45649059,6409
32-4,45652965,7517
32-5,45656871,5044
32-6,45660777,2762
32-7,45664683,3646
32-8,45668589,6816
32-9,45672495,10400
32-10,45676401,12475
32-11,45680307,11274
32-12,45684213,7024
32-13,45688119,-89
32-14,45692025,-8266
32-15,45695931,-13952
32-16,45699837,-14572
32-17,45703743,-9429
32-18,45707649,-1929
32-19,45711555,2596
32-20,45715461,1430
32-21,45719367,-3980
32-22,45723273,-8510
32-23,45727179,-7117
32-24,45731085,420
32-25,45734991,8968
32-26,45738897,12146
32-27,45742803,8207
32-28,45746709,102
32-29,45750615,-8149
32-30,45754521,-13228
32-31,45758427,-13644
32-32,45762333,-8498
32-1,45766239,-128
32-2,45770145,6164
32-3,45774051,6477
32-4,45777957,487
32-5,45781863,-6439
32-6,45785769,-8166
32-7,45789675,-3043
32-8,45793581,6010
32-9,45797487,12746
32-10,45801393,12822
32-11,45805299,6597
32-12,45809205,-2619
32-13,45813111,-9433
32-14,45817017,-10010
32-15,45820923,-3947
32-16,45824829,5547
32-17,45828735,11756
32-18,45832641,10512
32-19,45836547,2965
32-20,45840453,-5875
32-21,45844359,-9848
32-22,45848265,-6724
32-23,45852171,1613
32-24,45856077,10021
32-25,45859983,12844
32-26,45863889,9050
32-27,45867795,695
32-28,45871701,-8208
32-29,45875607,-12980
32-30,45879513,-11186
32-31,45883419,-3077
32-32,45887325,6196
32-1,45891231,10220
32-2,45895137,6921
32-3,45899043,-1808
32-4,45902949,-10368
32-5,45906855,-13326
32-6,45910761,-9002
32-7,45914667,342
32-8,45918573,8395
32-9,45922479,9803
32-10,45926385,4064
32-11,45930291,-4549
32-12,45934197,-9311
32-13,45938103,-6853
32-14,45942009,1342
32-15,45945915,10104
32-16,45949821,13518
32-17,45953727,9858
32-18,45957633,1262
32-19,45961539,-7335
32-20,45965445,-10715
32-21,45969351,-7141
32-22,45973257,1684
32-23,45977163,9947
32-24,45981069,11845
32-25,45984975,7063
32-26,45988881,-1621
32-27,45992787,-9754
32-28,45996693,-13194
32-29,46000599,-10313
32-30,46004505,-2122
32-31,46008411,6111
32-32,46012317,9052
32-1,46016223,5055
32-2,46020129,-3705
32-3,46024035,-11509
32-4,46027941,-13242
32-5,46031847,-7475
32-6,46035753,2228
32-7,46039659,9030
32-8,46043565,8585
32-9,46047471,1721
32-10,46051377,-6035
32-11,46055283,-8368
32-12,46059189,-3611
32-13,46063095,5237
32-14,46067001,12325
32-15,46070907,13005
32-16,46074813,7271
32-17,46078719,-1903
32-18,46082625,-9262
32-19,46086531,-10599
32-20,46090437,-5128
32-21,46094343,4459
32-22,46098249,11447
32-23,46102155,11260
32-24,46106061,4726
32-25,46109967,-3892
32-26,46113873,-9604
32-27,46117779,-10387
32-28,46121685,-6329
32-29,46125591,425
32-30,46129497,5519
32-31,46133403,6205
32-32,46137309,1840
32-1,46141215,-5822
32-2,46145121,-12047
32-3,46149027,-12818
32-4,46152933,-6682
32-5,46156839,2466
32-6,46160745,7760
32-7,46164651,6153
32-8,46168557,-854
32-9,46172463,-7465
32-10,46176369,-8174
32-11,46180275,-2158
32-12,46184181,7132
32-13,46188087,13359
32-14,46191993,12570
32-15,46195899,5509
32-16,46199805,-3735
32-17,46203711,-9368
32-18,46207617,-8221
32-19,46211523,-863
32-20,46215429,8499
32-21,46219335,13271
32-22,46223241,10282
32-23,46227147,1844
32-24,46231053,-6555
32-25,46234959,-9590
32-26,46238865,-6655
32-27,46242771,-566
32-28,46246677,4431
32-29,46250583,4976
32-30,46254489,1764
32-31,46258395,-3735
32-32,46262301,-9402
32-1,46266207,-12446
32-2,46270113,-10302
32-3,46274019,-2372
32-4,46277925,6486
32-5,46281831,9874
32-6,46285737,5573
32-7,46289643,-2928
32-8,46293549,-8809
32-9,46297455,-7654
32-10,46301361,-126
32-11,46305267,9064
32-12,46309173,13641
32-13,46313079,10944
32-14,46316985,2800
32-15,46320891,-5952
32-16,46324797,-9761
32-17,46328703,-6656
32-18,46332609,1862
32-19,46336515,10486
32-20,46340421,13115
32-21,46344327,8390
32-22,46348233,-1003
32-23,46352139,-8786
32-24,46356045,-9685
32-25,46359951,-3886
32-26,46363857,4476
32-27,46367763,8970
32-28,46371669,6620
32-29,46375575,108
32-30,46379481,-7030
32-31,46383387,-11913
32-32,46387293,-13010
32-1,46391199,-9701
32-2,46395105,-2269
32-3,46399011,4867
32-4,46402917,6690
32-5,46406823,2052
32-6,46410729,-5227
32-7,46414635,-8715
32-8,46418541,-5406
32-9,46422447,3154
32-10,46426353,11467
32-11,46430259,13807
32-12,46434165,9067
32-13,46438071,-5
32-14,46441977,-7842
32-15,46445883,-9695
32-16,46449789,-4725
32-17,46453695,4549
32-18,46457601,12008
32-19,46461507,12605
32-20,46465413,6365
32-21,46469319,-2927
32-22,46473225,-9471
32-23,46477131,-8901
32-24,46481037,-1522
32-25,46484943,7713
32-26,46488849,12008
32-27,46492755,8714
32-28,46496661,526
32-29,46500567,-8152
32-30,46504473,-13177
32-31,46508379,-12803
32-32,46512285,-6678
32-1,46516191,2293
32-2,46520097,8433
32-3,46524003,7947
32-4,46527909,877
32-5,46531815,-7021
32-6,46535721,-9337
32-7,46539627,-4376
32-8,46543533,4920
32-9,46547439,12143
32-10,46551345,12512
32-11,46555251,6194
32-12,46559157,-3135
32-13,46563063,-9647
32-14,46566969,-9506
32-15,46570875,-2839
32-16,46574781,6737
32-17,46578687,12645
32-18,46582593,11110
32-19,46586499,3384
32-20,46590405,-5792
32-21,46594311,-10412
32-22,46598217,-7971
32-23,46602123,208
32-24,46606029,9139
32-25,46609935,12694
32-26,46613841,9313
32-27,46617747,902
32-28,46621653,-8141
32-29,46625559,-12680
32-30,46629465,-10381
32-31,46633371,-1908
32-32,46637277,7333
32-1,46641183,10966
32-2,46645089,7278
32-3,46648995,-1667
32-4,46652901,-10474
32-5,46656807,-13854
32-6,46660713,-10038
32-7,46664619,-885
32-8,46668525,7493
32-9,46672431,9479
32-10,46676337,4151
32-11,46680243,-4462
32-12,46684149,-9477
32-13,46688055,-7200
32-14,46691961,1013
32-15,46695867,9869
32-16,46699773,13248
32-17,46703679,9346
32-18,46707585,594
32-19,46711491,-7686
32-20,46715397,-10302
32-21,46719303,-5981
32-22,46723209,3028
32-23,46727115,10880
32-24,46731021,12208
32-25,46734927,7079
32-26,46738833,-1657
32-27,46742739,-9858
32-28,46746645,-13665
32-29,46750551,-11236
32-30,46754457,-3212
32-31,46758363,5241
32-32,46762269,8604
32-1,46766175,4907
32-2,46770081,-3755
32-3,46773987,-11416
32-4,46777893,-12821
32-5,46781799,-6657
32-6,46785705,3177
32-7,46789611,9745
32-8,46793517,8965
32-9,46797423,1706
32-10,46801329,-6564
32-11,46805235,-9472
32-12,46809141,-5105
32-13,46813047,3868
32-14,46816953,11521
32-15,46820859,12750
32-16,46824765,7211
32-17,46828671,-2056
32-18,46832577,-9519
32-19,46836483,-10813
32-20,46840389,-5255
32-21,46844295,4380
32-22,46848201,11358
32-23,46852107,11070
32-24,46856013,4490
32-25,46859919,-3930
32-26,46863825,-9202
32-27,46867731,-9504
32-28,46871637,-5221
32-29,46875543,1348
32-30,46879449,6031
32-31,46883355,6384
32-32,46887261,1873
32-1,46891167,-5872
32-2,46895073,-12196
32-3,46898979,-12873
32-4,46902885,-6254
32-5,46906791,3555
32-6,46910697,9218
32-7,46914603,7444
32-8,46918509,22
32-9,46922415,-6789
32-10,46926321,-7356
32-11,46930227,-1229
32-12,46934133,7708
32-13,46938039,13222
32-14,46941945,11930
32-15,46945851,4844
32-16,46949757,-4336
32-17,46953663,-10251
32-18,46957569,-9644
32-19,46961475,-2598
32-20,46965381,7004
32-21,46969287,12435
32-22,46973193,10108
32-23,46977099,2036
32-24,46981005,-6299
32-25,46984911,-9433
32-26,46988817,-6648
32-27,46992723,-750
32-28,46996629,4139
32-29,47000535,4770
32-30,47004441,1727
32-31,47008347,-3647
32-32,47012253,-9291
32-1,47016159,-12386
32-2,47020065,-10272
32-3,47023971,-2305
32-4,47027877,6582
32-5,47031783,9884
32-6,47035689,5535
32-7,47039595,-2689
32-8,47043501,-7983
32-9,47047407,-6267
32-10,47051313,1328
32-11,47055219,9951
32-12,47059125,13771
32-13,47063031,10718
32-14,47066937,2610
32-15,47070843,-6243
32-16,47074749,-10565
32-17,47078655,-8026
32-18,47082561,450
32-19,47086467,9680
32-20,47090373,13167
32-21,47094279,9057
32-22,47098185,-180
32-23,47102091,-8166
32-24,47105997,-9343
32-25,47109903,-3767
32-26,47113809,4410
32-27,47117715,8844
32-28,47121621,6526
32-29,47125527,-6
32-30,47129433,-7213
32-31,47133339,-12162
32-32,47137245,-13255
32-1,47141151,-9851
32-2,47145057,-2281
32-3,47148963,4996
32-4,47152869,6916
32-5,47156775,2288
32-6,47160681,-5103
32-7,47164587,-8737
32-8,47168493,-5532
32-9,47172399,2956
32-10,47176305,11271
32-11,47180211,13671
32-12,47184117,9016
32-13,47188023,36
32-14,47191929,-7764
32-15,47195835,-9619
32-16,47199741,-4679
32-17,47203647,4519
32-18,47207553,11900
32-19,47211459,12408
32-20,47215365,6047
32-21,47219271,-3322
32-22,47223177,-9881
32-23,47227083,-9307
32-24,47230989,-1846
32-25,47234895,7593
32-26,47238801,12185
32-27,47242707,9133
32-28,47246613,996
32-29,47250519,-7830
32-30,47254425,-13111
32-31,47258331,-12967
32-32,47262237,-7002
32-1,47266143,1926
32-2,47270049,8104
32-3,47273955,7706
32-4,47277861,759
32-5,47281767,-7049
32-6,47285673,-9338
32-7,47289579,-4436
32-8,47293485,4766
32-9,47297391,11961
32-10,47301297,12428
32-11,47305203,6253
32-12,47309109,-2987
32-13,47313015,-9477
32-14,47316921,-9400
32-15,47320827,-2853
32-16,47324733,6639
32-17,47328639,12544
32-18,47332545,11090
32-19,47336451,3483
32-20,47340357,-5646
32-21,47344263,-10318
32-22,47348169,-7981
32-23,47352075,139
32-24,47355981,9140
32-25,47359887,12769
32-26,47363793,9386
32-27,47367699,1016
32-28,47371605,-8124
32-29,47375511,-13181
32-30,47379417,-11751
32-31,47383323,-4081
32-32,47387229,4987
32-1,47391135,9199
32-2,47395041,6401
32-3,47398947,-1905
32-4,47402853,-10475
32-5,47406759,-13750
32-6,47410665,-9691
32-7,47414571,-251
32-8,47418477,8157
32-9,47422383,9899
32-10,47426289,4232
32-11,47430195,-4605
32-12,47434101,-9610
32-13,47438007,-7210
32-14,47441913,1057
32-15,47445819,9909
32-16,47449725,13304
32-17,47453631,9454
32-18,47457537,757
32-19,47461443,-7579
32-20,47465349,-10381
32-21,47469255,-6264
32-22,47473161,2740
32-23,47477067,10852
32-24,47480973,12478
32-25,47484879,7511
32-26,47488785,-1270
32-27,47492691,-9518
32-28,47496597,-13113
32-29,47500503,-10333
32-30,47504409,-2081
32-31,47508315,6265
32-32,47512221,9240
32-1,47516127,5287
32-2,47520033,-3413
32-3,47523939,-11397
32-4,47527845,-13770
32-5,47531751,-9012
32-6,47535657,-117
32-7,47539563,6730
32-8,47543469,7158
32-9,47547375,1220
32-10,47551281,-6219
32-11,47555187,-8877
32-12,47559093,-4515
32-13,47562999,4473
32-14,47566905,12120
32-15,47570811,13225
32-16,47574717,7472
32-17,47578623,-1805
32-18,47582529,-8814
32-19,47586435,-9407
32-20,47590341,-3388
32-21,47594247,6112
32-22,47598153,12486
32-23,47602059,11624
32-24,47605965,4786
32-25,47609871,-3751
32-26,47613777,-9350
32-27,47617683,-10216
32-28,47621589,-6264
32-29,47625495,511
32-30,47629401,5688
32-31,47633307,6450
32-32,47637213,2003
32-1,47641119,-5849
32-2,47645025,-12004
32-3,47648931,-12172
32-4,47652837,-5035
32-5,47656743,4874
32-6,47660649,10157
32-7,47664555,7793
32-8,47668461,-270
32-9,47672367,-7721
32-10,47676273,-8825
32-11,47680179,-2890
32-12,47684085,6389
32-13,47687991,12600
32-14,47691897,11856
32-15,47695803,4885
32-16,47699709,-4433
32-17,47703615,-10425
32-18,47707521,-9774
32-19,47711427,-2725
32-20,47715333,6803
32-21,47719239,12093
32-22,47723145,9584
32-23,47727051,1529
32-24,47730957,-6374
32-25,47734863,-8733
32-26,47738769,-5248
32-27,47742675,837
32-28,47746581,5324
32-29,47750487,5323
32-30,47754393,1932
32-31,47758299,-3369
32-32,47762205,-9004
32-1,47766111,-12693
32-2,47770017,-11577
32-3,47773923,-4370
32-4,47777829,4517
32-5,47781735,8571
32-6,47785641,5088
32-7,47789547,-2751
32-8,47793453,-8182
32-9,47797359,-6730
32-10,47801265,870
32-11,47805171,9689
32-12,47809077,13645
32-13,47812983,10623
32-14,47816889,2488
32-15,47820795,-6399
32-16,47824701,-10738
32-17,47828607,-8221
32-18,47832513,220
32-19,47836419,9438
32-20,47840325,12845
32-21,47844231,8577
32-22,47848137,-594
32-23,47852043,-8051
32-24,47855949,-8398
32-25,47859855,-2196
32-26,47863761,5994
32-27,47867667,9885
32-28,47871573,6953
32-29,47875479,129
32-30,47879385,-7049
32-31,47883291,-12012
32-32,47887197,-13437
32-1,47891103,-10491
32-2,47895009,-3195
32-3,47898915,4116
32-4,47902821,6283
32-5,47906727,2107
32-6,47910633,-4641
32-7,47914539,-7660
32-8,47918445,-4134
32-9,47922351,4161
32-10,47926257,11838
32-11,47930163,13672
32-12,47934069,8934
32-13,47937975,85
32-14,47941881,-7920
32-15,47945787,-10432
32-16,47949693,-6025
32-17,47953599,3282
32-18,47957505,11259
32-19,47961411,12354
32-20,47965317,6214
32-21,47969223,-3276
32-22,47973129,-9980
32-23,47977035,-9395
32-24,47980941,-1963
32-25,47984847,7322
32-26,47988753,11777
32-27,47992659,8719
32-28,47996565,635
32-29,48000471,-8093
32-30,48004377,-13043
32-31,48008283,-12311
32-32,48012189,-5773
32-1,48016095,3333
32-2,48020001,9213
32-3,48023907,8338
32-4,48027813,930
32-5,48031719,-7430
32-6,48035625,-10353
32-7,48039531,-5915
32-8,48043437,3360
32-9,48047343,11245
32-10,48051249,12504
32-11,48055155,6736
32-12,48059061,-2509
32-13,48062967,-9172
32-14,48066873,-9172
32-15,48070779,-2625
32-16,48074685,6853
32-17,48078591,12777
32-18,48082497,11336
32-19,48086403,3675
32-20,48090309,-5562
32-21,48094215,-10308
32-22,48098121,-7968
32-23,48102027,186
32-24,48105933,9212
32-25,48109839,12857
32-26,48113745,9498
32-27,48117651,1079
32-28,48121557,-8025
32-29,48125463,-12671
32-30,48129369,-10507
32-31,48133275,-2128
32-32,48137181,7207
32-1,48141087,11084
32-2,48144993,7667
32-3,48148899,-1092
32-4,48152805,-9916
32-5,48156711,-13495
32-6,48160617,-9953
32-7,48164523,-959
32-8,48168429,7464
32-9,48172335,9567
32-10,48176241,4316
32-11,48180147,-4333
32-12,48184053,-9463
32-13,48187959,-7302
32-14,48191865,833
32-15,48195771,9734
32-16,48199677,13255
32-17,48203583,9488
32-18,48207489,770
32-19,48211395,-7651
32-20,48215301,-10508
32-21,48219207,-6421
32-22,48223113,2504
32-23,48227019,10513
32-24,48230925,12086
32-25,48234831,7189
32-26,48238737,-1430
32-27,48242643,-9580
32-28,48246549,-13237
32-29,48250455,-10627
32-30,48254361,-2450
32-31,48258267,6030
32-32,48262173,9250
32-1,48266079,5446
32-2,48269985,-3306
32-3,48273891,-11323
32-4,48277797,-13373
32-5,48281703,-7880
32-6,48285609,1765
32-7,48289515,8776
32-8,48293421,8623
32-9,48297327,1730
32-10,48301233,-6599
32-11,48305139,-9753
32-12,48309045,-5450
32-13,48312951,3779
32-14,48316857,11876
32-15,48320763,13414
32-16,48324669,7854
32-17,48328575,-1546
32-18,48332481,-8869
32-19,48336387,-9654
32-20,48340293,-3610
32-21,48344199,6045
32-22,48348105,12601
32-23,48352011,11833
32-24,48355917,4987
32-25,48359823,-3668
32-26,48363729,-9454
32-27,48367635,-10537
32-28,48371541,-6795
32-29,48375447,-85
32-30,48379353,5236
32-31,48383259,6232
32-32,48387165,1953
32-1,48391071,-5873
32-2,48394977,-12047
32-3,48398883,-12156
32-4,48402789,-4890
32-5,48406695,5125
32-6,48410601,10353
32-7,48414507,7817
32-8,48418413,-432
32-9,48422319,-8036
32-10,48426225,-9206
32-11,48430131,-3275
32-12,48434037,6100
32-13,48437943,12497
32-14,48441849,11814
32-15,48445755,4757
32-16,48449661,-4539
32-17,48453567,-10199
32-18,48457473,-8978
32-19,48461379,-1543
32-20,48465285,7908
32-21,48469191,12864
32-22,48473097,10115
32-23,48477003,1892
32-24,48480909,-6421
32-25,48484815,-9532
32-26,48488721,-6718
32-27,48492627,-698
32-28,48496533,4335
32-29,48500439,4986
32-30,48504345,1874
32-31,48508251,-3546
32-32,48512157,-9275
32-1,48516063,-12647
32-2,48519969,-11007
32-3,48523875,-3469
32-4,48527781,5383
32-5,48531687,9189
32-6,48535593,5387
32-7,48539499,-2899
32-8,48543405,-8917
32-9,48547311,-8029
32-10,48551217,-575
32-11,48555123,8748
32-12,48559029,13491
32-13,48562935,10883
32-14,48566841,2708
32-15,48570747,-6146
32-16,48574653,-10040
32-17,48578559,-6974
32-18,48582465,1543
32-19,48586371,10227
32-20,48590277,12962
32-21,48594183,8365
32-22,48598089,-915
32-23,48601995,-8698
32-24,48605901,-9702
32-25,48609807,-4013
32-26,48613713,4322
32-27,48617619,8877
32-28,48621525,6618
32-29,48625431,132
32-30,48629337,-7048
32-31,48633243,-12153
32-32,48637149,-13755
32-1,48641055,-11078
32-2,48644961,-4058
32-3,48648867,3183
32-4,48652773,5561
32-5,48656679,1698
32-6,48660585,-4859
32-7,48664491,-7825
32-8,48668397,-4268
32-9,48672303,4114
32-10,48676209,11870
32-11,48680115,13671
32-12,48684021,8843
32-13,48687927,-59
32-14,48691833,-8074
32-15,48695739,-10610
32-16,48699645,-6291
32-17,48703551,2934
32-18,48707457,10960
32-19,48711363,12175
32-20,48715269,6193
32-21,48719175,-2919
32-22,48723081,-9012
32-23,48726987,-7780
32-24,48730893,-40
32-25,48734799,8939
32-26,48738705,12712
32-27,48742611,9049
32-28,48746517,739
32-29,48750423,-7938
32-30,48754329,-13047
32-31,48758235,-12856
32-32,48762141,-6866
32-1,48766047,2050
32-2,48769953,8191
32-3,48773859,7788
32-4,48777765,886
32-5,48781671,-6905
32-6,48785577,-9257
32-7,48789483,-4442
32-8,48793389,4704
32-9,48797295,11928
32-10,48801201,12527
32-11,48805107,6550
32-12,48809013,-2717
32-13,48812919,-9692
32-14,48816825,-10322
32-15,48820731,-4210
32-16,48824637,5447
32-17,48828543,12001
32-18,48832449,11180
32-19,48836355,3804
32-20,48840261,-5426
32-21,48844167,-10232
32-22,48848073,-7907
32-23,48851979,158
32-24,48855885,8992
32-25,48859791,12560
32-26,48863697,9284
32-27,48867603,1017
32-28,48871509,-7945
32-29,48875415,-12515
32-30,48879321,-10305
32-31,48883227,-1895
32-32,48887133,7378
32-1,48891039,11095
32-2,48894945,7487
32-3,48898851,-1365
32-4,48902757,-10111
32-5,48906663,-13554
32-6,48910569,-9971
32-7,48914475,-1101
32-8,48918381,7089
32-9,48922287,8968
32-10,48926193,3770
32-11,48930099,-4306
32-12,48934005,-8539
32-13,48937911,-5703
32-14,48941817,2365
32-15,48945723,10449
32-16,48949629,13023
32-17,48953535,8851
32-18,48957441,230
32-19,48961347,-8178
32-20,48965253,-11436
32-21,48969159,-7831
32-22,48973065,1098
32-23,48976971,9637
32-24,48980877,11856
32-25,48984783,7284
32-26,48988689,-1362
32-27,48992595,-9619
32-28,48996501,-13195
32-29,49000407,-10378
32-30,49004313,-2118
32-31,49008219,6309
32-32,49012125,9401
32-1,49016031,5465
32-2,49019937,-3350
32-3,49023843,-11345
32-4,49027749,-13350
32-5,49031655,-7862
32-6,49035561,1746
32-7,49039467,8777
32-8,49043373,8744
32-9,49047279,2037
32-10,49051185,-6133
32-11,49055091,-9259
32-12,49058997,-5106
32-13,49062903,3857
32-14,49066809,11723
32-15,49070715,13174
32-16,49074621,7701
32-17,49078527,-1525
32-18,49082433,-8770
32-19,49086339,-9658
32-20,49090245,-3840
32-21,49094151,5682
32-22,49098057,12353
32-23,49101963,11864
32-24,49105869,5273
32-25,49109775,-3303
32-26,49113681,-9134
32-27,49117587,-10219
32-28,49121493,-6402
32-29,49125399,400
32-30,49129305,5727
32-31,49133211,6617
32-32,49137117,2228
32-1,49141023,-5671
32-2,49144929,-11966
32-3,49148835,-12362
32-4,49152741,-5499
32-5,49156647,4309
32-6,49160553,9681
32-7,49164459,7530
32-8,49168365,-305
32-9,49172271,-7673
32-10,49176177,-8788
32-11,49180083,-2888
32-12,49183989,6475
32-13,49187895,12945
32-14,49191801,12381
32-15,49195707,5436
32-16,49199613,-3843
32-17,49203519,-9644
32-18,49207425,-8682
32-19,49211331,-1481
32-20,49215237,7896
32-21,49219143,12902
32-22,49223049,10229
32-23,49226955,2034
32-24,49230861,-6341
32-25,49234767,-9562
32-26,49238673,-6849
32-27,49242579,-846
32-28,49246485,4318
32-29,49250391,5154
32-30,49254297,2142
32-31,49258203,-3331
32-32,49262109,-9171
32-1,49266015,-12461
32-2,49269921,-10495
32-3,49273827,-2567
32-4,49277733,6495
32-5,49281639,10163
32-6,49285545,6041
32-7,49289451,-2499
32-8,49293357,-8615
32-9,49297263,-7725
32-10,49301169,-347
32-11,49305075,8825
32-12,49308981,13439
32-13,49312887,10744
32-14,49316793,2495
32-15,49320699,-6460
32-16,49324605,-10434
32-17,49328511,-7342
32-18,49332417,1345
32-19,49336323,10284
32-20,49340229,13247
32-21,49344135,8761
32-22,49348041,-574
32-23,49351947,-8548
32-24,49355853,-9801
32-25,49359759,-4335
32-26,49363665,3940
32-27,49367571,8699
32-28,49371477,6775
32-29,49375383,561
32-30,49379289,-6571
32-31,49383195,-11717
32-32,49387101,-13140
32-1,49391007,-9972
32-2,49394913,-2361
32-3,49398819,5167
32-4,49402725,7305
32-5,49406631,2625
32-6,49410537,-5093
32-7,49414443,-9115
32-8,49418349,-6115
32-9,49422255,2446
32-10,49426161,10968
32-11,49430067,13535
32-12,49433973,8944
32-13,49437879,-101
32-14,49441785,-8037
32-15,49445691,-10006
32-16,49449597,-5107
32-17,49453503,4157
32-18,49457409,11676
32-19,49461315,12310
32-20,49465221,6044
32-21,49469127,-3284
32-22,49473033,-9841
32-23,49476939,-9221
32-24,49480845,-1732
32-25,49484751,7691
32-26,49488657,12244
32-27,49492563,9162
32-28,49496469,1066
32-29,49500375,-7669
32-30,49504281,-12883
32-31,49508187,-12774
32-32,49512093,-6920
32-1,49515999,1885
32-2,49519905,8050
32-3,49523811,7737
32-4,49527717,826
32-5,49531623,-7115
32-6,49535529,-9689
32-7,49539435,-4996
32-8,49543341,4235
32-9,49547247,11670
32-10,49551153,12373
32-11,49555059,6264
32-12,49558965,-3027
32-13,49562871,-9570
32-14,49566777,-9442
32-15,49570683,-2785
32-16,49574589,6775
32-17,49578495,12682
32-18,49582401,11185
32-19,49586307,3528
32-20,49590213,-5638
32-21,49594119,-10340
32-22,49598025,-8016
32-23,49601931,94
32-24,49605837,9066
32-25,49609743,12680
32-26,49613649,9321
32-27,49617555,927
32-28,49621461,-8281
32-29,49625367,-13295
32-30,49629273,-11614
32-31,49633179,-3538
32-32,49637085,5875
32-1,49640991,10157
32-2,49644897,7124
32-3,49648803,-1474
32-4,49652709,-10162
32-5,49656615,-13368
32-6,49660521,-9252
32-7,49664427,69
32-8,49668333,8314
32-9,49672239,9943
32-10,49676145,4286
32-11,49680051,-4450
32-12,49683957,-9440
32-13,49687863,-7158
32-14,49691769,931
32-15,49695675,9681
32-16,49699581,13164
32-17,49703487,9607
32-18,49707393,1109
32-19,49711299,-7483
32-20,49715205,-10932
32-21,49719111,-7480
32-22,49723017,1378
32-23,49726923,9757
32-24,49730829,11596
32-25,49734735,6914
32-26,49738641,-1335
32-27,49742547,-8831
32-28,49746453,-11795
32-29,49750359,-9101
32-30,49754265,-1623
32-31,49758171,5993
32-32,49762077,8713
32-1,49765983,4981
32-2,49769889,-3502
32-3,49773795,-11618
32-4,49777701,-14017
32-5,49781607,-8956
32-6,49785513,447
32-7,49789419,7664
32-8,49793325,7980
32-9,49797231,1648
32-10,49801137,-6084
32-11,49805043,-8707
32-12,49808949,-4179
32-13,49812855,4728
32-14,49816761,12043
32-15,49820667,12950
32-16,49824573,7347
32-17,49828479,-1825
32-18,49832385,-9296
32-19,49836291,-10774
32-20,49840197,-5352
32-21,49844103,4277
32-22,49848009,11654
32-23,49851915,11558
32-24,49855821,4574
32-25,49859727,-3953
32-26,49863633,-8891
32-27,49867539,-8867
32-28,49871445,-4975
32-29,49875351,370
32-30,49879257,4001
32-31,49883163,4505
32-32,49887069,1062
32-1,49890975,-5449
32-2,49894881,-11180
32-3,49898787,-11994
32-4,49902693,-5325
32-5,49906599,4504
32-6,49910505,9745
32-7,49914411,7364
32-8,49918317,-444
32-9,49922223,-7276
32-10,49926129,-7675
32-11,49930035,-1403
32-12,49933941,7624
32-13,49937847,13340
32-14,49941753,12270
32-15,49945659,5317
32-16,49949565,-3919
32-17,49953471,-10031
32-18,49957377,-9640
32-19,49961283,-2730
32-20,49965189,6952
32-21,49969095,12576
32-22,49973001,10743
32-23,49976907,2584
32-24,49980813,-6469
32-25,49984719,-9396
32-26,49988625,-5421
32-27,49992531,1721
32-28,49996437,6561
32-29,50000343,5373
32-30,50004249,325
32-31,50008155,-5425
32-32,50012061,-10122
33-1,50015967,-12277
33-2,50019873,-10821
33-3,50023779,-4652
33-4,50027685,3600
33-5,50031591,7620
33-6,50035497,4539
33-7,50039403,-2838
33-8,50043309,-8217
33-9,50047215,-7078
33-10,50051121,239
33-11,50055027,9305
33-12,50058933,13822
33-13,50062839,11110
33-14,50066745,2915
33-15,50070651,-5940
33-16,50074557,-9891
33-17,50078463,-6887
33-18,50082369,1630
33-19,50086275,10441
33-20,50090181,13387
33-21,50094087,8892
33-22,50097993,-132
33-23,50101899,-8295
33-24,50105805,-10067
33-25,50109711,-4152
33-26,50113617,5187
33-27,50117523,10906
33-28,50121429,8763
33-29,50125335,965
33-30,50129241,-7666
33-31,50133147,-13072
33-32,50137053,-13837
33-33,50140959,-9803
32-1,50144865,-2242
32-2,50148771,4618
32-3,50152677,6722
32-4,50156583,2208
32-5,50160489,-5275
32-6,50164395,-9095
32-7,50168301,-6096
32-8,50172207,2402
32-9,50176113,10946
32-10,50180019,13700
32-11,50183925,9276
32-12,50187831,295
32-13,50191737,-7721
32-14,50195643,-9807
32-15,50199549,-4991
32-16,50203455,4244
32-17,50207361,11750
32-18,50211267,12367
32-19,50215173,6108
32-20,50219079,-3243
32-21,50222985,-9656
32-22,50226891,-9355
32-23,50230797,-2639
32-24,50234703,6774
32-25,50238609,12427
32-26,50242515,11058
32-27,50246421,3952
32-28,50250327,-5344
32-29,50254233,-11867
32-30,50258139,-12575
32-31,50262045,-6863
32-32,50265951,2092
32-1,50269857,7987
32-2,50273763,7420
32-3,50277669,755
32-4,50281575,-7883
32-5,50285481,-12596
32-6,50289387,-10349
32-7,50293293,-1895
32-8,50297199,7293
32-9,50301105,10787
32-10,50305011,6620
32-11,50308917,-2167
32-12,50312823,-8862
32-13,50316729,-8625
32-14,50320635,-1708
32-15,50324541,7730
32-16,50328447,13330
32-17,50332353,11711
32-18,50336259,4148
32-19,50340165,-4949
32-20,50344071,-9786
32-21,50347977,-7693
32-22,50351883,283
32-23,50355789,9365
32-24,50359695,13023
32-25,50363601,9639
32-26,50367507,1394
32-27,50371413,-7747
32-28,50375319,-12936
32-29,50379225,-11722
32-30,50383131,-4135
32-31,50387037,5285
32-32,50390943,10088
32-1,50394849,7654
32-2,50398755,-646
32-3,50402661,-9671
32-4,50406567,-13612
32-5,50410473,-10052
32-6,50414379,-960
32-7,50418285,7509
32-8,50422191,9641
32-9,50426097,4357
32-10,50430003,-4324
32-11,50433909,-9478
32-12,50437815,-7290
32-13,50441721,936
32-14,50445627,9940
32-15,50449533,13500
32-16,50453439,9710
32-17,50457345,925
32-18,50461251,-7517
32-19,50465157,-10333
32-20,50469063,-6160
32-21,50472969,2933
32-22,50476875,11031
32-23,50480781,12563
32-24,50484687,7341
32-25,50488593,-1148
32-26,50492499,-8265
32-27,50496405,-11018
32-28,50500311,-8562
32-29,50504217,-1849
32-30,50508123,4893
32-31,50512029,7532
32-32,50515935,4513
32-1,50519841,-3166
32-2,50523747,-10664
32-3,50527653,-12985
32-4,50531559,-7799
32-5,50535465,2027
32-6,50539371,9187
32-7,50543277,9173
32-8,50547183,2379
32-9,50551089,-5988
32-10,50554995,-9310
32-11,50558901,-5298
32-12,50562807,3605
32-13,50566713,11428
32-14,50570619,12944
32-15,50574525,7599
32-16,50578431,-1637
32-17,50582337,-9252
32-18,50586243,-10708
32-19,50590149,-5268
32-20,50594055,4341
32-21,50597961,11628
32-22,50601867,11404
32-23,50605773,4536
32-24,50609679,-4117
32-25,50613585,-8629
32-26,50617491,-7209
32-27,50621397,-2113
32-28,50625303,3342
32-29,50629209,5508
32-30,50633115,3909
32-31,50637021,-545
32-32,50640927,-6670
32-1,50644833,-11760
32-2,50648739,-12422
32-3,50652645,-6470
32-4,50656551,2993
32-5,50660457,8921
32-6,50664363,7240
32-7,50668269,-242
32-8,50672175,-7288
32-9,50676081,-8147
32-10,50679987,-2123
32-11,50683893,6990
32-12,50687799,12958
32-13,50691705,12095
32-14,50695611,5270
32-15,50699517,-3932
32-16,50703423,-10003
32-17,50707329,-9555
32-18,50711235,-2550
32-19,50715141,7165
32-20,50719047,12714
32-21,50722953,10550
32-22,50726859,2203
32-23,50730765,-6443
32-24,50734671,-9121
32-25,50738577,-4726
32-26,50742483,3130
32-27,50746389,8430
32-28,50750295,7283
32-29,50754201,1474
32-30,50758107,-5499
32-31,50762013,-11035
32-32,50765919,-13482
32-1,50769825,-11983
32-2,50773731,-5628
32-3,50777637,2329
32-4,50781543,6262
32-5,50785449,3668
32-6,50789355,-3126
32-7,50793261,-7764
32-8,50797167,-6056
32-9,50801073,1401
32-10,50804979,10036
32-11,50808885,13895
32-12,50812791,10875
32-13,50816697,2717
32-14,50820603,-6202
32-15,50824509,-10648
32-16,50828415,-8242
32-17,50832321,136
32-18,50836227,9423
32-19,50840133,13143
32-20,50844039,9323
32-21,50847945,558
32-22,50851851,-7654
32-23,50855757,-9476
32-24,50859663,-3844
32-25,50863569,5261
32-26,50867475,11271
32-27,50871381,9870
32-28,50875287,2728
32-29,50879193,-6005
32-30,50883099,-12011
32-31,50887005,-12902
32-32,50890911,-8097
32-1,50894817,580
32-2,50898723,7960
32-3,50902629,9389
32-4,50906535,3529
32-5,50910441,-5350
32-6,50914347,-10347
32-7,50918253,-7984
32-8,50922159,518
32-9,50926065,9707
32-10,50929971,13284
32-11,50933877,9330
32-12,50937783,381
32-13,50941689,-7865
32-14,50945595,-10095
32-15,50949501,-5290
32-16,50953407,3961
32-17,50957313,11597
32-18,50961219,12428
32-19,50965125,6338
32-20,50969031,-2995
32-21,50972937,-9530
32-22,50976843,-9354
32-23,50980749,-2653
32-24,50984655,6831
