32-1,8257142,546
32-2,8261048,21712
32-3,8264954,27892
32-4,8268860,19155
32-5,8272766,-16464
32-6,8276672,-32300
32-7,8280578,-12044
32-8,8284484,18826
32-9,8288390,25499
32-10,8292296,24055
32-11,8296202,28003
32-12,8300108,9544
32-13,8304014,-27935
32-14,8307920,-32723
32-15,8311826,-11486
32-16,8315732,16790
32-17,8319638,24350
32-18,8323544,25251
32-19,8327450,26669
32-20,8331356,-3079
32-21,8335262,-32768
32-22,8339168,-22082
32-23,8343074,13264
32-24,8346980,25284
32-25,8350886,21387
32-26,8354792,27812
32-27,8358698,20094
32-28,8362604,-17140
32-29,8366510,-32768
32-30,8370416,-32359
32-31,8374322,-22246
32-32,8378228,2118
32-1,8382140,22144
32-2,8386046,28239
32-3,8389952,10069
32-4,8393858,-25413
32-5,8397764,-32143
32-6,8401670,-19724
32-7,8405576,10815
32-8,8409482,25213
32-9,8413388,24950
32-10,8417294,26397
32-11,8421200,268
32-12,8425106,-32593
32-13,8429012,-24246
32-14,8432918,11010
32-15,8436824,25948
32-16,8440730,23351
32-17,8444636,26932
32-18,8448542,21171
32-19,8452448,-13846
32-20,8456354,-32768
32-21,8460260,-23890
32-22,8464166,7713
32-23,8468072,23619
32-24,8471978,23695
32-25,8475884,28522
32-26,8479790,11693
32-27,8483696,-25868
32-28,8487602,-32768
32-29,8491508,-30033
32-30,8495414,-16669
32-31,8499320,8643
32-32,8503226,26765
32-1,8507199,27359
32-2,8511105,-676
32-3,8515011,-31731
32-4,8518917,-32157
32-5,8522823,-24275
32-6,8526729,1872
32-7,8530635,21878
32-8,8534541,27572
32-9,8538447,23625
32-10,8542353,-11730
32-11,8546259,-32245
32-12,8550165,-7839
32-13,8554071,23342
32-14,8557977,26136
32-15,8561883,22954
32-16,8565789,28148
32-17,8569695,14047
32-18,8573601,-23686
32-19,8577507,-32768
32-20,8581413,-15653
32-21,8585319,15246
32-22,8589225,25043
32-23,8593131,24635
32-24,8597037,27072
32-25,8600943,1586
32-26,8604849,-32768
32-27,8608755,-31643
32-28,8612661,-12758
32-29,8616567,1918
32-30,8620473,13450
32-31,8624379,27258
32-32,8628285,23337
32-1,8632135,-12047
32-2,8636041,-32768
32-3,8639947,-32359
32-4,8643853,-19630
32-5,8647759,7192
32-6,8651665,23832
32-7,8655571,29025
32-8,8659477,16171
32-9,8663383,-23080
32-10,8667289,-32376
32-11,8671195,-4342
32-12,8675101,23302
32-13,8679007,24485
32-14,8682913,23251
32-15,8686819,28100
32-16,8690725,5023
32-17,8694631,-32768
32-18,8698537,-32610
32-19,8702443,542
32-20,8706349,24280
32-21,8710255,24240
32-22,8714161,25020
32-23,8718067,24039
32-24,8721973,-8957
32-25,8725879,-32768
32-26,8729785,-22387
32-27,8733691,9075
32-28,8737597,18677
32-29,8741503,15037
32-30,8745409,23064
32-31,8749315,14885
32-32,8753221,-20957
32-1,8757255,-32768
32-2,8761161,-32359
32-3,8765067,-19569
32-4,8768973,6936
32-5,8772879,25531
32-6,8776785,28575
32-7,8780691,4936
32-8,8784597,-32157
32-9,8788503,-28479
32-10,8792409,7177
32-11,8796315,25609
32-12,8800221,22714
32-13,8804127,25938
32-14,8808033,26128
32-15,8811939,-6746
32-16,8815845,-32768
32-17,8819751,-23775
32-18,8823657,11147
32-19,8827563,25864
32-20,8831469,22417
32-21,8835375,27078
32-22,8839281,18535
32-23,8843187,-19924
32-24,8847093,-32768
32-25,8850999,-13751
32-26,8854905,19048
32-27,8858811,23737
32-28,8862717,17289
32-29,8866623,19632
32-30,8870529,-949
32-31,8874435,-30880
32-32,8878341,-32768
32-1,8882161,-31632
32-2,8886067,-17193
32-3,8889973,9840
32-4,8893879,26740
32-5,8897785,24717
32-6,8901691,-7063
32-7,8905597,-32429
32-8,8909503,-19632
32-9,8913409,14409
32-10,8917315,25690
32-11,8921221,23171
32-12,8925127,28512
32-13,8929033,19388
32-14,8932939,-19127
32-15,8936845,-32768
32-16,8940751,-14151
32-17,8944657,17089
32-18,8948563,24625
32-19,8952469,23072
32-20,8956375,28444
32-21,8960281,9555
32-22,8964187,-30157
32-23,8968093,-32768
32-24,8971999,-3073
32-25,8975905,22430
32-26,8979811,24295
32-27,8983717,22904
32-28,8987623,19020
32-29,8991529,-8850
32-30,8995435,-32768
32-31,8999341,-32359
32-32,9003247,-27416
32-1,9007128,-3899
32-2,9011034,19724
32-3,9014940,28507
32-4,9018846,19702
32-5,9022752,-16107
32-6,9026658,-32214
32-7,9030564,-11720
32-8,9034470,19383
32-9,9038376,25953
32-10,9042282,24087
32-11,9046188,28248
32-12,9050094,10170
32-13,9054000,-28328
32-14,9057906,-32661
32-15,9061812,-4873
32-16,9065718,20890
32-17,9069624,23888
32-18,9073530,25068
32-19,9077436,26592
32-20,9081342,-2620
32-21,9085248,-32768
32-22,9089154,-27275
32-23,9093060,6606
32-24,9096966,23992
32-25,9100872,22002
32-26,9104778,27525
32-27,9108684,20578
32-28,9112590,-16516
32-29,9116496,-32768
32-30,9120402,-32359
32-31,9124308,-21971
32-32,9128214,2543
32-1,9132248,22206
32-2,9136154,28163
32-3,9140060,10259
32-4,9143966,-25246
32-5,9147872,-32156
32-6,9151778,-19624
32-7,9155684,11064
32-8,9159590,25534
32-9,9163496,25098
32-10,9167402,26564
32-11,9171308,847
32-12,9175214,-32625
32-13,9179120,-24763
32-14,9183026,10437
32-15,9186932,25916
32-16,9190838,23446
32-17,9194744,26869
32-18,9198650,21844
32-19,9202556,-14051
32-20,9206462,-32768
32-21,9210368,-17678
32-22,9214274,14527
32-23,9218180,24310
32-24,9222086,22871
32-25,9225992,28886
32-26,9229898,11867
32-27,9233804,-25598
32-28,9237710,-32768
32-29,9241616,-31522
32-30,9245522,-20572
32-31,9249428,5401
32-32,9253334,26495
32-1,9257123,27541
32-2,9261029,-576
32-3,9264935,-31685
32-4,9268841,-32050
32-5,9272747,-20592
32-6,9276653,7751
32-7,9280559,24024
32-8,9284465,27079
32-9,9288371,23695
32-10,9292277,-10461
32-11,9296183,-32296
32-12,9300089,-14585
32-13,9303995,19019
32-14,9307901,26801
32-15,9311807,23264
32-16,9315713,27895
32-17,9319619,14746
32-18,9323525,-23249
32-19,9327431,-32768
32-20,9331337,-15215
32-21,9335243,15601
32-22,9339149,25125
32-23,9343055,24563
32-24,9346961,27273
32-25,9350867,1514
32-26,9354773,-32768
32-27,9358679,-27495
32-28,9362585,-4615
32-29,9366491,8440
32-30,9370397,15812
32-31,9374303,27107
32-32,9378209,23576
32-1,9382121,-11621
32-2,9386027,-32768
32-3,9389933,-32359
32-4,9393839,-23928
32-5,9397745,1492
32-6,9401651,22255
32-7,9405557,29453
32-8,9409463,16133
32-9,9413369,-23360
32-10,9417275,-32232
32-11,9421181,1651
32-12,9425087,26035
32-13,9428993,23760
32-14,9432899,23463
32-15,9436805,28176
32-16,9440711,5095
32-17,9444617,-31834
32-18,9448523,-32768
32-19,9452429,-6386
32-20,9456335,20835
32-21,9460241,24410
32-22,9464147,24434
32-23,9468053,23571
32-24,9471959,-8811
32-25,9475865,-32768
32-26,9479771,-22838
32-27,9483677,8343
32-28,9487583,18546
32-29,9491489,15297
32-30,9495395,22823
32-31,9499301,14865
32-32,9503207,-20317
32-1,9507241,-32768
32-2,9511147,-32114
32-3,9515053,-13954
32-4,9518959,13126
32-5,9522865,26360
32-6,9526771,28426
32-7,9530677,5469
32-8,9534583,-32190
32-9,9538489,-24778
32-10,9542395,12264
32-11,9546301,26402
32-12,9550207,21954
32-13,9554113,25993
32-14,9558019,25576
32-15,9561925,-6534
32-16,9565831,-32768
32-17,9569737,-28468
32-18,9573643,4240
32-19,9577549,24014
32-20,9581455,22792
32-21,9585361,26200
32-22,9589267,18279
32-23,9593173,-19571
32-24,9597079,-32768
32-25,9600985,-14764
32-26,9604891,17909
32-27,9608797,23481
32-28,9612703,17610
32-29,9616609,19728
32-30,9620515,-771
32-31,9624421,-30290
32-32,9628327,-32768
32-1,9632208,-29945
32-2,9636114,-7195
32-3,9640020,18853
32-4,9643926,27481
32-5,9647832,24119
32-6,9651738,-6142
32-7,9655644,-32701
32-8,9659550,-21339
32-9,9663456,12597
32-10,9667362,24889
32-11,9671268,22649
32-12,9675174,27876
32-13,9679080,19266
32-14,9682986,-19149
32-15,9686892,-32768
32-16,9690798,-14324
32-17,9694704,16891
32-18,9698610,24237
32-19,9702516,22380
32-20,9706422,27823
32-21,9710328,9332
32-22,9714234,-30168
32-23,9718140,-32768
32-24,9722046,-3638
32-25,9725952,21857
32-26,9729858,23781
32-27,9733764,22312
32-28,9737670,19278
32-29,9741576,-8293
32-30,9745482,-32768
32-31,9749388,-32359
32-32,9753294,-29567
32-1,9757236,-11872
32-2,9761142,13389
32-3,9765048,27819
32-4,9768954,19436
32-5,9772860,-17051
32-6,9776766,-31983
32-7,9780672,-10958
32-8,9784578,19758
32-9,9788484,25761
32-10,9792390,23943
32-11,9796296,28406
32-12,9800202,10163
32-13,9804108,-28412
32-14,9808014,-32444
32-15,9811920,-4533
32-16,9815826,21378
32-17,9819732,23954
32-18,9823638,24985
32-19,9827544,26458
32-20,9831450,-2816
32-21,9835356,-32768
32-22,9839262,-27417
32-23,9843168,6797
32-24,9847074,24365
32-25,9850980,21932
32-26,9854886,27434
32-27,9858792,20519
32-28,9862698,-16629
32-29,9866604,-32768
32-30,9870510,-32359
32-31,9874416,-19902
32-32,9878322,5387
32-1,9882111,23165
32-2,9886017,28128
32-3,9889923,9889
32-4,9893829,-25148
32-5,9897735,-32226
32-6,9901641,-23603
32-7,9905547,5810
32-8,9909453,24326
32-9,9913359,25499
32-10,9917265,25977
32-11,9921171,502
32-12,9925077,-32557
32-13,9928983,-25381
32-14,9932889,9875
32-15,9936795,26045
32-16,9940701,23563
32-17,9944607,26868
32-18,9948513,21985
32-19,9952419,-13838
32-20,9956325,-32768
32-21,9960231,-18483
32-22,9964137,13879
32-23,9968043,24586
32-24,9971949,23093
32-25,9975855,28913
32-26,9979761,12305
32-27,9983667,-25353
32-28,9987573,-32768
32-29,9991479,-29521
32-30,9995385,-14703
32-31,9999291,10558
32-32,10003197,27042
32-1,10007109,27117
32-2,10011015,-196
32-3,10014921,-31383
32-4,10018827,-32223
32-5,10022733,-24720
32-6,10026639,1568
32-7,10030545,22103
32-8,10034451,27340
32-9,10038357,23112
32-10,10042263,-10345
32-11,10046169,-32310
32-12,10050075,-16552
32-13,10053981,17501
32-14,10057887,26881
32-15,10061793,23180
32-16,10065699,27741
32-17,10069605,15361
32-18,10073511,-23693
32-19,10077417,-32768
32-20,10081323,-8709
32-21,10085229,20092
32-22,10089135,24708
32-23,10093041,24445
32-24,10096947,27452
32-25,10100853,1777
32-26,10104759,-32768
32-27,10108665,-31906
32-28,10112571,-12438
32-29,10116477,2474
32-30,10120383,13268
32-31,10124289,26699
32-32,10128195,23840
32-1,10132107,-10999
32-2,10136013,-32768
32-3,10139919,-32359
32-4,10143825,-19597
32-5,10147731,7426
32-6,10151637,23960
32-7,10155543,28962
32-8,10159449,16987
32-9,10163355,-22072
32-10,10167261,-32402
32-11,10171167,-4699
32-12,10175073,23522
32-13,10178979,25009
32-14,10182885,23713
32-15,10186791,28197
32-16,10190697,6003
32-17,10194603,-31065
32-18,10198509,-32768
32-19,10202415,-9067
32-20,10206321,19230
32-21,10210227,24970
32-22,10214133,24760
32-23,10218039,24070
32-24,10221945,-8877
32-25,10225851,-32768
32-26,10229757,-16013
32-27,10233663,15685
32-28,10237569,20074
32-29,10241475,15581
32-30,10245381,23728
32-31,10249287,14787
32-32,10253193,-20638
32-1,10257257,-32768
32-2,10261163,-32359
32-3,10265069,-18700
32-4,10268975,8877
32-5,10272881,26100
32-6,10276787,28854
32-7,10280693,5910
32-8,10284599,-31669
32-9,10288505,-25798
32-10,10292411,11156
32-11,10296317,26541
32-12,10300223,22226
32-13,10304129,25995
32-14,10308035,25985
32-15,10311941,-5918
32-16,10315847,-32768
32-17,10319753,-28244
32-18,10323659,4777
32-19,10327565,24386
32-20,10331471,22923
32-21,10335377,26317
32-22,10339283,18863
32-23,10343189,-19055
32-24,10347095,-32768
32-25,10351001,-14180
32-26,10354907,18367
32-27,10358813,23518
32-28,10362719,17853
32-29,10366625,20017
32-30,10370531,57
32-31,10374437,-29813
32-32,10378343,-32768
32-1,10382346,-27554
32-2,10386252,-1403
32-3,10390158,21638
32-4,10394064,26831
32-5,10397970,23723
32-6,10401876,-5270
32-7,10405782,-32768
32-8,10409688,-26147
32-9,10413594,6798
32-10,10417500,23723
32-11,10421406,23075
32-12,10425312,27576
32-13,10429218,19695
32-14,10433124,-18655
32-15,10437030,-32768
32-16,10440936,-14256
32-17,10444842,16958
32-18,10448748,24302
32-19,10452654,22452
32-20,10456560,28041
32-21,10460466,9855
32-22,10464372,-29883
32-23,10468278,-32768
32-24,10472184,-3238
32-25,10476090,22256
32-26,10479996,24203
32-27,10483902,22364
32-28,10487808,18782
32-29,10491714,-7930
32-30,10495620,-32768
32-31,10499526,-32559
32-32,10503432,-26100
32-1,10507100,-2168
32-2,10511006,19558
32-3,10514912,27425
32-4,10518818,18778
32-5,10522724,-16065
32-6,10526630,-32422
32-7,10530536,-16802
32-8,10534442,15378
32-9,10538348,25491
32-10,10542254,23833
32-11,10546160,28028
32-12,10550066,10483
32-13,10553972,-28488
32-14,10557878,-32743
32-15,10561784,-4804
32-16,10565690,20898
32-17,10569596,23321
32-18,10573502,24397
32-19,10577408,26373
32-20,10581314,-2600
32-21,10585220,-32768
32-22,10589126,-27624
32-23,10593032,6417
32-24,10596938,24137
32-25,10600844,21885
32-26,10604750,27236
32-27,10608656,20680
32-28,10612562,-16165
32-29,10616468,-32768
32-30,10620374,-32359
32-31,10624280,-19934
32-32,10628186,5772
32-1,10632158,23364
32-2,10636064,28137
32-3,10639970,10880
32-4,10643876,-25002
32-5,10647782,-32247
32-6,10651688,-19490
32-7,10655594,11098
32-8,10659500,25180
32-9,10663406,25054
32-10,10667312,25963
32-11,10671218,621
32-12,10675124,-32702
32-13,10679030,-29710
32-14,10682936,3436
32-15,10686842,24079
32-16,10690748,23920
32-17,10694654,26592
32-18,10698560,21944
32-19,10702466,-13833
32-20,10706372,-32768
32-21,10710278,-18991
32-22,10714184,13344
32-23,10718090,24258
32-24,10721996,22517
32-25,10725902,28698
32-26,10729808,11813
32-27,10733714,-25791
32-28,10737620,-32768
32-29,10741526,-28039
32-30,10745432,-14285
32-31,10749338,11735
32-32,10753244,27568
32-1,10757156,27192
32-2,10761062,418
32-3,10764968,-31254
32-4,10768874,-32278
32-5,10772780,-25669
32-6,10776686,-807
32-7,10780592,20736
32-8,10784498,27330
32-9,10788404,22783
32-10,10792310,-10763
32-11,10796216,-32297
32-12,10800122,-16765
32-13,10804028,17006
32-14,10807934,26623
32-15,10811840,23301
32-16,10815746,27821
32-17,10819652,14918
32-18,10823558,-23876
32-19,10827464,-32759
32-20,10831370,-9948
32-21,10835276,19397
32-22,10839182,25181
32-23,10843088,24228
32-24,10846994,27188
32-25,10850900,3132
32-26,10854806,-32768
32-27,10858712,-29345
32-28,10862618,1465
32-29,10866524,5944
32-30,10870430,4888
32-31,10874336,25919
32-32,10878242,25762
32-1,10882123,-11800
32-2,10886029,-32647
32-3,10889935,-32239
32-4,10893841,-23051
32-5,10897747,1760
32-6,10901653,21711
32-7,10905559,29075
32-8,10909465,16292
32-9,10913371,-22367
32-10,10917277,-32131
32-11,10921183,-4256
32-12,10925089,23974
32-13,10928995,25047
32-14,10932901,23446
32-15,10936807,28258
32-16,10940713,6192
32-17,10944619,-31244
32-18,10948525,-32625
32-19,10952431,-6034
32-20,10956337,20427
32-21,10960243,24324
32-22,10964149,24748
32-23,10968055,23472
32-24,10971961,-8227
32-25,10975867,-32768
32-26,10979773,-22865
32-27,10983679,13746
32-28,10987585,25676
32-29,10991491,9615
32-30,10995397,14091
32-31,10999303,15579
32-32,11003209,-19258
33-1,11004405,-32768
33-2,11008311,-32195
33-3,11012217,-18977
33-4,11016123,7314
33-5,11020029,25241
33-6,11023935,28538
33-7,11027841,6113
33-8,11031747,-31527
33-9,11035653,-29364
33-10,11039559,6439
33-11,11043465,25884
33-12,11047371,22885
33-13,11051277,25779
33-14,11055183,26602
33-15,11059089,-5294
33-16,11062995,-32768
33-17,11066901,-26585
33-18,11070807,7284
33-19,11074713,25092
33-20,11078619,22928
33-21,11082525,26458
33-22,11086431,19365
33-23,11090337,-19186
33-24,11094243,-32768
33-25,11098149,-11642
33-26,11102055,18741
33-27,11105961,26529
33-28,11109867,23691
33-29,11113773,14131
33-30,11117679,-9804
33-31,11121585,-30088
33-32,11125491,-32756
33-33,11129397,-30359
32-1,11135994,-6279
32-2,11139900,19042
32-3,11143806,27331
32-4,11147712,24589
32-5,11151618,-5203
32-6,11155524,-32713
32-7,11159430,-20953
32-8,11163336,13467
32-9,11167242,25166
32-10,11171148,22623
32-11,11175054,27725
32-12,11178960,19311
32-13,11182866,-17953
32-14,11186772,-32768
32-15,11190678,-19613
32-16,11194584,12170
32-17,11198490,24343
32-18,11202396,22895
32-19,11206302,28214
32-20,11210208,10623
32-21,11214114,-30031
32-22,11218020,-32266
32-23,11221926,3687
32-24,11225832,25311
32-25,11229738,22144
32-26,11233644,24707
32-27,11237550,24209
32-28,11241456,-8774
32-29,11245362,-32768
32-30,11249268,-32359
32-31,11253174,-29057
32-32,11257080,-10130
32-1,11260992,15206
32-2,11264898,27696
32-3,11268804,19529
32-4,11272710,-16576
32-5,11276616,-32040
32-6,11280522,-10366
32-7,11284428,20147
32-8,11288334,25556
32-9,11292240,23917
32-10,11296146,28416
32-11,11300052,10635
32-12,11303958,-27082
32-13,11307864,-32533
32-14,11311770,-11102
32-15,11315676,17133
32-16,11319582,23899
32-17,11323488,24676
32-18,11327394,26562
32-19,11331300,-1564
32-20,11335206,-32768
32-21,11339112,-27735
32-22,11343018,6443
32-23,11346924,24323
32-24,11350830,21991
32-25,11354736,27081
32-26,11358642,21540
32-27,11362548,-14806
32-28,11366454,-32768
32-29,11370360,-32359
32-30,11374266,-20921
32-31,11378172,5268
32-32,11382078,23741
32-1,11385989,28765
32-2,11389895,10325
32-3,11393801,-24665
32-4,11397707,-32238
32-5,11401613,-29605
32-6,11405519,-6369
32-7,11409425,19529
32-8,11413331,26784
32-9,11417237,26578
32-10,11421143,439
32-11,11425049,-32304
32-12,11428955,-18789
32-13,11432861,16750
32-14,11436767,26670
32-15,11440673,23239
32-16,11444579,27963
32-17,11448485,22344
32-18,11452391,-12785
32-19,11456297,-32768
32-20,11460203,-23609
32-21,11464109,8336
32-22,11468015,23767
32-23,11471921,23599
32-24,11475827,28421
32-25,11479733,13402
32-26,11483639,-25182
32-27,11487545,-32768
32-28,11491451,-20630
32-29,11495357,-3327
32-30,11499263,9874
32-31,11503169,23832
32-32,11507075,29086
32-1,11510987,561
32-2,11514893,-31543
32-3,11518799,-32460
32-4,11522705,-27958
32-5,11526611,-5204
32-6,11530517,18641
32-7,11534423,27607
32-8,11538329,22824
32-9,11542235,-10671
32-10,11546141,-32372
32-11,11550047,-16829
32-12,11553953,16846
32-13,11557859,26359
32-14,11561765,23116
32-15,11565671,27629
32-16,11569577,15159
32-17,11573483,-23636
32-18,11577389,-32768
32-19,11581295,-9809
32-20,11585201,19397
32-21,11589107,24992
32-22,11593013,24050
32-23,11596919,27457
32-24,11600825,2819
32-25,11604731,-32768
32-26,11608637,-29467
32-27,11612543,368
32-28,11616449,14756
32-29,11620355,13948
32-30,11624261,22509
32-31,11628167,23318
32-32,11632073,-10346
32-1,11636137,-32768
32-2,11640043,-32359
32-3,11643949,-24744
32-4,11647855,-1636
32-5,11651761,20053
32-6,11655667,28656
32-7,11659573,16064
32-8,11663479,-22498
32-9,11667385,-32155
32-10,11671291,-4516
32-11,11675197,23310
32-12,11679103,24294
32-13,11683009,22530
32-14,11686915,27345
32-15,11690821,5488
32-16,11694727,-32120
32-17,11698633,-32585
32-18,11702539,-67
32-19,11706445,23711
32-20,11710351,23502
32-21,11714257,24218
32-22,11718163,22966
32-23,11722069,-8619
32-24,11725975,-32768
32-25,11729881,-23794
32-26,11733787,10601
32-27,11737693,23303
32-28,11741599,17553
32-29,11745505,20824
32-30,11749411,10445
32-31,11753317,-22000
32-32,11757223,-32768
32-1,11761135,-32359
32-2,11765041,-19392
32-3,11768947,7177
32-4,11772853,24819
32-5,11776759,28039
32-6,11780665,5357
32-7,11784571,-31736
32-8,11788477,-29457
32-9,11792383,6096
32-10,11796289,25250
32-11,11800195,22149
32-12,11804101,24966
32-13,11808007,25770
32-14,11811913,-5969
32-15,11815819,-32768
32-16,11819725,-25166
32-17,11823631,9569
32-18,11827537,25403
32-19,11831443,22124
32-20,11835349,26076
32-21,11839255,18622
32-22,11843161,-19279
32-23,11847067,-32768
32-24,11850973,-14946
32-25,11854879,16807
32-26,11858785,26091
32-27,11862691,21352
32-28,11866597,20808
32-29,11870503,2320
32-30,11874409,-28441
32-31,11878315,-32768
32-32,11882221,-31400
32-1,11885980,-15503
32-2,11889886,11231
32-3,11893792,26977
32-4,11897698,24776
32-5,11901604,-5931
32-6,11905510,-32488
32-7,11909416,-20555
32-8,11913322,13981
32-9,11917228,25430
32-10,11921134,22555
32-11,11925040,28123
32-12,11928946,20332
32-13,11932852,-18038
32-14,11936758,-32768
32-15,11940664,-14397
32-16,11944570,17237
32-17,11948476,24480
32-18,11952382,22396
32-19,11956288,28139
32-20,11960194,10431
32-21,11964100,-29333
32-22,11968006,-32768
32-23,11971912,-3157
32-24,11975818,22844
32-25,11979724,22923
32-26,11983630,24446
32-27,11987536,24154
32-28,11991442,-7946
32-29,11995348,-32768
32-30,11999254,-32359
32-31,12003160,-25427
32-32,12007066,-1154
32-1,12010977,20882
32-2,12014883,28167
32-3,12018789,17978
32-4,12022695,-15730
32-5,12026601,-32266
32-6,12030507,-27168
32-7,12034413,2214
32-8,12038319,23447
32-9,12042225,25399
32-10,12046131,28015
32-11,12050037,11787
32-12,12053943,-28002
32-13,12057849,-32312
32-14,12061755,1698
32-15,12065661,24050
32-16,12069567,23278
32-17,12073473,25032
32-18,12077379,27520
32-19,12081285,-1227
32-20,12085191,-32768
32-21,12089097,-27363
32-22,12093003,7295
32-23,12096909,24830
32-24,12100815,22016
32-25,12104721,27060
32-26,12108627,21777
32-27,12112533,-14561
32-28,12116439,-32768
32-29,12120345,-32359
32-30,12124251,-23949
32-31,12128157,1592
32-32,12132063,22903
32-1,12135975,28549
32-2,12139881,9948
32-3,12143787,-24352
32-4,12147693,-32140
32-5,12151599,-27747
32-6,12155505,-1387
32-7,12159411,22268
32-8,12163317,26806
32-9,12167223,26522
32-10,12171129,1462
32-11,12175035,-32340
32-12,12178941,-24700
32-13,12182847,10619
32-14,12186753,25960
32-15,12190659,23616
32-16,12194565,27324
32-17,12198471,22136
32-18,12202377,-12750
32-19,12206283,-32768
32-20,12210189,-23801
32-21,12214095,8177
32-22,12218001,23750
32-23,12221907,23384
32-24,12225813,28607
32-25,12229719,14077
32-26,12233625,-25079
32-27,12237531,-32768
32-28,12241437,-14266
32-29,12245343,3639
32-30,12249249,13289
32-31,12253155,23881
32-32,12257061,28461
32-1,12260973,944
32-2,12264879,-31300
32-3,12268785,-32670
32-4,12272691,-28357
32-5,12276597,-5534
32-6,12280503,18345
32-7,12284409,27405
32-8,12288315,23391
32-9,12292221,-10901
32-10,12296127,-32568
32-11,12300033,-10179
32-12,12303939,21818
32-13,12307845,25944
32-14,12311751,22764
32-15,12315657,27682
32-16,12319563,14418
32-17,12323469,-23100
32-18,12327375,-32768
32-19,12331281,-16254
32-20,12335187,14498
32-21,12339093,25057
32-22,12342999,24352
32-23,12346905,27261
32-24,12350811,3247
32-25,12354717,-32768
32-26,12358623,-29702
32-27,12362529,-171
32-28,12366435,14321
32-29,12370341,14190
32-30,12374247,22776
32-31,12378153,23511
32-32,12382059,-9568
33-1,12382430,-32768
33-2,12386336,-32359
33-3,12390242,-20141
33-4,12394148,6510
33-5,12398054,23310
33-6,12401960,28899
33-7,12405866,17587
33-8,12409772,-22357
33-9,12413678,-32380
33-10,12417584,2288
33-11,12421490,26466
33-12,12425396,23954
33-13,12429302,23311
33-14,12433208,28042
33-15,12437114,5828
33-16,12441020,-31282
33-17,12444926,-32768
33-18,12448832,-7188
33-19,12452738,20621
33-20,12456644,24842
33-21,12460550,24985
33-22,12464456,23909
33-23,12468362,-7630
33-24,12472268,-32768
33-25,12476174,-24177
33-26,12480080,10224
33-27,12483986,23354
33-28,12487892,17632
33-29,12491798,20776
33-30,12495704,10763
33-31,12499610,-21495
33-32,12503516,-32768
33-33,12507422,-32359
32-1,12514874,-15070
32-2,12518780,12238
32-3,12522686,25960
32-4,12526592,28272
32-5,12530498,6614
32-6,12534404,-31342
32-7,12538310,-30314
32-8,12542216,4757
32-9,12546122,24848
32-10,12550028,22597
32-11,12553934,25147
32-12,12557840,26041
32-13,12561746,-5694
32-14,12565652,-32768
32-15,12569558,-25397
32-16,12573464,9376
32-17,12577370,25805
32-18,12581276,22687
32-19,12585182,26466
32-20,12589088,19175
32-21,12592994,-18951
32-22,12596900,-32768
32-23,12600806,-15056
32-24,12604712,16690
32-25,12608618,26438
32-26,12612524,21385
32-27,12616430,20304
32-28,12620336,2313
32-29,12624242,-28399
32-30,12628148,-32768
32-31,12632054,-31941
32-32,12635960,-19938
32-1,12639872,6383
32-2,12643778,26175
32-3,12647684,25415
32-4,12651590,-5897
32-5,12655496,-32363
32-6,12659402,-20832
32-7,12663308,13269
32-8,12667214,25303
32-9,12671120,22882
32-10,12675026,28454
32-11,12678932,20521
32-12,12682838,-17968
32-13,12686744,-32768
32-14,12690650,-14531
32-15,12694556,17380
32-16,12698462,24788
32-17,12702368,22545
32-18,12706274,28190
32-19,12710180,10295
32-20,12714086,-29418
32-21,12717992,-32768
32-22,12721898,-3839
32-23,12725804,22894
32-24,12729710,23580
32-25,12733616,24875
32-26,12737522,24928
32-27,12741428,-7591
32-28,12745334,-32768
32-29,12749240,-32359
32-30,12753146,-28616
32-31,12757052,-4948
32-32,12760958,20966
32-1,12764869,28940
32-2,12768775,18441
32-3,12772681,-15230
32-4,12776587,-32201
32-5,12780493,-24570
32-6,12784399,6227
32-7,12788305,24457
32-8,12792211,25424
32-9,12796117,28298
32-10,12800023,11791
32-11,12803929,-27224
32-12,12807835,-32357
32-13,12811741,-5722
32-14,12815647,20611
32-15,12819553,23892
32-16,12823459,24825
32-17,12827365,27152
32-18,12831271,-1033
32-19,12835177,-32768
32-20,12839083,-28400
32-21,12842989,5500
32-22,12846895,24156
32-23,12850801,22292
32-24,12854707,26276
32-25,12858613,22274
32-26,12862519,-13881
32-27,12866425,-32768
32-28,12870331,-27387
32-29,12874237,-9830
32-30,12878143,4198
32-31,12882049,19484
32-32,12885955,29896
32-1,12889867,10736
32-2,12893773,-24543
32-3,12897679,-32394
32-4,12901585,-30205
32-5,12905491,-6966
32-6,12909397,19459
32-7,12913303,27265
32-8,12917209,26450
32-9,12921115,1710
32-10,12925021,-32463
32-11,12928927,-25869
32-12,12932833,9331
32-13,12936739,25971
32-14,12940645,24013
32-15,12944551,27469
32-16,12948457,23275
32-17,12952363,-12598
32-18,12956269,-32768
32-19,12960175,-18234
32-20,12964081,14493
32-21,12967987,24748
32-22,12971893,23111
32-23,12975799,29003
32-24,12979705,13554
32-25,12983611,-23496
32-26,12987517,-32768
32-27,12991423,-24294
32-28,12995329,2766
32-29,12999235,16777
32-30,13003141,19356
32-31,13007047,26348
32-32,13010953,3099
32-1,13014865,-31608
32-2,13018771,-32517
32-3,13022677,-25133
32-4,13026583,936
32-5,13030489,21763
32-6,13034395,26866
32-7,13038301,23380
32-8,13042207,-9488
32-9,13046113,-32593
32-10,13050019,-16528
32-11,13053925,17481
32-12,13057831,26425
32-13,13061737,23242
32-14,13065643,27711
32-15,13069549,15277
32-16,13073455,-22293
32-17,13077361,-32768
32-18,13081267,-17069
32-19,13085173,14031
32-20,13089079,25231
32-21,13092985,24302
32-22,13096891,27589
32-23,13100797,3504
32-24,13104703,-32768
32-25,13108609,-24954
32-26,13112515,6773
32-27,13116421,17841
32-28,13120327,19418
32-29,13124233,24224
32-30,13128139,18661
32-31,13132045,-10816
32-32,13135951,-32768
32-1,13139954,-32359
32-2,13143860,-26287
32-3,13147766,-4522
32-4,13151672,18722
32-5,13155578,29550
32-6,13159484,17182
32-7,13163390,-22321
32-8,13167296,-32111
32-9,13171202,1642
32-10,13175108,26579
32-11,13179014,24539
32-12,13182920,23446
32-13,13186826,28075
32-14,13190732,6507
32-15,13194638,-30752
32-16,13198544,-32713
32-17,13202450,-6392
32-18,13206356,21102
32-19,13210262,24733
32-20,13214168,24807
32-21,13218074,24029
32-22,13221980,-6982
32-23,13225886,-32768
32-24,13229792,-24378
32-25,13233698,11060
32-26,13237604,22635
32-27,13241510,16377
32-28,13245416,24946
32-29,13249322,13993
32-30,13253228,-24102
32-31,13257134,-32768
32-32,13261040,-31693
32-1,13264860,-18068
32-2,13268766,8376
32-3,13272672,24938
32-4,13276578,28441
32-5,13280484,6812
32-6,13284390,-30740
32-7,13288296,-32212
32-8,13292202,-216
32-9,13296108,23641
32-10,13300014,23697
32-11,13303920,25383
32-12,13307826,26694
32-13,13311732,-4822
32-14,13315638,-32768
32-15,13319544,-24965
32-16,13323450,10010
32-17,13327356,25883
32-18,13331262,22456
32-19,13335168,26276
32-20,13339074,19293
32-21,13342980,-18745
32-22,13346886,-32768
32-23,13350792,-14878
32-24,13354698,16695
32-25,13358604,26347
32-26,13362510,21643
32-27,13366416,20533
32-28,13370322,4357
32-29,13374228,-27015
32-30,13378134,-32768
32-31,13382040,-21755
32-32,13385946,7440
32-1,13389857,23094
32-2,13393763,26253
32-3,13397669,23887
32-4,13401575,-5265
32-5,13405481,-32768
32-6,13409387,-32359
32-7,13413293,-8164
32-8,13417199,17506
32-9,13421105,24231
32-10,13425011,27212
32-11,13428917,20066
32-12,13432823,-17316
32-13,13436729,-32751
32-14,13440635,-15916
32-15,13444541,15982
32-16,13448447,24493
32-17,13452353,22242
32-18,13456259,27733
32-19,13460165,10384
32-20,13464071,-29140
32-21,13467977,-32768
32-22,13471883,-4564
32-23,13475789,22118
32-24,13479695,23103
32-25,13483601,24292
32-26,13487507,24500
32-27,13491413,-7790
32-28,13495319,-32768
32-29,13499225,-32359
32-30,13503131,-29993
32-31,13507037,-9057
32-32,13510943,18545
32-1,13514855,29028
32-2,13518761,18497
32-3,13522667,-15151
32-4,13526573,-32105
32-5,13530479,-24548
32-6,13534385,6678
32-7,13538291,24541
32-8,13542197,25109
32-9,13546103,28154
32-10,13550009,11698
32-11,13553915,-27180
32-12,13557821,-32263
32-13,13561727,-6633
32-14,13565633,20110
32-15,13569539,23989
32-16,13573445,24905
32-17,13577351,27411
32-18,13581257,-652
32-19,13585163,-32768
32-20,13589069,-28599
32-21,13592975,5526
32-22,13596881,24410
32-23,13600787,22307
32-24,13604693,26255
32-25,13608599,22318
32-26,13612505,-14032
32-27,13616411,-32768
32-28,13620317,-27419
32-29,13624223,-10193
32-30,13628129,4060
32-31,13632035,19583
32-32,13635941,29685
32-1,13639853,10154
32-2,13643759,-24913
32-3,13647665,-32373
32-4,13651571,-30524
32-5,13655477,-8399
32-6,13659383,18260
32-7,13663289,27137
32-8,13667195,26106
32-9,13671101,832
32-10,13675007,-32389
32-11,13678913,-26038
32-12,13682819,8909
32-13,13686725,25625
32-14,13690631,23621
32-15,13694537,27086
32-16,13698443,22630
32-17,13702349,-12990
32-18,13706255,-32768
32-19,13710161,-19884
32-20,13714067,12883
32-21,13717973,24468
32-22,13721879,22915
32-23,13725785,28710
32-24,13729691,13367
32-25,13733597,-23719
32-26,13737503,-32768
32-27,13741409,-23195
32-28,13745315,4490
32-29,13749221,17943
32-30,13753127,19926
32-31,13757033,26880
32-32,13760939,2848
32-1,13764850,-31988
32-2,13768756,-32573
32-3,13772662,-27914
32-4,13776568,-6739
32-5,13780474,17267
32-6,13784380,27269
32-7,13788286,23183
32-8,13792192,-10240
32-9,13796098,-32453
32-10,13800004,-16444
32-11,13803910,17696
32-12,13807816,26848
32-13,13811722,23387
32-14,13815628,27798
32-15,13819534,15492
32-16,13823440,-22278
32-17,13827346,-32768
32-18,13831252,-15805
32-19,13835158,13926
32-20,13839064,24373
32-21,13842970,24274
32-22,13846876,27138
32-23,13850782,3673
32-24,13854688,-32768
32-25,13858594,-30594
32-26,13862500,-4323
32-27,13866406,10670
32-28,13870312,17996
32-29,13874218,23890
32-30,13878124,17989
32-31,13882030,-9910
32-32,13885936,-32683
32-1,13889940,-32274
32-2,13893846,-18028
32-3,13897752,9556
32-4,13901658,24110
32-5,13905564,28389
32-6,13909470,18204
32-7,13913376,-20595
32-8,13917282,-32394
32-9,13921188,-5579
32-10,13925094,23467
32-11,13929000,25278
32-12,13932906,23186
32-13,13936812,28125
32-14,13940718,7079
32-15,13944624,-31250
32-16,13948530,-32768
32-17,13952436,-2850
32-18,13956342,22900
32-19,13960248,24777
32-20,13964154,25159
32-21,13968060,24337
32-22,13971966,-6814
32-23,13975872,-32768
32-24,13979778,-23818
32-25,13983684,12231
32-26,13987590,23265
32-27,13991496,17226
32-28,13995402,25895
32-29,13999308,13949
32-30,14003214,-24552
32-31,14007120,-32768
32-32,14011026,-32012
32-1,14014846,-21709
32-2,14018752,4409
32-3,14022658,23830
32-4,14026564,28980
32-5,14030470,7205
32-6,14034376,-30902
32-7,14038282,-29206
32-8,14042188,7076
32-9,14046094,26379
32-10,14050000,22834
32-11,14053906,25437
32-12,14057812,26463
32-13,14061718,-4266
32-14,14065624,-32768
32-15,14069530,-28813
32-16,14073436,4464
32-17,14077342,24727
32-18,14081248,23202
32-19,14085154,26168
32-20,14089060,19801
32-21,14092966,-19013
32-22,14096872,-32768
32-23,14100778,-8811
32-24,14104684,20860
32-25,14108590,26027
32-26,14112496,21597
32-27,14116402,21333
32-28,14120308,4348
32-29,14124214,-26700
32-30,14128120,-32768
32-31,14132026,-25579
32-32,14135932,1997
32-1,14139843,21986
32-2,14143749,27224
32-3,14147655,23798
32-4,14151561,-5261
32-5,14155467,-32768
32-6,14159373,-32359
32-7,14163279,-8298
32-8,14167185,17578
32-9,14171091,24624
32-10,14174997,27473
32-11,14178903,20802
32-12,14182809,-16543
32-13,14186715,-32768
32-14,14190621,-15539
32-15,14194527,16321
32-16,14198433,24424
32-17,14202339,22068
32-18,14206245,27702
32-19,14210151,10951
32-20,14214057,-28686
32-21,14217963,-32768
32-22,14221869,-4436
32-23,14225775,22257
32-24,14229681,23130
32-25,14233587,24346
32-26,14237493,24162
32-27,14241399,-7560
32-28,14245305,-32768
32-29,14249211,-32359
32-30,14253117,-26560
32-31,14257023,307
32-32,14260929,23147
