32-1,16272432,-81
32-2,16276338,-62
32-3,16280244,-57
32-4,16284150,-77
32-5,16288056,-78
32-6,16291962,-56
32-7,16295868,-31
32-8,16299774,-20
32-9,16303680,-29
32-10,16307586,-48
32-11,16311492,-63
32-12,16315398,-72
32-13,16319304,-72
32-14,16323210,-69
32-15,16327116,-72
32-16,16331022,-79
32-17,16334928,-79
32-18,16338834,-73
32-19,16342740,-63
32-20,16346646,-56
32-21,16350552,-49
32-22,16354458,-45
32-23,16358364,-48
32-24,16362270,-62
32-25,16366176,-81
32-26,16370082,-62
32-27,16373988,-9
32-28,16377894,35
32-29,16381800,30
32-30,16385706,-25
32-31,16389612,-91
32-32,16393518,-132
32-1,16397430,-140
32-2,16401336,-121
32-3,16405242,-100
32-4,16409148,-97
32-5,16413054,-100
32-6,16416960,-104
32-7,16420866,-103
32-8,16424772,-98
32-9,16428678,-104
32-10,16432584,-108
32-11,16436490,-99
32-12,16440396,-74
32-13,16444302,-53
32-14,16448208,-50
32-15,16452114,-58
32-16,16456020,-62
32-17,16459926,-57
32-18,16463832,-42
32-19,16467738,-23
32-20,16471644,-10
32-21,16475550,-7
32-22,16479456,-17
32-23,16483362,-24
32-24,16487268,-26
32-25,16491174,-38
32-26,16495080,-45
32-27,16498986,-38
32-28,16502892,-16
32-29,16506798,5
32-30,16510704,-13
32-31,16514610,-59
32-32,16518516,-88
32-1,16522794,-82
32-2,16526700,-52
32-3,16530606,-34
32-4,16534512,-39
32-5,16538418,-35
32-6,16542324,-28
32-7,16546230,-30
32-8,16550136,-30
32-9,16554042,-21
32-10,16557948,-2
32-11,16561854,4
32-12,16565760,-12
32-13,16569666,-29
32-14,16573572,-32
32-15,16577478,-21
32-16,16581384,-8
32-17,16585290,2
32-18,16589196,12
32-19,16593102,16
32-20,16597008,5
32-21,16600914,-12
32-22,16604820,-24
32-23,16608726,-21
32-24,16612632,-21
32-25,16616538,-44
32-26,16620444,-57
32-27,16624350,-45
32-28,16628256,-23
32-29,16632162,-11
32-30,16636068,-27
32-31,16639974,-56
32-32,16643880,-76
32-1,16647425,-81
32-2,16651331,-67
32-3,16655237,-45
32-4,16659143,-44
32-5,16663049,-48
32-6,16666955,-54
32-7,16670861,-50
32-8,16674767,-37
32-9,16678673,-35
32-10,16682579,-41
32-11,16686485,-39
32-12,16690391,-18
32-13,16694297,6
32-14,16698203,12
32-15,16702109,0
32-16,16706015,-16
32-17,16709921,-26
32-18,16713827,-27
32-19,16717733,-22
32-20,16721639,-16
32-21,16725545,-13
32-22,16729451,-13
32-23,16733357,-9
32-24,16737263,2
32-25,16741169,-1
32-26,16745075,1
32-27,16748981,30
32-28,16752887,81
32-29,16756793,123
32-30,16760699,109
32-31,16764605,48
32-32,16768511,-7
32-1,16772423,-24
32-2,16776329,-13
32-3,16780235,-7
32-4,16784141,-22
32-5,16788047,-25
32-6,16791953,-14
32-7,16795859,-7
32-8,16799765,-4
32-9,16803671,-5
32-10,16807577,-2
32-11,16811483,5
32-12,16815389,14
32-13,16819295,26
32-14,16823201,31
32-15,16827107,19
32-16,16831013,1
32-17,16834919,-6
32-18,16838825,6
32-19,16842731,17
32-20,16846637,11
32-21,16850543,0
32-22,16854449,-1
32-23,16858355,13
32-24,16862261,15
32-25,16866167,-13
32-26,16870073,-37
32-27,16873979,-34
32-28,16877885,-8
32-29,16881791,15
32-30,16885697,10
32-31,16889603,-24
32-32,16893509,-60
32-1,16897420,-79
32-2,16901326,-64
32-3,16905232,-30
32-4,16909138,-8
32-5,16913044,-1
32-6,16916950,-13
32-7,16920856,-30
32-8,16924762,-40
32-9,16928668,-42
32-10,16932574,-31
32-11,16936480,-4
32-12,16940386,16
32-13,16944292,11
32-14,16948198,-18
32-15,16952104,-46
32-16,16956010,-53
32-17,16959916,-40
32-18,16963822,-18
32-19,16967728,9
32-20,16971634,31
32-21,16975540,37
32-22,16979446,16
32-23,16983352,-7
32-24,16987258,-9
32-25,16991164,2
32-26,16995070,22
32-27,16998976,43
32-28,17002882,68
32-29,17006788,87
32-30,17010694,76
32-31,17014600,34
32-32,17018506,-16
32-1,17022418,-56
32-2,17026324,-80
32-3,17030230,-100
32-4,17034136,-114
32-5,17038042,-105
32-6,17041948,-93
32-7,17045854,-95
32-8,17049760,-99
32-9,17053666,-90
32-10,17057572,-65
32-11,17061478,-43
32-12,17065384,-37
32-13,17069290,-42
32-14,17073196,-49
32-15,17077102,-49
32-16,17081008,-46
32-17,17084914,-39
32-18,17088820,-35
32-19,17092726,-42
32-20,17096632,-55
32-21,17100538,-49
32-22,17104444,-21
32-23,17108350,8
32-24,17112256,5
32-25,17116162,-33
32-26,17120068,-56
32-27,17123974,-48
32-28,17127880,-33
32-29,17131786,-38
32-30,17135692,-64
32-31,17139598,-89
32-32,17143504,-95
32-1,17147416,-89
32-2,17151322,-74
32-3,17155228,-60
32-4,17159134,-60
32-5,17163040,-66
32-6,17166946,-72
32-7,17170852,-67
32-8,17174758,-55
32-9,17178664,-46
32-10,17182570,-38
32-11,17186476,-25
32-12,17190382,-2
32-13,17194288,16
32-14,17198194,16
32-15,17202100,8
32-16,17206006,1
32-17,17209912,-1
32-18,17213818,-4
32-19,17217724,-8
32-20,17221630,-3
32-21,17225536,3
32-22,17229442,-10
32-23,17233348,-25
32-24,17237254,-33
32-25,17241160,-39
32-26,17245066,-33
32-27,17248972,-23
32-28,17252878,-11
32-29,17256784,-4
32-30,17260690,-17
32-31,17264596,-42
32-32,17268502,-61
32-1,17272444,-68
32-2,17276350,-67
32-3,17280256,-71
32-4,17284162,-85
32-5,17288068,-82
32-6,17291974,-61
32-7,17295880,-29
32-8,17299786,9
32-9,17303692,38
32-10,17307598,47
32-11,17311504,22
32-12,17315410,-14
32-13,17319316,-31
32-14,17323222,-24
32-15,17327128,-10
32-16,17331034,-8
32-17,17334940,-12
32-18,17338846,-8
32-19,17342752,0
32-20,17346658,8
32-21,17350564,22
32-22,17354470,36
32-23,17358376,48
32-24,17362282,38
32-25,17366188,-1
32-26,17370094,-25
32-27,17374000,-19
32-28,17377906,-3
32-29,17381812,-5
32-30,17385718,-42
32-31,17389624,-96
32-32,17393530,-142
32-1,17397411,-164
32-2,17401317,-155
32-3,17405223,-126
32-4,17409129,-106
32-5,17413035,-91
32-6,17416941,-76
32-7,17420847,-60
32-8,17424753,-38
32-9,17428659,-26
32-10,17432565,-27
32-11,17436471,-37
32-12,17440377,-46
32-13,17444283,-52
32-14,17448189,-55
32-15,17452095,-50
32-16,17456001,-39
32-17,17459907,-33
32-18,17463813,-38
32-19,17467719,-42
32-20,17471625,-36
32-21,17475531,-25
32-22,17479437,-29
32-23,17483343,-39
32-24,17487249,-44
32-25,17491155,-54
32-26,17495061,-54
32-27,17498967,-40
32-28,17502873,-19
32-29,17506779,-9
32-30,17510685,-38
32-31,17514591,-86
32-32,17518497,-114
32-1,17522409,-111
32-2,17526315,-95
32-3,17530221,-91
32-4,17534127,-99
32-5,17538033,-90
32-6,17541939,-79
32-7,17545845,-86
32-8,17549751,-99
32-9,17553657,-104
32-10,17557563,-93
32-11,17561469,-82
32-12,17565375,-79
32-13,17569281,-73
32-14,17573187,-49
32-15,17577093,-15
32-16,17580999,15
32-17,17584905,34
32-18,17588811,41
32-19,17592717,30
32-20,17596623,3
32-21,17600529,-22
32-22,17604435,-27
32-23,17608341,-16
32-24,17612247,-14
32-25,17616153,-36
32-26,17620059,-49
32-27,17623965,-33
32-28,17627871,-4
32-29,17631777,10
32-30,17635683,-11
32-31,17639589,-50
32-32,17643495,-80
32-1,17647406,-83
32-2,17651312,-53
32-3,17655218,-15
32-4,17659124,-4
32-5,17663030,-17
32-6,17666936,-45
32-7,17670842,-62
32-8,17674748,-62
32-9,17678654,-56
32-10,17682560,-55
32-11,17686466,-59
32-12,17690372,-62
32-13,17694278,-69
32-14,17698184,-75
32-15,17702090,-72
32-16,17705996,-66
32-17,17709902,-74
32-18,17713808,-96
32-19,17717714,-107
32-20,17721620,-93
32-21,17725526,-60
32-22,17729432,-34
32-23,17733338,-22
32-24,17737244,-27
32-25,17741150,-53
32-26,17745056,-78
32-27,17748962,-86
32-28,17752868,-65
32-29,17756774,-33
32-30,17760680,-32
32-31,17764586,-74
32-32,17768492,-123
32-1,17772404,-145
32-2,17776310,-144
32-3,17780216,-137
32-4,17784122,-127
32-5,17788028,-102
32-6,17791934,-84
32-7,17795840,-88
32-8,17799746,-102
32-9,17803652,-101
32-10,17807558,-78
32-11,17811464,-54
32-12,17815370,-42
32-13,17819276,-42
32-14,17823182,-44
32-15,17827088,-49
32-16,17830994,-60
32-17,17834900,-69
32-18,17838806,-65
32-19,17842712,-56
32-20,17846618,-54
32-21,17850524,-60
32-22,17854430,-71
32-23,17858336,-84
32-24,17862242,-103
32-25,17866148,-124
32-26,17870054,-115
32-27,17873960,-79
32-28,17877866,-44
32-29,17881772,-32
32-30,17885678,-43
32-31,17889584,-52
32-32,17893490,-40
32-1,17897401,-18
32-2,17901307,2
32-3,17905213,14
32-4,17909119,11
32-5,17913025,5
32-6,17916931,-1
32-7,17920837,-9
32-8,17924743,-20
32-9,17928649,-36
32-10,17932555,-48
32-11,17936461,-46
32-12,17940367,-36
32-13,17944273,-34
32-14,17948179,-40
32-15,17952085,-44
32-16,17955991,-37
32-17,17959897,-30
32-18,17963803,-32
32-19,17967709,-42
32-20,17971615,-50
32-21,17975521,-51
32-22,17979427,-52
32-23,17983333,-45
32-24,17987239,-39
32-25,17991145,-46
32-26,17995051,-48
32-27,17998957,-29
32-28,18002863,9
32-29,18006769,37
32-30,18010675,24
32-31,18014581,-14
32-32,18018487,-30
32-1,18022399,-16
32-2,18026305,7
32-3,18030211,3
32-4,18034117,-30
32-5,18038023,-56
32-6,18041929,-68
32-7,18045835,-74
32-8,18049741,-69
32-9,18053647,-53
32-10,18057553,-30
32-11,18061459,-14
32-12,18065365,-8
32-13,18069271,-6
32-14,18073177,1
32-15,18077083,1
32-16,18080989,-9
32-17,18084895,-16
32-18,18088801,-9
32-19,18092707,4
32-20,18096613,11
32-21,18100519,18
32-22,18104425,23
32-23,18108331,28
32-24,18112237,17
32-25,18116143,-19
32-26,18120049,-33
32-27,18123955,-9
32-28,18127861,29
32-29,18131767,47
32-30,18135673,18
32-31,18139579,-35
32-32,18143485,-70
32-1,18147397,-70
32-2,18151303,-35
32-3,18155209,7
32-4,18159115,17
32-5,18163021,11
32-6,18166927,9
32-7,18170833,19
32-8,18174739,37
32-9,18178645,43
32-10,18182551,33
32-11,18186457,15
32-12,18190363,-3
32-13,18194269,-19
32-14,18198175,-28
32-15,18202081,-31
32-16,18205987,-32
32-17,18209893,-43
32-18,18213799,-57
32-19,18217705,-56
32-20,18221611,-38
32-21,18225517,-19
32-22,18229423,-18
32-23,18233329,-24
32-24,18237235,-27
32-25,18241141,-42
32-26,18245047,-62
32-27,18248953,-66
32-28,18252859,-42
32-29,18256765,-9
32-30,18260671,-15
32-31,18264577,-71
32-32,18268483,-124
32-1,18272394,-136
32-2,18276300,-113
32-3,18280206,-83
32-4,18284112,-69
32-5,18288018,-46
32-6,18291924,-18
32-7,18295830,-10
32-8,18299736,-26
32-9,18303642,-60
32-10,18307548,-87
32-11,18311454,-101
32-12,18315360,-98
32-13,18319266,-85
32-14,18323172,-75
32-15,18327078,-80
32-16,18330984,-101
32-17,18334890,-125
32-18,18338796,-136
32-19,18342702,-133
32-20,18346608,-125
32-21,18350514,-107
32-22,18354420,-82
32-23,18358326,-53
32-24,18362232,-36
32-25,18366138,-43
32-26,18370044,-55
32-27,18373950,-57
32-28,18377856,-52
32-29,18381762,-46
32-30,18385668,-50
32-31,18389574,-63
32-32,18393480,-82
32-1,18397392,-95
32-2,18401298,-90
32-3,18405204,-72
32-4,18409110,-64
32-5,18413016,-56
32-6,18416922,-40
32-7,18420828,-15
32-8,18424734,3
32-9,18428640,1
32-10,18432546,-15
32-11,18436452,-25
32-12,18440358,-27
32-13,18444264,-36
32-14,18448170,-51
32-15,18452076,-55
32-16,18455982,-36
32-17,18459888,-10
32-18,18463794,0
32-19,18467700,-7
32-20,18471606,-12
32-21,18475512,-5
32-22,18479418,4
32-23,18483324,14
32-24,18487230,19
32-25,18491136,11
32-26,18495042,1
32-27,18498948,-1
32-28,18502854,11
32-29,18506760,22
32-30,18510666,11
32-31,18514572,-25
32-32,18518478,-56
32-1,18522390,-67
32-2,18526296,-58
32-3,18530202,-43
32-4,18534108,-43
32-5,18538014,-42
32-6,18541920,-44
32-7,18545826,-50
32-8,18549732,-43
32-9,18553638,-21
32-10,18557544,2
32-11,18561450,8
32-12,18565356,-3
32-13,18569262,-15
32-14,18573168,-18
32-15,18577074,-18
32-16,18580980,-19
32-17,18584886,-13
32-18,18588792,0
32-19,18592698,12
32-20,18596604,16
32-21,18600510,16
32-22,18604416,15
32-23,18608322,12
32-24,18612228,-9
32-25,18616134,-43
32-26,18620040,-49
32-27,18623946,-19
32-28,18627852,25
32-29,18631758,45
32-30,18635664,22
32-31,18639570,-20
32-32,18643476,-50
32-1,18647387,-48
32-2,18651293,-18
32-3,18655199,10
32-4,18659105,11
32-5,18663011,-6
32-6,18666917,-23
32-7,18670823,-28
32-8,18674729,-26
32-9,18678635,-34
32-10,18682541,-49
32-11,18686447,-55
32-12,18690353,-42
32-13,18694259,-28
32-14,18698165,-23
32-15,18702071,-27
32-16,18705977,-32
32-17,18709883,-42
32-18,18713789,-59
32-19,18717695,-77
32-20,18721601,-84
32-21,18725507,-77
32-22,18729413,-65
32-23,18733319,-49
32-24,18737225,-40
32-25,18741131,-46
32-26,18745037,-47
32-27,18748943,-26
32-28,18752849,15
32-29,18756755,41
32-30,18760661,22
32-31,18764567,-28
32-32,18768473,-64
32-1,18772385,-65
32-2,18776291,-40
32-3,18780197,-14
32-4,18784103,3
32-5,18788009,24
32-6,18791915,35
32-7,18795821,22
32-8,18799727,0
32-9,18803633,-7
32-10,18807539,5
32-11,18811445,10
32-12,18815351,-3
32-13,18819257,-20
32-14,18823163,-26
32-15,18827069,-14
32-16,18830975,14
32-17,18834881,52
32-18,18838787,87
32-19,18842693,94
32-20,18846599,62
32-21,18850505,21
32-22,18854411,-8
32-23,18858317,-12
32-24,18862223,-14
32-25,18866129,-41
32-26,18870035,-55
32-27,18873941,-33
32-28,18877847,15
32-29,18881753,47
32-30,18885659,32
32-31,18889565,-21
32-32,18893471,-70
32-1,18897383,-92
32-2,18901289,-81
32-3,18905195,-55
32-4,18909101,-47
32-5,18913007,-43
32-6,18916913,-37
32-7,18920819,-29
32-8,18924725,-21
32-9,18928631,-19
32-10,18932537,-21
32-11,18936443,-21
32-12,18940349,-18
32-13,18944255,-21
32-14,18948161,-31
32-15,18952067,-38
32-16,18955973,-39
32-17,18959879,-43
32-18,18963785,-51
32-19,18967691,-45
32-20,18971597,-22
32-21,18975503,4
32-22,18979409,11
32-23,18983315,13
32-24,18987221,15
32-25,18991127,2
32-26,18995033,-11
32-27,18998939,2
32-28,19002845,46
32-29,19006751,91
32-30,19010657,85
32-31,19014563,24
32-32,19018469,-28
32-1,19022380,-28
32-2,19026286,12
32-3,19030192,45
32-4,19034098,42
32-5,19038004,31
32-6,19041910,25
32-7,19045816,13
32-8,19049722,0
32-9,19053628,-13
32-10,19057534,-24
32-11,19061440,-32
32-12,19065346,-36
32-13,19069252,-33
32-14,19073158,-22
32-15,19077064,-15
32-16,19080970,-11
32-17,19084876,-4
32-18,19088782,9
32-19,19092688,23
32-20,19096594,27
32-21,19100500,27
32-22,19104406,25
32-23,19108312,17
32-24,19112218,-17
32-25,19116124,-69
32-26,19120030,-102
32-27,19123936,-103
32-28,19127842,-83
32-29,19131748,-61
32-30,19135654,-56
32-31,19139560,-73
32-32,19143466,-102
32-1,19147378,-129
32-2,19151284,-128
32-3,19155190,-100
32-4,19159096,-71
32-5,19163002,-47
32-6,19166908,-34
32-7,19170814,-25
32-8,19174720,-17
32-9,19178626,-19
32-10,19182532,-31
32-11,19186438,-48
32-12,19190344,-64
32-13,19194250,-83
32-14,19198156,-92
32-15,19202062,-81
32-16,19205968,-56
32-17,19209874,-36
32-18,19213780,-38
32-19,19217686,-54
32-20,19221592,-68
32-21,19225498,-72
32-22,19229404,-71
32-23,19233310,-55
32-24,19237216,-41
32-25,19241122,-44
32-26,19245028,-41
32-27,19248934,-14
32-28,19252840,30
32-29,19256746,59
32-30,19260652,36
32-31,19264558,-20
32-32,19268464,-58
32-1,19272375,-59
32-2,19276281,-38
32-3,19280187,-23
32-4,19284093,-19
32-5,19287999,-1
32-6,19291905,10
32-7,19295811,-8
32-8,19299717,-34
32-9,19303623,-44
32-10,19307529,-33
32-11,19311435,-22
32-12,19315341,-25
32-13,19319247,-34
32-14,19323153,-41
32-15,19327059,-43
32-16,19330965,-42
32-17,19334871,-30
32-18,19338777,-9
32-19,19342683,3
32-20,19346589,-7
32-21,19350495,-31
32-22,19354401,-51
32-23,19358307,-47
32-24,19362213,-29
32-25,19366119,-8
32-26,19370025,26
32-27,19373931,64
32-28,19377837,82
32-29,19381743,75
32-30,19385649,46
32-31,19389555,9
32-32,19393461,-26
32-1,19397373,-51
32-2,19401279,-52
32-3,19405185,-37
32-4,19409091,-33
32-5,19412997,-39
32-6,19416903,-50
32-7,19420809,-50
32-8,19424715,-38
32-9,19428621,-28
32-10,19432527,-23
32-11,19436433,-17
32-12,19440339,-8
32-13,19444245,-12
32-14,19448151,-36
32-15,19452057,-60
32-16,19455963,-63
32-17,19459869,-47
32-18,19463775,-34
32-19,19467681,-30
32-20,19471587,-32
32-21,19475493,-36
32-22,19479399,-37
32-23,19483305,-24
32-24,19487211,-7
32-25,19491117,-3
32-26,19495023,-3
32-27,19498929,13
32-28,19502835,48
32-29,19506741,74
32-30,19510647,59
32-31,19514553,10
32-32,19518459,-26
32-1,19522523,-23
32-2,19526429,0
32-3,19530335,9
32-4,19534241,-2
32-5,19538147,-2
32-6,19542053,2
32-7,19545959,-8
32-8,19549865,-38
32-9,19553771,-71
32-10,19557677,-79
32-11,19561583,-69
32-12,19565489,-45
32-13,19569395,-23
32-14,19573301,-13
32-15,19577207,-23
32-16,19581113,-43
32-17,19585019,-51
32-18,19588925,-36
32-19,19592831,-12
32-20,19596737,2
32-21,19600643,11
32-22,19604549,20
32-23,19608455,39
32-24,19612361,48
32-25,19616267,36
32-26,19620173,38
32-27,19624079,62
32-28,19627985,82
32-29,19631891,67
32-30,19635797,14
32-31,19639703,-50
32-32,19643609,-89
32-1,19647368,-88
32-2,19651274,-57
32-3,19655180,-25
32-4,19659086,-19
32-5,19662992,-27
32-6,19666898,-43
32-7,19670804,-59
32-8,19674710,-65
32-9,19678616,-71
32-10,19682522,-76
32-11,19686428,-72
32-12,19690334,-56
32-13,19694240,-45
32-14,19698146,-42
32-15,19702052,-36
32-16,19705958,-24
32-17,19709864,-13
32-18,19713770,-10
32-19,19717676,-9
32-20,19721582,-8
32-21,19725488,-14
32-22,19729394,-25
32-23,19733300,-27
32-24,19737206,-15
32-25,19741112,-12
32-26,19745018,-9
32-27,19748924,7
32-28,19752830,40
32-29,19756736,71
32-30,19760642,56
32-31,19764548,-1
32-32,19768454,-51
32-1,19772366,-67
32-2,19776272,-58
32-3,19780178,-51
32-4,19784084,-61
32-5,19787990,-62
32-6,19791896,-56
32-7,19795802,-56
32-8,19799708,-53
32-9,19803614,-44
32-10,19807520,-33
32-11,19811426,-25
32-12,19815332,-19
32-13,19819238,-5
32-14,19823144,16
32-15,19827050,18
32-16,19830956,-6
32-17,19834862,-35
32-18,19838768,-46
32-19,19842674,-35
32-20,19846580,-22
32-21,19850486,-15
32-22,19854392,-14
32-23,19858298,-7
32-24,19862204,6
32-25,19866110,21
32-26,19870016,47
32-27,19873922,72
32-28,19877828,80
32-29,19881734,66
32-30,19885640,39
32-31,19889546,9
32-32,19893452,-17
32-1,19897364,-34
32-2,19901270,-35
32-3,19905176,-35
32-4,19909082,-50
32-5,19912988,-65
32-6,19916894,-69
32-7,19920800,-55
32-8,19924706,-36
32-9,19928612,-26
32-10,19932518,-27
32-11,19936424,-31
32-12,19940330,-27
32-13,19944236,-23
32-14,19948142,-21
32-15,19952048,-17
32-16,19955954,-21
32-17,19959860,-39
32-18,19963766,-63
32-19,19967672,-67
32-20,19971578,-42
32-21,19975484,-7
32-22,19979390,9
32-23,19983296,15
32-24,19987202,18
32-25,19991108,10
32-26,19995014,4
32-27,19998920,1
32-28,20002826,4
32-29,20006732,3
32-30,20010638,-21
32-31,20014544,-54
32-32,20018450,-66
32-1,20022361,-54
32-2,20026267,-37
32-3,20030173,-42
32-4,20034079,-64
32-5,20037985,-68
32-6,20041891,-59
32-7,20045797,-59
32-8,20049703,-72
32-9,20053609,-93
32-10,20057515,-113
32-11,20061421,-129
32-12,20065327,-127
32-13,20069233,-106
32-14,20073139,-77
32-15,20077045,-58
32-16,20080951,-54
32-17,20084857,-59
32-18,20088763,-74
32-19,20092669,-99
32-20,20096575,-129
32-21,20100481,-145
32-22,20104387,-137
32-23,20108293,-119
32-24,20112199,-119
32-25,20116105,-135
32-26,20120011,-125
32-27,20123917,-81
32-28,20127823,-30
32-29,20131729,-12
32-30,20135635,-35
32-31,20139541,-77
32-32,20143447,-98
32-1,20147389,-86
32-2,20151295,-47
32-3,20155201,-13
32-4,20159107,-9
32-5,20163013,-25
32-6,20166919,-41
32-7,20170825,-45
32-8,20174731,-39
32-9,20178637,-40
32-10,20182543,-46
32-11,20186449,-48
32-12,20190355,-51
32-13,20194261,-61
32-14,20198167,-80
32-15,20202073,-93
32-16,20205979,-94
32-17,20209885,-97
32-18,20213791,-110
32-19,20217697,-115
32-20,20221603,-104
32-21,20225509,-85
32-22,20229415,-83
32-23,20233321,-91
32-24,20237227,-97
32-25,20241133,-102
32-26,20245039,-92
32-27,20248945,-69
32-28,20252851,-36
32-29,20256757,-15
32-30,20260663,-23
32-31,20264569,-51
32-32,20268475,-63
32-1,20272418,-47
32-2,20276324,-18
32-3,20280230,-11
32-4,20284136,-42
32-5,20288042,-72
32-6,20291948,-83
32-7,20295854,-71
32-8,20299760,-39
32-9,20303666,-1
32-10,20307572,21
32-11,20311478,12
32-12,20315384,-10
32-13,20319290,-30
32-14,20323196,-43
32-15,20327102,-56
32-16,20331008,-68
32-17,20334914,-60
32-18,20338820,-37
32-19,20342726,-17
32-20,20346632,-16
32-21,20350538,-23
32-22,20354444,-20
32-23,20358350,-3
32-24,20362256,1
32-25,20366162,-28
32-26,20370068,-44
32-27,20373974,-25
32-28,20377880,19
32-29,20381786,54
32-30,20385692,45
32-31,20389598,-1
32-32,20393504,-44
32-1,20397354,-55
32-2,20401260,-28
32-3,20405166,8
32-4,20409072,15
32-5,20412978,7
32-6,20416884,7
32-7,20420790,16
32-8,20424696,23
32-9,20428602,7
32-10,20432508,-22
32-11,20436414,-42
32-12,20440320,-40
32-13,20444226,-34
32-14,20448132,-33
32-15,20452038,-36
32-16,20455944,-40
32-17,20459850,-45
32-18,20463756,-52
32-19,20467662,-53
32-20,20471568,-44
32-21,20475474,-31
32-22,20479380,-23
32-23,20483286,-8
32-24,20487192,3
32-25,20491098,-16
32-26,20495004,-44
32-27,20498910,-47
32-28,20502816,-12
32-29,20506722,31
32-30,20510628,27
32-31,20514534,-21
32-32,20518440,-62
32-1,20522352,-60
32-2,20526258,-21
32-3,20530164,13
32-4,20534070,8
32-5,20537976,-3
32-6,20541882,-19
32-7,20545788,-44
32-8,20549694,-56
32-9,20553600,-45
32-10,20557506,-16
32-11,20561412,1
32-12,20565318,-6
32-13,20569224,-25
32-14,20573130,-44
32-15,20577036,-57
32-16,20580942,-60
32-17,20584848,-48
32-18,20588754,-28
32-19,20592660,-22
32-20,20596566,-40
32-21,20600472,-63
32-22,20604378,-72
32-23,20608284,-57
32-24,20612190,-48
32-25,20616096,-62
32-26,20620002,-67
32-27,20623908,-51
32-28,20627814,-26
32-29,20631720,-16
32-30,20635626,-36
32-31,20639532,-68
32-32,20643438,-90
32-1,20647349,-90
32-2,20651255,-74
32-3,20655161,-59
32-4,20659067,-62
32-5,20662973,-71
32-6,20666879,-78
32-7,20670785,-84
32-8,20674691,-86
32-9,20678597,-82
32-10,20682503,-70
32-11,20686409,-45
32-12,20690315,-14
32-13,20694221,1
32-14,20698127,0
32-15,20702033,-2
32-16,20705939,-2
32-17,20709845,-6
32-18,20713751,-19
32-19,20717657,-29
32-20,20721563,-20
32-21,20725469,-2
32-22,20729375,10
32-23,20733281,12
32-24,20737187,3
32-25,20741093,-15
32-26,20744999,-16
32-27,20748905,4
32-28,20752811,30
32-29,20756717,34
32-30,20760623,-6
32-31,20764529,-65
32-32,20768435,-100
32-1,20772439,-97
32-2,20776345,-74
32-3,20780251,-52
32-4,20784157,-36
32-5,20788063,-6
32-6,20791969,15
32-7,20795875,7
32-8,20799781,-13
32-9,20803687,-25
32-10,20807593,-26
32-11,20811499,-29
32-12,20815405,-34
32-13,20819311,-37
32-14,20823217,-40
32-15,20827123,-57
32-16,20831029,-81
32-17,20834935,-91
32-18,20838841,-71
32-19,20842747,-38
32-20,20846653,-14
32-21,20850559,-3
32-22,20854465,3
32-23,20858371,9
32-24,20862277,-13
32-25,20866183,-63
32-26,20870089,-96
32-27,20873995,-97
32-28,20877901,-81
32-29,20881807,-71
32-30,20885713,-89
32-31,20889619,-122
32-32,20893525,-142
32-1,20897345,-146
32-2,20901251,-127
32-3,20905157,-102
32-4,20909063,-84
32-5,20912969,-64
32-6,20916875,-45
32-7,20920781,-26
32-8,20924687,-12
32-9,20928593,-15
32-10,20932499,-22
32-11,20936405,-17
32-12,20940311,2
32-13,20944217,17
32-14,20948123,23
32-15,20952029,21
32-16,20955935,18
32-17,20959841,13
32-18,20963747,8
32-19,20967653,6
32-20,20971559,9
32-21,20975465,8
32-22,20979371,-4
32-23,20983277,-15
32-24,20987183,-21
32-25,20991089,-28
32-26,20994995,-27
32-27,20998901,-11
32-28,21002807,26
32-29,21006713,61
32-30,21010619,66
32-31,21014525,41
32-32,21018431,17
32-1,21022434,1
32-2,21026340,-13
32-3,21030246,-44
32-4,21034152,-78
32-5,21038058,-86
32-6,21041964,-78
32-7,21045870,-72
32-8,21049776,-71
32-9,21053682,-67
32-10,21057588,-54
32-11,21061494,-40
32-12,21065400,-29
32-13,21069306,-18
32-14,21073212,-11
32-15,21077118,-17
32-16,21081024,-34
32-17,21084930,-48
32-18,21088836,-42
32-19,21092742,-20
32-20,21096648,3
32-21,21100554,28
32-22,21104460,45
32-23,21108366,53
32-24,21112272,45
32-25,21116178,21
32-26,21120084,24
32-27,21123990,62
32-28,21127896,97
32-29,21131802,105
32-30,21135708,77
32-31,21139614,37
32-32,21143520,13
32-1,21147340,5
32-2,21151246,11
32-3,21155152,17
32-4,21159058,0
32-5,21162964,-19
32-6,21166870,-32
32-7,21170776,-40
32-8,21174682,-43
32-9,21178588,-49
32-10,21182494,-48
32-11,21186400,-31
32-12,21190306,-1
32-13,21194212,22
32-14,21198118,28
32-15,21202024,23
32-16,21205930,13
32-17,21209836,-1
32-18,21213742,-16
32-19,21217648,-18
32-20,21221554,0
32-21,21225460,20
32-22,21229366,19
32-23,21233272,5
32-24,21237178,-7
32-25,21241084,-26
32-26,21244990,-28
32-27,21248896,0
32-28,21252802,47
32-29,21256708,77
32-30,21260614,47
32-31,21264520,-21
32-32,21268426,-67
32-1,21272338,-67
32-2,21276244,-45
32-3,21280150,-32
32-4,21284056,-44
32-5,21287962,-43
32-6,21291868,-29
32-7,21295774,-28
32-8,21299680,-43
32-9,21303586,-68
32-10,21307492,-92
32-11,21311398,-111
32-12,21315304,-118
32-13,21319210,-101
32-14,21323116,-67
32-15,21327022,-41
32-16,21330928,-36
32-17,21334834,-43
32-18,21338740,-43
32-19,21342646,-37
32-20,21346552,-36
32-21,21350458,-40
32-22,21354364,-50
32-23,21358270,-58
32-24,21362176,-75
32-25,21366082,-100
32-26,21369988,-96
32-27,21373894,-55
32-28,21377800,-7
32-29,21381706,17
32-30,21385612,1
32-31,21389518,-40
32-32,21393424,-77
32-1,21397488,-90
32-2,21401394,-67
32-3,21405300,-25
32-4,21409206,-2
32-5,21413112,-4
32-6,21417018,-23
32-7,21420924,-42
32-8,21424830,-46
32-9,21428736,-34
32-10,21432642,-17
32-11,21436548,-8
32-12,21440454,-14
32-13,21444360,-36
32-14,21448266,-65
32-15,21452172,-82
32-16,21456078,-84
32-17,21459984,-88
32-18,21463890,-103
32-19,21467796,-116
32-20,21471702,-107
32-21,21475608,-81
32-22,21479514,-63
32-23,21483420,-53
32-24,21487326,-43
32-25,21491232,-32
32-26,21495138,-1
32-27,21499044,47
32-28,21502950,92
32-29,21506856,108
32-30,21510762,76
32-31,21514668,17
32-32,21518574,-31
32-1,21522333,-58
32-2,21526239,-70
32-3,21530145,-81
32-4,21534051,-92
32-5,21537957,-77
32-6,21541863,-46
32-7,21545769,-16
32-8,21549675,11
32-9,21553581,35
32-10,21557487,46
32-11,21561393,30
32-12,21565299,-3
32-13,21569205,-35
32-14,21573111,-59
32-15,21577017,-76
32-16,21580923,-85
32-17,21584829,-77
32-18,21588735,-54
32-19,21592641,-31
32-20,21596547,-25
32-21,21600453,-32
32-22,21604359,-46
32-23,21608265,-61
32-24,21612171,-79
32-25,21616077,-93
32-26,21619983,-73
32-27,21623889,-24
32-28,21627795,25
32-29,21631701,51
32-30,21635607,41
32-31,21639513,10
32-32,21643419,-28
32-1,21647330,-56
32-2,21651236,-56
32-3,21655142,-36
32-4,21659048,-22
32-5,21662954,-20
32-6,21666860,-32
32-7,21670766,-42
32-8,21674672,-39
32-9,21678578,-33
32-10,21682484,-22
32-11,21686390,-8
32-12,21690296,8
32-13,21694202,14
32-14,21698108,0
32-15,21702014,-22
32-16,21705920,-40
32-17,21709826,-48
32-18,21713732,-47
32-19,21717638,-39
32-20,21721544,-29
32-21,21725450,-23
32-22,21729356,-23
32-23,21733262,-10
32-24,21737168,5
32-25,21741074,1
32-26,21744980,-16
32-27,21748886,-30
32-28,21752792,-30
32-29,21756698,-26
32-30,21760604,-45
32-31,21764510,-78
32-32,21768416,-95
32-1,21772450,-86
32-2,21776356,-62
32-3,21780262,-49
32-4,21784168,-46
32-5,21788074,-28
32-6,21791980,-7
32-7,21795886,1
32-8,21799792,3
32-9,21803698,8
32-10,21807604,20
32-11,21811510,33
32-12,21815416,52
32-13,21819322,74
32-14,21823228,88
32-15,21827134,73
32-16,21831040,37
32-17,21834946,9
32-18,21838852,10
32-19,21842758,27
32-20,21846664,44
32-21,21850570,51
32-22,21854476,45
32-23,21858382,35
32-24,21862288,18
32-25,21866194,-14
32-26,21870100,-26
32-27,21874006,-8
32-28,21877912,23
32-29,21881818,47
32-30,21885724,38
32-31,21889630,3
32-32,21893536,-43
32-1,21897326,-80
32-2,21901232,-92
32-3,21905138,-88
32-4,21909044,-100
32-5,21912950,-114
32-6,21916856,-116
32-7,21920762,-98
32-8,21924668,-66
32-9,21928574,-48
32-10,21932480,-49
32-11,21936386,-54
32-12,21940292,-51
32-13,21944198,-41
32-14,21948104,-24
32-15,21952010,-5
32-16,21955916,3
32-17,21959822,-13
32-18,21963728,-42
32-19,21967634,-62
32-20,21971540,-58
32-21,21975446,-46
32-22,21979352,-51
32-23,21983258,-63
32-24,21987164,-66
32-25,21991070,-70
32-26,21994976,-63
32-27,21998882,-44
32-28,22002788,-12
32-29,22006694,20
32-30,22010600,22
32-31,22014506,-2
32-32,22018412,-17
32-1,22022476,-11
32-2,22026382,4
32-3,22030288,12
32-4,22034194,2
32-5,22038100,7
32-6,22042006,23
32-7,22045912,30
32-8,22049818,28
32-9,22053724,24
32-10,22057630,28
32-11,22061536,36
32-12,22065442,47
32-13,22069348,57
32-14,22073254,55
32-15,22077160,30
32-16,22081066,-8
32-17,22084972,-41
32-18,22088878,-54
32-19,22092784,-59
32-20,22096690,-71
32-21,22100596,-71
32-22,22104502,-55
32-23,22108408,-33
32-24,22112314,-27
32-25,22116220,-45
32-26,22120126,-54
32-27,22124032,-37
32-28,22127938,-9
32-29,22131844,6
32-30,22135750,-6
32-31,22139656,-28
32-32,22143562,-38
32-1,22147321,-31
32-2,22151227,-11
32-3,22155133,5
32-4,22159039,-1
32-5,22162945,-13
32-6,22166851,-18
32-7,22170757,-13
32-8,22174663,-6
32-9,22178569,-17
32-10,22182475,-31
32-11,22186381,-29
32-12,22190287,-10
32-13,22194193,9
32-14,22198099,14
32-15,22202005,5
32-16,22205911,-7
32-17,22209817,-20
32-18,22213723,-35
32-19,22217629,-46
32-20,22221535,-49
32-21,22225441,-46
32-22,22229347,-42
32-23,22233253,-31
32-24,22237159,-22
32-25,22241065,-30
32-26,22244971,-39
32-27,22248877,-38
32-28,22252783,-17
32-29,22256689,0
32-30,22260595,-20
32-31,22264501,-64
32-32,22268407,-99
32-1,22272319,-109
32-2,22276225,-97
32-3,22280131,-87
32-4,22284037,-87
32-5,22287943,-82
32-6,22291849,-81
32-7,22295755,-86
32-8,22299661,-90
32-9,22303567,-85
32-10,22307473,-76
32-11,22311379,-65
32-12,22315285,-44
32-13,22319191,1
32-14,22323097,50
32-15,22327003,72
32-16,22330909,60
32-17,22334815,43
32-18,22338721,39
32-19,22342627,45
32-20,22346533,48
32-21,22350439,47
32-22,22354345,41
32-23,22358251,34
32-24,22362157,18
32-25,22366063,-2
32-26,22369969,5
32-27,22373875,41
32-28,22377781,78
32-29,22381687,85
32-30,22385593,52
32-31,22389499,-5
32-32,22393405,-58
32-1,22397316,-87
32-2,22401222,-84
32-3,22405128,-64
32-4,22409034,-53
32-5,22412940,-48
32-6,22416846,-48
32-7,22420752,-49
32-8,22424658,-52
32-9,22428564,-57
32-10,22432470,-55
32-11,22436376,-44
32-12,22440282,-34
32-13,22444188,-40
32-14,22448094,-52
32-15,22452000,-48
32-16,22455906,-28
32-17,22459812,-3
32-18,22463718,9
32-19,22467624,8
32-20,22471530,-2
32-21,22475436,-21
32-22,22479342,-43
32-23,22483248,-51
32-24,22487154,-46
32-25,22491060,-42
32-26,22494966,-36
32-27,22498872,-16
32-28,22502778,15
32-29,22506684,33
32-30,22510590,10
32-31,22514496,-36
32-32,22518402,-65
32-1,22522436,-70
32-2,22526342,-67
32-3,22530248,-76
32-4,22534154,-92
32-5,22538060,-86
32-6,22541966,-67
32-7,22545872,-58
32-8,22549778,-61
32-9,22553684,-66
32-10,22557590,-72
32-11,22561496,-86
32-12,22565402,-98
32-13,22569308,-96
32-14,22573214,-89
32-15,22577120,-90
32-16,22581026,-103
32-17,22584932,-113
32-18,22588838,-115
32-19,22592744,-112
32-20,22596650,-116
32-21,22600556,-115
32-22,22604462,-107
32-23,22608368,-91
32-24,22612274,-88
32-25,22616180,-110
32-26,22620086,-116
32-27,22623992,-84
32-28,22627898,-33
32-29,22631804,11
32-30,22635710,18
32-31,22639616,-13
32-32,22643522,-53
32-1,22647312,-78
32-2,22651218,-72
32-3,22655124,-61
32-4,22659030,-76
32-5,22662936,-102
32-6,22666842,-115
32-7,22670748,-104
32-8,22674654,-78
32-9,22678560,-61
32-10,22682466,-54
32-11,22686372,-48
32-12,22690278,-37
32-13,22694184,-33
32-14,22698090,-41
32-15,22701996,-42
32-16,22705902,-35
32-17,22709808,-31
32-18,22713714,-38
32-19,22717620,-49
32-20,22721526,-47
32-21,22725432,-30
32-22,22729338,-21
32-23,22733244,-9
32-24,22737150,-2
32-25,22741056,-26
32-26,22744962,-58
32-27,22748868,-69
32-28,22752774,-38
32-29,22756680,17
32-30,22760586,45
32-31,22764492,31
32-32,22768398,12
32-1,22772309,11
32-2,22776215,26
32-3,22780121,35
32-4,22784027,25
32-5,22787933,30
32-6,22791839,52
32-7,22795745,58
32-8,22799651,38
32-9,22803557,7
32-10,22807463,-18
32-11,22811369,-29
32-12,22815275,-25
32-13,22819181,-20
32-14,22823087,-19
32-15,22826993,-26
32-16,22830899,-29
32-17,22834805,-21
32-18,22838711,-11
32-19,22842617,-17
32-20,22846523,-30
32-21,22850429,-30
32-22,22854335,-17
32-23,22858241,-7
32-24,22862147,-27
32-25,22866053,-71
32-26,22869959,-90
32-27,22873865,-68
32-28,22877771,-32
32-29,22881677,-9
32-30,22885583,-14
32-31,22889489,-37
32-32,22893395,-58
32-1,22897307,-67
32-2,22901213,-57
32-3,22905119,-34
32-4,22909025,-23
32-5,22912931,-15
32-6,22916837,-15
32-7,22920743,-23
32-8,22924649,-36
32-9,22928555,-50
32-10,22932461,-42
32-11,22936367,-5
32-12,22940273,44
32-13,22944179,69
32-14,22948085,65
32-15,22951991,50
32-16,22955897,43
32-17,22959803,45
32-18,22963709,48
32-19,22967615,54
32-20,22971521,56
32-21,22975427,52
32-22,22979333,35
32-23,22983239,18
32-24,22987145,3
32-25,22991051,-20
32-26,22994957,-29
32-27,22998863,-10
32-28,23002769,26
32-29,23006675,45
32-30,23010581,17
32-31,23014487,-35
32-32,23018393,-57
32-1,23022304,-40
32-2,23026210,-23
32-3,23030116,-33
32-4,23034022,-62
32-5,23037928,-66
32-6,23041834,-57
32-7,23045740,-60
32-8,23049646,-77
32-9,23053552,-90
32-10,23057458,-92
32-11,23061364,-82
32-12,23065270,-69
32-13,23069176,-49
32-14,23073082,-30
32-15,23076988,-29
32-16,23080894,-54
32-17,23084800,-81
32-18,23088706,-91
32-19,23092612,-81
32-20,23096518,-67
32-21,23100424,-53
32-22,23104330,-42
32-23,23108236,-30
32-24,23112142,-33
32-25,23116048,-59
32-26,23119954,-74
32-27,23123860,-67
32-28,23127766,-50
32-29,23131672,-43
32-30,23135578,-67
32-31,23139484,-109
32-32,23143390,-142
32-1,23147302,-156
32-2,23151208,-143
32-3,23155114,-123
32-4,23159020,-116
32-5,23162926,-111
32-6,23166832,-100
32-7,23170738,-77
32-8,23174644,-50
32-9,23178550,-36
32-10,23182456,-34
32-11,23186362,-38
32-12,23190268,-44
32-13,23194174,-53
32-14,23198080,-57
32-15,23201986,-49
32-16,23205892,-33
32-17,23209798,-26
32-18,23213704,-38
32-19,23217610,-55
32-20,23221516,-66
32-21,23225422,-65
32-22,23229328,-60
32-23,23233234,-47
32-24,23237140,-30
32-25,23241046,-26
32-26,23244952,-23
32-27,23248858,-3
32-28,23252764,30
32-29,23256670,50
32-30,23260576,26
32-31,23264482,-25
32-32,23268388,-56
32-1,23272605,-54
32-2,23276511,-34
32-3,23280417,-30
32-4,23284323,-48
32-5,23288229,-57
32-6,23292135,-51
32-7,23296041,-41
32-8,23299947,-30
32-9,23303853,-23
32-10,23307759,-19
32-11,23311665,-15
32-12,23315571,-9
32-13,23319477,3
32-14,23323383,15
32-15,23327289,20
32-16,23331195,20
32-17,23335101,29
32-18,23339007,40
32-19,23342913,42
32-20,23346819,26
32-21,23350725,2
32-22,23354631,-23
32-23,23358537,-39
32-24,23362443,-58
32-25,23366349,-76
32-26,23370255,-72
32-27,23374161,-49
32-28,23378067,-28
32-29,23381973,-23
32-30,23385879,-44
32-31,23389785,-81
32-32,23393691,-110
32-1,23397297,-117
32-2,23401203,-94
32-3,23405109,-59
32-4,23409015,-48
32-5,23412921,-49
32-6,23416827,-56
32-7,23420733,-57
32-8,23424639,-45
32-9,23428545,-35
32-10,23432451,-26
32-11,23436357,-17
32-12,23440263,-9
32-13,23444169,-7
32-14,23448075,-5
32-15,23451981,1
32-16,23455887,12
32-17,23459793,16
32-18,23463699,8
32-19,23467605,0
32-20,23471511,3
32-21,23475417,14
32-22,23479323,22
32-23,23483229,27
32-24,23487135,22
32-25,23491041,-9
32-26,23494947,-33
32-27,23498853,-18
32-28,23502759,35
32-29,23506665,80
32-30,23510571,66
32-31,23514477,-1
32-32,23518383,-59
32-1,23522295,-76
32-2,23526201,-62
32-3,23530107,-40
32-4,23534013,-28
32-5,23537919,-10
32-6,23541825,6
32-7,23545731,1
32-8,23549637,-8
32-9,23553543,-7
32-10,23557449,-4
32-11,23561355,-11
32-12,23565261,-23
32-13,23569167,-29
32-14,23573073,-28
32-15,23576979,-37
32-16,23580885,-63
32-17,23584791,-83
32-18,23588697,-82
32-19,23592603,-64
32-20,23596509,-51
32-21,23600415,-51
32-22,23604321,-57
32-23,23608227,-53
32-24,23612133,-43
32-25,23616039,-40
32-26,23619945,-34
32-27,23623851,-30
32-28,23627757,-35
32-29,23631663,-47
32-30,23635569,-63
32-31,23639475,-78
32-32,23643381,-94
32-1,23647293,-108
32-2,23651199,-102
32-3,23655105,-82
32-4,23659011,-65
32-5,23662917,-49
32-6,23666823,-38
32-7,23670729,-32
32-8,23674635,-33
32-9,23678541,-46
32-10,23682447,-53
32-11,23686353,-41
32-12,23690259,-16
32-13,23694165,-9
32-14,23698071,-29
32-15,23701977,-63
32-16,23705883,-87
32-17,23709789,-93
32-18,23713695,-84
32-19,23717601,-59
32-20,23721507,-26
32-21,23725413,3
32-22,23729319,21
32-23,23733225,27
32-24,23737131,23
32-25,23741037,9
32-26,23744943,9
32-27,23748849,30
32-28,23752755,64
32-29,23756661,75
32-30,23760567,37
32-31,23764473,-31
32-32,23768379,-71
32-1,23772290,-65
32-2,23776196,-30
32-3,23780102,-5
32-4,23784008,-6
32-5,23787914,-14
32-6,23791820,-28
32-7,23795726,-44
32-8,23799632,-49
32-9,23803538,-38
32-10,23807444,-25
32-11,23811350,-24
32-12,23815256,-32
32-13,23819162,-34
32-14,23823068,-26
32-15,23826974,-14
32-16,23830880,-7
32-17,23834786,-3
32-18,23838692,2
32-19,23842598,-4
32-20,23846504,-22
32-21,23850410,-39
32-22,23854316,-42
32-23,23858222,-31
32-24,23862128,-28
32-25,23866034,-48
32-26,23869940,-63
32-27,23873846,-59
32-28,23877752,-40
32-29,23881658,-22
32-30,23885564,-27
32-31,23889470,-52
32-32,23893376,-70
32-1,23897288,-66
32-2,23901194,-35
32-3,23905100,2
32-4,23909006,12
32-5,23912912,1
32-6,23916818,-25
32-7,23920724,-40
32-8,23924630,-38
32-9,23928536,-35
32-10,23932442,-39
32-11,23936348,-55
32-12,23940254,-77
32-13,23944160,-94
32-14,23948066,-89
32-15,23951972,-57
32-16,23955878,-18
32-17,23959784,2
32-18,23963690,-2
32-19,23967596,-20
32-20,23971502,-29
32-21,23975408,-22
32-22,23979314,-14
32-23,23983220,-15
32-24,23987126,-33
32-25,23991032,-65
32-26,23994938,-77
32-27,23998844,-63
32-28,24002750,-37
32-29,24006656,-31
32-30,24010562,-64
32-31,24014468,-110
32-32,24018374,-123
32-1,24022469,-101
32-2,24026375,-67
32-3,24030281,-53
32-4,24034187,-65
32-5,24038093,-75
32-6,24041999,-79
32-7,24045905,-79
32-8,24049811,-69
32-9,24053717,-56
32-10,24057623,-57
32-11,24061529,-76
32-12,24065435,-97
32-13,24069341,-101
32-14,24073247,-88
32-15,24077153,-71
32-16,24081059,-63
32-17,24084965,-57
32-18,24088871,-49
32-19,24092777,-41
32-20,24096683,-39
32-21,24100589,-41
32-22,24104495,-35
32-23,24108401,-18
32-24,24112307,-13
32-25,24116213,-36
32-26,24120119,-52
32-27,24124025,-30
32-28,24127931,14
32-29,24131837,42
32-30,24135743,23
32-31,24139649,-29
32-32,24143555,-69
32-1,24147283,-74
32-2,24151189,-54
32-3,24155095,-33
32-4,24159001,-35
32-5,24162907,-42
32-6,24166813,-46
32-7,24170719,-54
32-8,24174625,-72
32-9,24178531,-93
32-10,24182437,-107
32-11,24186343,-110
32-12,24190249,-113
32-13,24194155,-125
32-14,24198061,-139
32-15,24201967,-139
32-16,24205873,-115
32-17,24209779,-80
32-18,24213685,-57
32-19,24217591,-54
32-20,24221497,-69
32-21,24225403,-89
32-22,24229309,-109
32-23,24233215,-112
32-24,24237121,-104
32-25,24241027,-107
32-26,24244933,-106
32-27,24248839,-86
32-28,24252745,-52
32-29,24256651,-30
32-30,24260557,-43
32-31,24264463,-83
32-32,24268369,-116
32-1,24272281,-123
32-2,24276187,-113
32-3,24280093,-106
32-4,24283999,-119
32-5,24287905,-126
32-6,24291811,-119
32-7,24295717,-105
32-8,24299623,-83
32-9,24303529,-67
32-10,24307435,-63
32-11,24311341,-68
32-12,24315247,-70
32-13,24319153,-58
32-14,24323059,-42
32-15,24326965,-43
32-16,24330871,-65
32-17,24334777,-94
32-18,24338683,-111
32-19,24342589,-112
32-20,24346495,-108
32-21,24350401,-105
32-22,24354307,-114
32-23,24358213,-124
32-24,24362119,-144
32-25,24366025,-174
32-26,24369931,-185
32-27,24373837,-168
32-28,24377743,-139
32-29,24381649,-127
32-30,24385555,-153
32-31,24389461,-201
32-32,24393367,-241
32-1,24397278,-256
32-2,24401184,-241
32-3,24405090,-216
32-4,24408996,-206
32-5,24412902,-202
32-6,24416808,-199
32-7,24420714,-193
32-8,24424620,-179
32-9,24428526,-163
32-10,24432432,-155
32-11,24436338,-157
32-12,24440244,-163
32-13,24444150,-162
32-14,24448056,-152
32-15,24451962,-140
32-16,24455868,-140
32-17,24459774,-157
32-18,24463680,-184
32-19,24467586,-196
32-20,24471492,-182
32-21,24475398,-149
32-22,24479304,-116
32-23,24483210,-99
32-24,24487116,-106
32-25,24491022,-133
32-26,24494928,-147
32-27,24498834,-135
32-28,24502740,-106
32-29,24506646,-90
32-30,24510552,-113
32-31,24514458,-160
32-32,24518364,-193
32-1,24522276,-193
32-2,24526182,-169
32-3,24530088,-148
32-4,24533994,-145
32-5,24537900,-137
32-6,24541806,-123
32-7,24545712,-109
32-8,24549618,-99
32-9,24553524,-100
32-10,24557430,-110
32-11,24561336,-115
32-12,24565242,-111
32-13,24569148,-99
32-14,24573054,-94
32-15,24576960,-103
32-16,24580866,-116
32-17,24584772,-120
32-18,24588678,-112
32-19,24592584,-97
32-20,24596490,-86
32-21,24600396,-83
32-22,24604302,-90
32-23,24608208,-99
32-24,24612114,-107
32-25,24616020,-110
32-26,24619926,-88
32-27,24623832,-43
32-28,24627738,-1
32-29,24631644,14
32-30,24635550,-7
32-31,24639456,-48
32-32,24643362,-85
32-1,24647274,-104
32-2,24651180,-99
32-3,24655086,-78
32-4,24658992,-59
32-5,24662898,-44
32-6,24666804,-43
32-7,24670710,-52
32-8,24674616,-56
32-9,24678522,-48
32-10,24682428,-35
32-11,24686334,-30
32-12,24690240,-39
32-13,24694146,-62
32-14,24698052,-80
32-15,24701958,-88
32-16,24705864,-82
32-17,24709770,-70
32-18,24713676,-61
32-19,24717582,-54
32-20,24721488,-51
32-21,24725394,-48
32-22,24729300,-49
32-23,24733206,-46
32-24,24737112,-50
32-25,24741018,-61
32-26,24744924,-51
32-27,24748830,-17
32-28,24752736,25
32-29,24756642,44
32-30,24760548,20
32-31,24764454,-19
32-32,24768360,-36
32-1,24772485,-19
32-2,24776391,11
32-3,24780297,26
32-4,24784203,8
32-5,24788109,-17
32-6,24792015,-40
32-7,24795921,-48
32-8,24799827,-31
32-9,24803733,2
32-10,24807639,32
32-11,24811545,38
32-12,24815451,19
32-13,24819357,-7
32-14,24823263,-22
32-15,24827169,-13
32-16,24831075,8
32-17,24834981,24
32-18,24838887,24
32-19,24842793,10
32-20,24846699,-4
32-21,24850605,0
32-22,24854511,14
32-23,24858417,31
32-24,24862323,41
32-25,24866229,28
32-26,24870135,23
32-27,24874041,37
32-28,24877947,60
32-29,24881853,73
32-30,24885759,53
32-31,24889665,5
32-32,24893571,-36
32-1,24897269,-51
32-2,24901175,-36
32-3,24905081,-4
32-4,24908987,19
32-5,24912893,36
32-6,24916799,40
32-7,24920705,31
32-8,24924611,23
32-9,24928517,27
32-10,24932423,43
32-11,24936329,54
32-12,24940235,47
32-13,24944141,20
32-14,24948047,-10
32-15,24951953,-24
32-16,24955859,-12
32-17,24959765,15
32-18,24963671,38
32-19,24967577,44
32-20,24971483,33
32-21,24975389,22
32-22,24979295,20
32-23,24983201,28
32-24,24987107,34
32-25,24991013,22
32-26,24994919,24
32-27,24998825,55
32-28,25002731,101
32-29,25006637,127
32-30,25010543,103
32-31,25014449,44
32-32,25018355,-12
32-1,25022267,-42
32-2,25026173,-48
32-3,25030079,-43
32-4,25033985,-45
32-5,25037891,-35
32-6,25041797,-15
32-7,25045703,5
32-8,25049609,21
32-9,25053515,31
32-10,25057421,43
32-11,25061327,57
32-12,25065233,67
32-13,25069139,63
32-14,25073045,47
32-15,25076951,40
32-16,25080857,44
32-17,25084763,53
32-18,25088669,54
32-19,25092575,41
32-20,25096481,21
32-21,25100387,9
32-22,25104293,3
32-23,25108199,5
32-24,25112105,8
32-25,25116011,6
32-26,25119917,22
32-27,25123823,58
32-28,25127729,101
32-29,25131635,129
32-30,25135541,115
32-31,25139447,74
32-32,25143353,45
32-1,25147264,43
32-2,25151170,58
32-3,25155076,61
32-4,25158982,49
32-5,25162888,50
32-6,25166794,60
32-7,25170700,63
32-8,25174606,52
32-9,25178512,31
32-10,25182418,16
32-11,25186324,11
32-12,25190230,9
32-13,25194136,9
32-14,25198042,15
32-15,25201948,22
32-16,25205854,31
32-17,25209760,29
32-18,25213666,24
32-19,25217572,23
32-20,25221478,29
32-21,25225384,41
32-22,25229290,55
32-23,25233196,68
32-24,25237102,72
32-25,25241008,59
32-26,25244914,51
32-27,25248820,62
32-28,25252726,88
32-29,25256632,107
32-30,25260538,98
32-31,25264444,66
32-32,25268350,37
32-1,25272262,32
32-2,25276168,47
32-3,25280074,57
32-4,25283980,41
32-5,25287886,18
32-6,25291792,-3
32-7,25295698,-16
32-8,25299604,-28
32-9,25303510,-37
32-10,25307416,-37
32-11,25311322,-24
32-12,25315228,-6
32-13,25319134,6
32-14,25323040,7
32-15,25326946,-3
32-16,25330852,-15
32-17,25334758,-17
32-18,25338664,-13
32-19,25342570,-12
32-20,25346476,-17
32-21,25350382,-31
32-22,25354288,-46
32-23,25358194,-46
32-24,25362100,-36
32-25,25366006,-36
32-26,25369912,-37
32-27,25373818,-31
32-28,25377724,-11
32-29,25381630,2
32-30,25385536,-17
32-31,25389442,-60
32-32,25393348,-100
32-1,25397259,-117
32-2,25401165,-101
32-3,25405071,-65
32-4,25408977,-35
32-5,25412883,-9
32-6,25416789,1
32-7,25420695,-2
32-8,25424601,-1
32-9,25428507,7
32-10,25432413,10
32-11,25436319,4
32-12,25440225,-10
32-13,25444131,-23
32-14,25448037,-31
32-15,25451943,-39
32-16,25455849,-48
32-17,25459755,-46
32-18,25463661,-33
32-19,25467567,-13
32-20,25471473,0
32-21,25475379,5
32-22,25479285,2
32-23,25483191,-1
32-24,25487097,-12
32-25,25491003,-27
32-26,25494909,-21
32-27,25498815,6
32-28,25502721,43
32-29,25506627,61
32-30,25510533,44
32-31,25514439,9
32-32,25518345,-17
32-1,25522471,-22
32-2,25526377,-16
32-3,25530283,-16
32-4,25534189,-39
32-5,25538095,-54
32-6,25542001,-54
32-7,25545907,-43
32-8,25549813,-29
32-9,25553719,-28
32-10,25557625,-39
32-11,25561531,-46
32-12,25565437,-44
32-13,25569343,-39
32-14,25573249,-46
32-15,25577155,-73
32-16,25581061,-104
32-17,25584967,-116
32-18,25588873,-108
32-19,25592779,-87
32-20,25596685,-69
32-21,25600591,-61
32-22,25604497,-53
32-23,25608403,-36
32-24,25612309,-29
32-25,25616215,-41
32-26,25620121,-47
32-27,25624027,-37
32-28,25627933,-14
32-29,25631839,-9
32-30,25635745,-44
32-31,25639651,-97
32-32,25643557,-128
32-1,25647255,-120
32-2,25651161,-89
32-3,25655067,-64
32-4,25658973,-68
32-5,25662879,-75
32-6,25666785,-71
32-7,25670691,-52
32-8,25674597,-19
32-9,25678503,12
32-10,25682409,32
32-11,25686315,28
32-12,25690221,5
32-13,25694127,-21
32-14,25698033,-33
32-15,25701939,-30
32-16,25705845,-20
32-17,25709751,-17
32-18,25713657,-21
32-19,25717563,-15
32-20,25721469,8
32-21,25725375,36
32-22,25729281,44
32-23,25733187,30
32-24,25737093,5
32-25,25740999,-31
32-26,25744905,-49
32-27,25748811,-31
32-28,25752717,8
32-29,25756623,42
32-30,25760529,38
32-31,25764435,-8
32-32,25768341,-57
32-1,25772252,-82
32-2,25776158,-75
32-3,25780064,-51
32-4,25783970,-37
32-5,25787876,-24
32-6,25791782,-17
32-7,25795688,-29
32-8,25799594,-51
32-9,25803500,-70
32-10,25807406,-83
32-11,25811312,-90
32-12,25815218,-93
32-13,25819124,-95
32-14,25823030,-91
32-15,25826936,-79
32-16,25830842,-62
32-17,25834748,-45
32-18,25838654,-29
32-19,25842560,-20
32-20,25846466,-24
32-21,25850372,-31
32-22,25854278,-32
32-23,25858184,-24
32-24,25862090,-25
32-25,25865996,-48
32-26,25869902,-63
32-27,25873808,-53
32-28,25877714,-22
32-29,25881620,1
32-30,25885526,-14
32-31,25889432,-56
32-32,25893338,-89
32-1,25897250,-98
32-2,25901156,-81
32-3,25905062,-54
32-4,25908968,-31
32-5,25912874,-6
32-6,25916780,5
32-7,25920686,-11
32-8,25924592,-42
32-9,25928498,-65
32-10,25932404,-65
32-11,25936310,-47
32-12,25940216,-33
32-13,25944122,-42
32-14,25948028,-70
32-15,25951934,-98
32-16,25955840,-102
32-17,25959746,-83
32-18,25963652,-61
32-19,25967558,-54
32-20,25971464,-56
32-21,25975370,-54
32-22,25979276,-40
32-23,25983182,-12
32-24,25987088,2
32-25,25990994,-12
32-26,25994900,-26
32-27,25998806,-18
32-28,26002712,12
32-29,26006618,44
32-30,26010524,57
32-31,26014430,50
32-32,26018336,43
32-1,26022248,44
32-2,26026154,47
32-3,26030060,32
32-4,26033966,2
32-5,26037872,-14
32-6,26041778,-16
32-7,26045684,-9
32-8,26049590,3
32-9,26053496,11
32-10,26057402,13
32-11,26061308,5
32-12,26065214,-10
32-13,26069120,-20
32-14,26073026,-21
32-15,26076932,-13
32-16,26080838,6
32-17,26084744,36
32-18,26088650,71
32-19,26092556,97
32-20,26096462,104
32-21,26100368,100
32-22,26104274,95
32-23,26108180,101
32-24,26112086,100
32-25,26115992,80
32-26,26119898,64
32-27,26123804,65
32-28,26127710,79
32-29,26131616,84
32-30,26135522,56
32-31,26139428,9
32-32,26143334,-25
32-1,26147245,-34
32-2,26151151,-15
32-3,26155057,5
32-4,26158963,10
32-5,26162869,9
32-6,26166775,9
32-7,26170681,15
32-8,26174587,21
32-9,26178493,18
32-10,26182399,11
32-11,26186305,6
32-12,26190211,9
32-13,26194117,10
32-14,26198023,6
32-15,26201929,3
32-16,26205835,1
32-17,26209741,0
32-18,26213647,-1
32-19,26217553,-5
32-20,26221459,-4
32-21,26225365,1
32-22,26229271,-2
32-23,26233177,-12
32-24,26237083,-32
32-25,26240989,-57
32-26,26244895,-68
32-27,26248801,-58
32-28,26252707,-38
32-29,26256613,-28
32-30,26260519,-50
32-31,26264425,-91
32-32,26268331,-118
32-1,26272456,-115
32-2,26276362,-94
32-3,26280268,-90
32-4,26284174,-112
32-5,26288080,-124
32-6,26291986,-105
32-7,26295892,-61
32-8,26299798,-16
32-9,26303704,5
32-10,26307610,0
32-11,26311516,-20
32-12,26315422,-36
32-13,26319328,-43
32-14,26323234,-45
32-15,26327140,-42
32-16,26331046,-23
32-17,26334952,13
32-18,26338858,50
32-19,26342764,61
32-20,26346670,38
32-21,26350576,4
32-22,26354482,-18
32-23,26358388,-16
32-24,26362294,-15
32-25,26366200,-48
32-26,26370106,-81
32-27,26374012,-82
32-28,26377918,-50
32-29,26381824,-12
32-30,26385730,-5
32-31,26389636,-36
32-32,26393542,-80
32-1,26397240,-114
32-2,26401146,-124
32-3,26405052,-115
32-4,26408958,-102
32-5,26412864,-81
32-6,26416770,-75
32-7,26420676,-86
32-8,26424582,-97
32-9,26428488,-98
32-10,26432394,-77
32-11,26436300,-54
32-12,26440206,-39
32-13,26444112,-37
32-14,26448018,-42
32-15,26451924,-49
32-16,26455830,-52
32-17,26459736,-57
32-18,26463642,-65
32-19,26467548,-71
32-20,26471454,-77
32-21,26475360,-79
32-22,26479266,-83
32-23,26483172,-77
32-24,26487078,-57
32-25,26490984,-38
32-26,26494890,-10
32-27,26498796,31
32-28,26502702,69
32-29,26506608,88
32-30,26510514,66
32-31,26514420,18
32-32,26518326,-22
32-1,26522238,-36
32-2,26526144,-22
32-3,26530050,5
32-4,26533956,18
32-5,26537862,35
32-6,26541768,45
32-7,26545674,35
32-8,26549580,8
32-9,26553486,-31
32-10,26557392,-67
32-11,26561298,-85
32-12,26565204,-79
32-13,26569110,-51
32-14,26573016,-23
32-15,26576922,-2
32-16,26580828,11
32-17,26584734,25
32-18,26588640,40
32-19,26592546,48
32-20,26596452,42
32-21,26600358,34
32-22,26604264,28
32-23,26608170,36
32-24,26612076,38
32-25,26615982,19
32-26,26619888,7
32-27,26623794,16
32-28,26627700,37
32-29,26631606,49
32-30,26635512,24
32-31,26639418,-25
32-32,26643324,-62
32-1,26647236,-67
32-2,26651142,-37
32-3,26655048,9
32-4,26658954,31
32-5,26662860,32
32-6,26666766,10
32-7,26670672,-19
32-8,26674578,-29
32-9,26678484,-19
32-10,26682390,-2
32-11,26686296,12
32-12,26690202,13
32-13,26694108,7
32-14,26698014,4
32-15,26701920,7
32-16,26705826,16
32-17,26709732,23
32-18,26713638,27
32-19,26717544,34
32-20,26721450,41
32-21,26725356,49
32-22,26729262,50
32-23,26733168,52
32-24,26737074,52
32-25,26740980,44
32-26,26744886,39
32-27,26748792,51
32-28,26752698,75
32-29,26756604,94
32-30,26760510,85
32-31,26764416,45
32-32,26768322,6
32-1,26772233,-5
32-2,26776139,16
32-3,26780045,43
32-4,26783951,52
32-5,26787857,53
32-6,26791763,46
32-7,26795669,33
32-8,26799575,17
32-9,26803481,-6
32-10,26807387,-30
32-11,26811293,-41
32-12,26815199,-23
32-13,26819105,17
32-14,26823011,48
32-15,26826917,46
32-16,26830823,18
32-17,26834729,-16
32-18,26838635,-28
32-19,26842541,-18
32-20,26846447,-3
32-21,26850353,0
32-22,26854259,-19
32-23,26858165,-46
32-24,26862071,-71
32-25,26865977,-86
32-26,26869883,-66
32-27,26873789,-24
32-28,26877695,13
32-29,26881601,25
32-30,26885507,6
32-31,26889413,-21
32-32,26893319,-44
32-1,26897323,-61
32-2,26901229,-67
32-3,26905135,-71
32-4,26909041,-80
32-5,26912947,-77
32-6,26916853,-67
32-7,26920759,-55
32-8,26924665,-47
32-9,26928571,-45
32-10,26932477,-45
32-11,26936383,-42
32-12,26940289,-28
32-13,26944195,-7
32-14,26948101,11
32-15,26952007,21
32-16,26955913,19
32-17,26959819,8
32-18,26963725,-9
32-19,26967631,-24
32-20,26971537,-28
32-21,26975443,-27
32-22,26979349,-27
32-23,26983255,-24
32-24,26987161,-24
32-25,26991067,-32
32-26,26994973,-26
32-27,26998879,0
32-28,27002785,39
32-29,27006691,64
32-30,27010597,47
32-31,27014503,0
32-32,27018409,-37
32-1,27022412,-43
32-2,27026318,-22
32-3,27030224,1
32-4,27034130,3
32-5,27038036,1
32-6,27041942,-6
32-7,27045848,-16
32-8,27049754,-23
32-9,27053660,-26
32-10,27057566,-28
32-11,27061472,-35
32-12,27065378,-52
32-13,27069284,-67
32-14,27073190,-70
32-15,27077096,-61
32-16,27081002,-49
32-17,27084908,-42
32-18,27088814,-41
32-19,27092720,-47
32-20,27096626,-57
32-21,27100532,-75
32-22,27104438,-97
32-23,27108344,-101
32-24,27112250,-85
32-25,27116156,-65
32-26,27120062,-37
32-27,27123968,-4
32-28,27127874,31
32-29,27131780,45
32-30,27135686,18
32-31,27139592,-30
32-32,27143498,-63
32-1,27147226,-64
32-2,27151132,-37
32-3,27155038,-18
32-4,27158944,-29
32-5,27162850,-41
32-6,27166756,-36
32-7,27170662,-22
32-8,27174568,-9
32-9,27178474,-9
32-10,27182380,-18
32-11,27186286,-29
32-12,27190192,-43
32-13,27194098,-58
32-14,27198004,-71
32-15,27201910,-81
32-16,27205816,-84
32-17,27209722,-88
32-18,27213628,-100
32-19,27217534,-108
32-20,27221440,-105
32-21,27225346,-93
32-22,27229252,-83
32-23,27233158,-69
32-24,27237064,-58
32-25,27240970,-62
32-26,27244876,-57
32-27,27248782,-34
32-28,27252688,-9
32-29,27256594,0
32-30,27260500,-24
32-31,27264406,-64
32-32,27268312,-80
32-1,27272224,-61
32-2,27276130,-22
32-3,27280036,11
32-4,27283942,8
32-5,27287848,-2
32-6,27291754,-12
32-7,27295660,-30
32-8,27299566,-40
32-9,27303472,-38
32-10,27307378,-24
32-11,27311284,-12
32-12,27315190,-8
32-13,27319096,-12
32-14,27323002,-21
32-15,27326908,-34
32-16,27330814,-49
32-17,27334720,-61
32-18,27338626,-63
32-19,27342532,-48
32-20,27346438,-30
32-21,27350344,-17
32-22,27354250,-22
32-23,27358156,-38
32-24,27362062,-61
32-25,27365968,-90
32-26,27369874,-93
32-27,27373780,-69
32-28,27377686,-42
32-29,27381592,-35
32-30,27385498,-61
32-31,27389404,-102
32-32,27393310,-127
32-1,27397222,-130
32-2,27401128,-116
32-3,27405034,-94
32-4,27408940,-79
32-5,27412846,-64
32-6,27416752,-61
32-7,27420658,-77
32-8,27424564,-87
32-9,27428470,-78
32-10,27432376,-49
32-11,27436282,-18
32-12,27440188,-5
32-13,27444094,-13
32-14,27448000,-26
32-15,27451906,-37
32-16,27455812,-45
32-17,27459718,-50
32-18,27463624,-56
32-19,27467530,-56
32-20,27471436,-50
32-21,27475342,-42
32-22,27479248,-39
32-23,27483154,-38
32-24,27487060,-39
32-25,27490966,-45
32-26,27494872,-36
32-27,27498778,-4
32-28,27502684,35
32-29,27506590,51
32-30,27510496,28
32-31,27514402,-19
32-32,27518308,-52
32-1,27522372,-61
32-2,27526278,-54
32-3,27530184,-47
32-4,27534090,-55
32-5,27537996,-57
32-6,27541902,-57
32-7,27545808,-58
32-8,27549714,-50
32-9,27553620,-28
32-10,27557526,-6
32-11,27561432,-5
32-12,27565338,-31
32-13,27569244,-65
32-14,27573150,-86
32-15,27577056,-83
32-16,27580962,-54
32-17,27584868,-13
32-18,27588774,31
32-19,27592680,62
32-20,27596586,67
32-21,27600492,56
32-22,27604398,34
32-23,27608304,15
32-24,27612210,-6
32-25,27616116,-36
32-26,27620022,-47
32-27,27623928,-26
32-28,27627834,7
32-29,27631740,20
32-30,27635646,-9
32-31,27639552,-63
32-32,27643458,-100
32-1,27647217,-103
32-2,27651123,-76
32-3,27655029,-40
32-4,27658935,-16
32-5,27662841,2
32-6,27666747,13
32-7,27670653,17
32-8,27674559,24
32-9,27678465,33
32-10,27682371,44
32-11,27686277,50
32-12,27690183,42
32-13,27694089,22
32-14,27697995,-4
32-15,27701901,-18
32-16,27705807,-18
32-17,27709713,-9
32-18,27713619,3
32-19,27717525,9
32-20,27721431,5
32-21,27725337,-4
32-22,27729243,-14
32-23,27733149,-16
32-24,27737055,-12
32-25,27740961,-19
32-26,27744867,-29
32-27,27748773,-37
32-28,27752679,-38
32-29,27756585,-33
32-30,27760491,-37
32-31,27764397,-52
32-32,27768303,-55
32-1,27772428,-35
32-2,27776334,1
32-3,27780240,27
32-4,27784146,27
32-5,27788052,18
32-6,27791958,9
32-7,27795864,1
32-8,27799770,-6
32-9,27803676,-10
32-10,27807582,-12
32-11,27811488,-11
32-12,27815394,-6
32-13,27819300,2
32-14,27823206,9
32-15,27827112,10
32-16,27831018,10
32-17,27834924,8
32-18,27838830,1
32-19,27842736,-15
32-20,27846642,-39
32-21,27850548,-57
32-22,27854454,-63
32-23,27858360,-45
32-24,27862266,-27
32-25,27866172,-39
32-26,27870078,-47
32-27,27873984,-31
32-28,27877890,7
32-29,27881796,36
32-30,27885702,17
32-31,27889608,-38
32-32,27893514,-81
32-1,27897212,-85
32-2,27901118,-55
32-3,27905024,-31
32-4,27908930,-43
32-5,27912836,-60
32-6,27916742,-65
32-7,27920648,-57
32-8,27924554,-38
32-9,27928460,-24
32-10,27932366,-15
32-11,27936272,-11
32-12,27940178,-12
32-13,27944084,-20
32-14,27947990,-34
32-15,27951896,-47
32-16,27955802,-50
32-17,27959708,-44
32-18,27963614,-39
32-19,27967520,-37
32-20,27971426,-35
32-21,27975332,-24
32-22,27979238,-4
32-23,27983144,23
32-24,27987050,33
32-25,27990956,6
32-26,27994862,-21
32-27,27998768,-9
32-28,28002674,40
32-29,28006580,80
32-30,28010486,60
32-31,28014392,-7
32-32,28018298,-61
32-1,28022210,-66
32-2,28026116,-33
32-3,28030022,0
32-4,28033928,1
32-5,28037834,-8
32-6,28041740,-16
32-7,28045646,-30
32-8,28049552,-48
32-9,28053458,-64
32-10,28057364,-65
32-11,28061270,-58
32-12,28065176,-53
32-13,28069082,-51
32-14,28072988,-46
32-15,28076894,-36
32-16,28080800,-18
32-17,28084706,-2
32-18,28088612,3
32-19,28092518,-10
32-20,28096424,-33
32-21,28100330,-45
32-22,28104236,-44
32-23,28108142,-37
32-24,28112048,-44
32-25,28115954,-77
32-26,28119860,-99
32-27,28123766,-83
32-28,28127672,-40
32-29,28131578,-18
32-30,28135484,-44
32-31,28139390,-98
32-32,28143296,-134
32-1,28147360,-132
32-2,28151266,-100
32-3,28155172,-75
32-4,28159078,-72
32-5,28162984,-72
32-6,28166890,-72
32-7,28170796,-75
32-8,28174702,-82
32-9,28178608,-90
32-10,28182514,-92
32-11,28186420,-81
32-12,28190326,-62
32-13,28194232,-42
32-14,28198138,-28
32-15,28202044,-21
32-16,28205950,-22
32-17,28209856,-31
32-18,28213762,-46
32-19,28217668,-61
32-20,28221574,-66
32-21,28225480,-60
32-22,28229386,-49
32-23,28233292,-38
32-24,28237198,-33
32-25,28241104,-43
32-26,28245010,-47
32-27,28248916,-30
32-28,28252822,4
32-29,28256728,36
32-30,28260634,43
32-31,28264540,25
32-32,28268446,-2
32-1,28272205,-25
32-2,28276111,-43
32-3,28280017,-54
32-4,28283923,-57
32-5,28287829,-42
32-6,28291735,-32
32-7,28295641,-43
32-8,28299547,-68
32-9,28303453,-81
32-10,28307359,-77
32-11,28311265,-69
32-12,28315171,-66
32-13,28319077,-66
32-14,28322983,-61
32-15,28326889,-52
32-16,28330795,-47
32-17,28334701,-50
32-18,28338607,-51
32-19,28342513,-42
32-20,28346419,-29
32-21,28350325,-26
32-22,28354231,-46
32-23,28358137,-73
32-24,28362043,-97
32-25,28365949,-113
32-26,28369855,-107
32-27,28373761,-83
32-28,28377667,-61
32-29,28381573,-53
32-30,28385479,-62
32-31,28389385,-73
32-32,28393291,-69
32-1,28397203,-49
32-2,28401109,-18
32-3,28405015,15
32-4,28408921,42
32-5,28412827,69
32-6,28416733,83
32-7,28420639,78
32-8,28424545,64
32-9,28428451,47
32-10,28432357,35
32-11,28436263,23
32-12,28440169,11
32-13,28444075,0
32-14,28447981,-10
32-15,28451887,-15
32-16,28455793,-13
32-17,28459699,-3
32-18,28463605,7
32-19,28467511,11
32-20,28471417,-2
32-21,28475323,-27
32-22,28479229,-51
32-23,28483135,-55
32-24,28487041,-43
32-25,28490947,-28
32-26,28494853,-6
32-27,28498759,22
32-28,28502665,44
32-29,28506571,39
32-30,28510477,-1
32-31,28514383,-61
32-32,28518289,-103
32-1,28522200,-107
32-2,28526106,-84
32-3,28530012,-64
32-4,28533918,-64
32-5,28537824,-66
32-6,28541730,-70
32-7,28545636,-77
32-8,28549542,-89
32-9,28553448,-101
32-10,28557354,-98
32-11,28561260,-80
32-12,28565166,-53
32-13,28569072,-31
32-14,28572978,-18
32-15,28576884,-9
32-16,28580790,-2
32-17,28584696,2
32-18,28588602,-3
32-19,28592508,-19
32-20,28596414,-44
32-21,28600320,-62
32-22,28604226,-71
32-23,28608132,-68
32-24,28612038,-64
32-25,28615944,-72
32-26,28619850,-65
32-27,28623756,-33
32-28,28627662,17
32-29,28631568,51
32-30,28635474,34
32-31,28639380,-18
32-32,28643286,-65
32-1,28647198,-79
32-2,28651104,-65
32-3,28655010,-43
32-4,28658916,-43
32-5,28662822,-44
32-6,28666728,-35
32-7,28670634,-13
32-8,28674540,14
32-9,28678446,28
32-10,28682352,26
32-11,28686258,10
32-12,28690164,-19
32-13,28694070,-51
32-14,28697976,-76
32-15,28701882,-81
32-16,28705788,-68
32-17,28709694,-50
32-18,28713600,-41
32-19,28717506,-43
32-20,28721412,-52
32-21,28725318,-57
32-22,28729224,-65
32-23,28733130,-71
32-24,28737036,-84
32-25,28740942,-109
32-26,28744848,-117
32-27,28748754,-90
32-28,28752660,-39
32-29,28756566,7
32-30,28760472,3
32-31,28764378,-39
32-32,28768284,-70
32-1,28772195,-56
32-2,28776101,-6
32-3,28780007,24
32-4,28783913,2
32-5,28787819,-27
32-6,28791725,-27
32-7,28795631,8
32-8,28799537,54
32-9,28803443,72
32-10,28807349,60
32-11,28811255,45
32-12,28815161,46
32-13,28819067,56
32-14,28822973,50
32-15,28826879,19
32-16,28830785,-21
32-17,28834691,-52
32-18,28838597,-68
32-19,28842503,-69
32-20,28846409,-63
32-21,28850315,-51
32-22,28854221,-42
32-23,28858127,-36
32-24,28862033,-42
32-25,28865939,-55
32-26,28869845,-43
32-27,28873751,-5
32-28,28877657,32
32-29,28881563,40
32-30,28885469,14
32-31,28889375,-20
32-32,28893281,-40
32-1,28897193,-46
32-2,28901099,-41
32-3,28905005,-36
32-4,28908911,-41
32-5,28912817,-43
32-6,28916723,-50
32-7,28920629,-55
32-8,28924535,-47
32-9,28928441,-33
32-10,28932347,-36
32-11,28936253,-64
32-12,28940159,-95
32-13,28944065,-108
32-14,28947971,-103
32-15,28951877,-91
32-16,28955783,-78
32-17,28959689,-59
32-18,28963595,-38
32-19,28967501,-34
32-20,28971407,-55
32-21,28975313,-83
32-22,28979219,-96
32-23,28983125,-79
32-24,28987031,-45
32-25,28990937,-17
32-26,28994843,12
32-27,28998749,39
32-28,29002655,57
32-29,29006561,56
32-30,29010467,32
32-31,29014373,-9
32-32,29018279,-45
32-1,29022191,-65
32-2,29026097,-62
32-3,29030003,-43
32-4,29033909,-30
32-5,29037815,-19
32-6,29041721,-16
32-7,29045627,-16
32-8,29049533,-11
32-9,29053439,-9
32-10,29057345,-8
32-11,29061251,-10
32-12,29065157,-13
32-13,29069063,-15
32-14,29072969,-23
32-15,29076875,-34
32-16,29080781,-46
32-17,29084687,-55
32-18,29088593,-45
32-19,29092499,-19
32-20,29096405,12
32-21,29100311,28
32-22,29104217,14
32-23,29108123,-10
32-24,29112029,-32
32-25,29115935,-49
32-26,29119841,-37
32-27,29123747,-4
32-28,29127653,30
32-29,29131559,45
32-30,29135465,27
32-31,29139371,-4
32-32,29143277,-14
32-1,29147188,-9
32-2,29151094,-4
32-3,29155000,-10
32-4,29158906,-20
32-5,29162812,-11
32-6,29166718,-3
32-7,29170624,-10
32-8,29174530,-32
32-9,29178436,-56
32-10,29182342,-66
32-11,29186248,-59
32-12,29190154,-39
32-13,29194060,-18
32-14,29197966,-4
32-15,29201872,4
32-16,29205778,17
32-17,29209684,33
32-18,29213590,43
32-19,29217496,28
32-20,29221402,-8
32-21,29225308,-33
32-22,29229214,-36
32-23,29233120,-19
32-24,29237026,-5
32-25,29240932,-9
32-26,29244838,0
32-27,29248744,27
32-28,29252650,52
32-29,29256556,53
32-30,29260462,11
32-31,29264368,-52
32-32,29268274,-98
32-1,29272186,-106
32-2,29276092,-70
32-3,29279998,-34
32-4,29283904,-38
32-5,29287810,-56
32-6,29291716,-61
32-7,29295622,-33
32-8,29299528,9
32-9,29303434,23
32-10,29307340,-10
32-11,29311246,-71
32-12,29315152,-115
32-13,29319058,-110
32-14,29322964,-66
32-15,29326870,-18
32-16,29330776,7
32-17,29334682,1
32-18,29338588,-18
32-19,29342494,-28
32-20,29346400,-21
32-21,29350306,-5
32-22,29354212,11
32-23,29358118,35
32-24,29362024,58
32-25,29365930,57
32-26,29369836,52
32-27,29373742,65
32-28,29377648,96
32-29,29381554,118
32-30,29385460,97
32-31,29389366,40
32-32,29393272,-12
32-1,29397184,-37
32-2,29401090,-34
32-3,29404996,-30
32-4,29408902,-42
32-5,29412808,-45
32-6,29416714,-41
32-7,29420620,-39
32-8,29424526,-32
32-9,29428432,-22
32-10,29432338,-15
32-11,29436244,-22
32-12,29440150,-42
32-13,29444056,-64
32-14,29447962,-82
32-15,29451868,-88
32-16,29455774,-86
32-17,29459680,-84
32-18,29463586,-87
32-19,29467492,-91
32-20,29471398,-89
32-21,29475304,-80
32-22,29479210,-70
32-23,29483116,-62
32-24,29487022,-63
32-25,29490928,-80
32-26,29494834,-80
32-27,29498740,-51
32-28,29502646,-7
32-29,29506552,29
32-30,29510458,28
32-31,29514364,-8
32-32,29518270,-50
32-1,29522181,-79
32-2,29526087,-87
32-3,29529993,-83
32-4,29533899,-86
32-5,29537805,-78
32-6,29541711,-65
32-7,29545617,-61
32-8,29549523,-64
32-9,29553429,-73
32-10,29557335,-81
32-11,29561241,-89
32-12,29565147,-99
32-13,29569053,-111
32-14,29572959,-119
32-15,29576865,-116
32-16,29580771,-106
32-17,29584677,-91
32-18,29588583,-72
32-19,29592489,-54
32-20,29596395,-47
32-21,29600301,-52
32-22,29604207,-70
32-23,29608113,-86
32-24,29612019,-89
32-25,29615925,-89
32-26,29619831,-71
32-27,29623737,-39
32-28,29627643,-7
32-29,29631549,10
32-30,29635455,-2
32-31,29639361,-30
32-32,29643267,-52
32-1,29647179,-65
32-2,29651085,-69
32-3,29654991,-68
32-4,29658897,-71
32-5,29662803,-64
32-6,29666709,-50
32-7,29670615,-34
32-8,29674521,-21
32-9,29678427,-15
32-10,29682333,-12
32-11,29686239,-10
32-12,29690145,6
32-13,29694051,33
32-14,29697957,60
32-15,29701863,77
32-16,29705769,82
32-17,29709675,78
32-18,29713581,70
32-19,29717487,59
32-20,29721393,55
32-21,29725299,58
32-22,29729205,55
32-23,29733111,45
32-24,29737017,27
32-25,29740923,9
32-26,29744829,17
32-27,29748735,46
32-28,29752641,77
32-29,29756547,84
32-30,29760453,57
32-31,29764359,11
32-32,29768265,-26
32-1,29772177,-48
32-2,29776083,-60
32-3,29779989,-74
32-4,29783895,-92
32-5,29787801,-96
32-6,29791707,-93
32-7,29795613,-102
32-8,29799519,-127
32-9,29803425,-150
32-10,29807331,-151
32-11,29811237,-132
32-12,29815143,-110
32-13,29819049,-96
32-14,29822955,-90
32-15,29826861,-84
32-16,29830767,-74
32-17,29834673,-73
32-18,29838579,-84
32-19,29842485,-96
32-20,29846391,-99
32-21,29850297,-94
32-22,29854203,-97
32-23,29858109,-95
32-24,29862015,-84
32-25,29865921,-70
32-26,29869827,-37
32-27,29873733,5
32-28,29877639,38
32-29,29881545,45
32-30,29885451,23
32-31,29889357,-16
32-32,29893263,-49
32-1,29897174,-65
32-2,29901080,-59
32-3,29904986,-39
32-4,29908892,-34
32-5,29912798,-36
32-6,29916704,-46
32-7,29920610,-62
32-8,29924516,-65
32-9,29928422,-61
32-10,29932328,-64
32-11,29936234,-69
32-12,29940140,-61
32-13,29944046,-41
32-14,29947952,-23
32-15,29951858,-23
32-16,29955764,-40
32-17,29959670,-54
32-18,29963576,-57
32-19,29967482,-54
32-20,29971388,-51
32-21,29975294,-50
32-22,29979200,-55
32-23,29983106,-69
32-24,29987012,-103
32-25,29990918,-142
32-26,29994824,-143
32-27,29998730,-104
32-28,30002636,-53
32-29,30006542,-32
32-30,30010448,-65
32-31,30014354,-125
32-32,30018260,-169
32-1,30022172,-175
32-2,30026078,-157
32-3,30029984,-141
32-4,30033890,-135
32-5,30037796,-116
32-6,30041702,-83
32-7,30045608,-47
32-8,30049514,-27
32-9,30053420,-35
32-10,30057326,-59
32-11,30061232,-76
32-12,30065138,-78
32-13,30069044,-76
32-14,30072950,-74
32-15,30076856,-78
32-16,30080762,-77
32-17,30084668,-70
32-18,30088574,-64
32-19,30092480,-62
32-20,30096386,-69
32-21,30100292,-83
32-22,30104198,-95
32-23,30108104,-96
32-24,30112010,-97
32-25,30115916,-117
32-26,30119822,-137
32-27,30123728,-142
32-28,30127634,-128
32-29,30131540,-113
32-30,30135446,-112
32-31,30139352,-118
32-32,30143258,-109
32-1,30147169,-81
32-2,30151075,-48
32-3,30154981,-34
32-4,30158887,-42
32-5,30162793,-42
32-6,30166699,-34
32-7,30170605,-31
32-8,30174511,-35
32-9,30178417,-45
32-10,30182323,-55
32-11,30186229,-55
32-12,30190135,-48
32-13,30194041,-46
32-14,30197947,-58
32-15,30201853,-78
32-16,30205759,-96
32-17,30209665,-103
32-18,30213571,-108
32-19,30217477,-112
32-20,30221383,-111
32-21,30225289,-100
32-22,30229195,-80
32-23,30233101,-59
32-24,30237007,-48
32-25,30240913,-47
32-26,30244819,-30
32-27,30248725,6
32-28,30252631,41
32-29,30256537,51
32-30,30260443,21
32-31,30264349,-31
32-32,30268255,-67
32-1,30272167,-71
32-2,30276073,-53
32-3,30279979,-35
32-4,30283885,-40
32-5,30287791,-44
32-6,30291697,-45
32-7,30295603,-46
32-8,30299509,-48
32-9,30303415,-54
32-10,30307321,-58
32-11,30311227,-57
32-12,30315133,-62
32-13,30319039,-74
32-14,30322945,-83
32-15,30326851,-75
32-16,30330757,-51
32-17,30334663,-26
32-18,30338569,-8
32-19,30342475,1
32-20,30346381,6
32-21,30350287,13
32-22,30354193,21
32-23,30358099,30
32-24,30362005,29
32-25,30365911,9
32-26,30369817,-3
32-27,30373723,5
32-28,30377629,34
32-29,30381535,63
32-30,30385441,63
32-31,30389347,38
32-32,30393253,13
32-1,30397165,1
32-2,30401071,6
32-3,30404977,20
32-4,30408883,28
32-5,30412789,34
32-6,30416695,28
32-7,30420601,23
32-8,30424507,35
32-9,30428413,57
32-10,30432319,71
32-11,30436225,61
32-12,30440131,38
32-13,30444037,26
32-14,30447943,32
32-15,30451849,50
32-16,30455755,64
32-17,30459661,62
32-18,30463567,51
32-19,30467473,39
32-20,30471379,27
32-21,30475285,20
32-22,30479191,8
32-23,30483097,-7
32-24,30487003,-27
32-25,30490909,-48
32-26,30494815,-46
32-27,30498721,-20
32-28,30502627,8
32-29,30506533,24
32-30,30510439,12
32-31,30514345,-19
32-32,30518251,-43
32-1,30522162,-43
32-2,30526068,-20
32-3,30529974,3
32-4,30533880,4
32-5,30537786,-7
32-6,30541692,-27
32-7,30545598,-46
32-8,30549504,-49
32-9,30553410,-37
32-10,30557316,-23
32-11,30561222,-18
32-12,30565128,-26
32-13,30569034,-36
32-14,30572940,-30
32-15,30576846,-9
32-16,30580752,13
32-17,30584658,21
32-18,30588564,14
32-19,30592470,-3
32-20,30596376,-22
32-21,30600282,-37
32-22,30604188,-44
32-23,30608094,-30
32-24,30612000,-8
32-25,30615906,2
32-26,30619812,15
32-27,30623718,35
32-28,30627624,62
32-29,30631530,77
32-30,30635436,54
32-31,30639342,7
32-32,30643248,-36
32-1,30647160,-55
32-2,30651066,-58
32-3,30654972,-64
32-4,30658878,-77
32-5,30662784,-76
32-6,30666690,-61
32-7,30670596,-35
32-8,30674502,-10
32-9,30678408,4
32-10,30682314,9
32-11,30686220,8
32-12,30690126,2
32-13,30694032,-14
32-14,30697938,-42
32-15,30701844,-67
32-16,30705750,-80
32-17,30709656,-82
32-18,30713562,-78
32-19,30717468,-81
32-20,30721374,-95
32-21,30725280,-108
32-22,30729186,-117
32-23,30733092,-114
32-24,30736998,-109
32-25,30740904,-112
32-26,30744810,-106
32-27,30748716,-89
32-28,30752622,-68
32-29,30756528,-59
32-30,30760434,-80
32-31,30764340,-125
32-32,30768246,-156
32-1,30772158,-153
32-2,30776064,-119
32-3,30779970,-87
32-4,30783876,-90
32-5,30787782,-106
32-6,30791688,-120
32-7,30795594,-124
32-8,30799500,-113
32-9,30803406,-97
32-10,30807312,-82
32-11,30811218,-70
32-12,30815124,-62
32-13,30819030,-58
32-14,30822936,-45
32-15,30826842,-22
32-16,30830748,5
32-17,30834654,28
32-18,30838560,42
32-19,30842466,56
32-20,30846372,68
32-21,30850278,63
32-22,30854184,41
32-23,30858090,19
32-24,30861996,-2
32-25,30865902,-31
32-26,30869808,-45
32-27,30873714,-37
32-28,30877620,-16
32-29,30881526,-9
32-30,30885432,-43
32-31,30889338,-99
32-32,30893244,-137
32-1,30897155,-140
32-2,30901061,-121
32-3,30904967,-112
32-4,30908873,-119
32-5,30912779,-103
32-6,30916685,-62
32-7,30920591,-15
32-8,30924497,18
32-9,30928403,28
32-10,30932309,24
32-11,30936215,22
32-12,30940121,30
32-13,30944027,41
32-14,30947933,46
32-15,30951839,40
32-16,30955745,30
32-17,30959651,21
32-18,30963557,10
32-19,30967463,-4
32-20,30971369,-15
32-21,30975275,-15
32-22,30979181,-6
32-23,30983087,10
32-24,30986993,15
32-25,30990899,-10
32-26,30994805,-31
32-27,30998711,-27
32-28,31002617,0
32-29,31006523,24
32-30,31010429,10
32-31,31014335,-39
32-32,31018241,-89
32-1,31022153,-115
32-2,31026059,-104
32-3,31029965,-72
32-4,31033871,-49
32-5,31037777,-21
32-6,31041683,5
32-7,31045589,12
32-8,31049495,10
32-9,31053401,-3
32-10,31057307,-19
32-11,31061213,-35
32-12,31065119,-47
32-13,31069025,-55
32-14,31072931,-54
32-15,31076837,-58
32-16,31080743,-75
32-17,31084649,-102
32-18,31088555,-116
32-19,31092461,-98
32-20,31096367,-58
32-21,31100273,-18
32-22,31104179,5
32-23,31108085,15
32-24,31111991,14
32-25,31115897,0
32-26,31119803,-4
32-27,31123709,12
32-28,31127615,40
32-29,31131521,53
32-30,31135427,32
32-31,31139333,-10
32-32,31143239,-34
32-1,31147150,-30
32-2,31151056,-7
32-3,31154962,19
32-4,31158868,25
32-5,31162774,21
32-6,31166680,8
32-7,31170586,-12
32-8,31174492,-20
32-9,31178398,-5
32-10,31182304,14
32-11,31186210,11
32-12,31190116,-22
32-13,31194022,-71
32-14,31197928,-110
32-15,31201834,-120
32-16,31205740,-102
32-17,31209646,-61
32-18,31213552,-22
32-19,31217458,-4
32-20,31221364,-6
32-21,31225270,-19
32-22,31229176,-28
32-23,31233082,-15
32-24,31236988,8
32-25,31240894,26
32-26,31244800,46
32-27,31248706,67
32-28,31252612,82
32-29,31256518,90
32-30,31260424,78
32-31,31264330,47
32-32,31268236,23
32-1,31272148,19
32-2,31276054,40
32-3,31279960,69
32-4,31283866,84
32-5,31287772,85
32-6,31291678,66
32-7,31295584,30
32-8,31299490,-1
32-9,31303396,-18
32-10,31307302,-16
32-11,31311208,-4
32-12,31315114,6
32-13,31319020,4
32-14,31322926,3
32-15,31326832,12
32-16,31330738,21
32-17,31334644,20
32-18,31338550,13
32-19,31342456,5
32-20,31346362,1
32-21,31350268,-7
32-22,31354174,-22
32-23,31358080,-24
32-24,31361986,-15
32-25,31365892,-10
32-26,31369798,3
32-27,31373704,24
32-28,31377610,52
32-29,31381516,71
32-30,31385422,63
32-31,31389328,36
32-32,31393234,16
32-1,31397146,13
32-2,31401052,29
32-3,31404958,48
32-4,31408864,50
32-5,31412770,46
32-6,31416676,27
32-7,31420582,-4
32-8,31424488,-28
32-9,31428394,-33
32-10,31432300,-22
32-11,31436206,-7
32-12,31440112,9
32-13,31444018,26
32-14,31447924,40
32-15,31451830,44
32-16,31455736,32
32-17,31459642,11
32-18,31463548,-12
32-19,31467454,-27
32-20,31471360,-33
32-21,31475266,-29
32-22,31479172,-28
32-23,31483078,-29
32-24,31486984,-35
32-25,31490890,-45
32-26,31494796,-38
32-27,31498702,-19
32-28,31502608,-4
32-29,31506514,-9
32-30,31510420,-45
32-31,31514326,-102
32-32,31518232,-148
32-1,31522174,-165
32-2,31526080,-152
32-3,31529986,-136
32-4,31533892,-143
32-5,31537798,-153
32-6,31541704,-147
32-7,31545610,-117
32-8,31549516,-77
32-9,31553422,-45
32-10,31557328,-24
32-11,31561234,-12
32-12,31565140,-1
32-13,31569046,6
32-14,31572952,1
32-15,31576858,-16
32-16,31580764,-44
32-17,31584670,-73
32-18,31588576,-82
32-19,31592482,-68
32-20,31596388,-48
32-21,31600294,-35
32-22,31604200,-37
32-23,31608106,-30
32-24,31612012,-23
32-25,31615918,-41
32-26,31619824,-55
32-27,31623730,-39
32-28,31627636,15
32-29,31631542,76
32-30,31635448,82
32-31,31639354,34
32-32,31643260,-18
32-1,31647141,-41
32-2,31651047,-33
32-3,31654953,-21
32-4,31658859,-25
32-5,31662765,-31
32-6,31666671,-46
32-7,31670577,-77
32-8,31674483,-99
32-9,31678389,-95
32-10,31682295,-66
32-11,31686201,-38
32-12,31690107,-24
32-13,31694013,-22
32-14,31697919,-22
32-15,31701825,-22
32-16,31705731,-25
32-17,31709637,-30
32-18,31713543,-30
32-19,31717449,-28
32-20,31721355,-31
32-21,31725261,-41
32-22,31729167,-50
32-23,31733073,-40
32-24,31736979,-16
32-25,31740885,-9
32-26,31744791,-5
32-27,31748697,8
32-28,31752603,26
32-29,31756509,30
32-30,31760415,0
32-31,31764321,-50
32-32,31768227,-80
32-1,31772139,-79
32-2,31776045,-57
32-3,31779951,-44
32-4,31783857,-57
32-5,31787763,-67
32-6,31791669,-70
32-7,31795575,-80
32-8,31799481,-93
32-9,31803387,-103
32-10,31807293,-93
32-11,31811199,-69
32-12,31815105,-51
32-13,31819011,-40
32-14,31822917,-29
32-15,31826823,-1
32-16,31830729,38
32-17,31834635,67
32-18,31838541,78
32-19,31842447,76
32-20,31846353,68
32-21,31850259,67
32-22,31854165,65
32-23,31858071,62
32-24,31861977,52
32-25,31865883,31
32-26,31869789,23
32-27,31873695,30
32-28,31877601,45
32-29,31881507,52
32-30,31885413,32
32-31,31889319,1
32-32,31893225,-21
32-1,31897136,-32
32-2,31901042,-36
32-3,31904948,-42
32-4,31908854,-51
32-5,31912760,-45
32-6,31916666,-33
32-7,31920572,-25
32-8,31924478,-22
32-9,31928384,-31
32-10,31932290,-55
32-11,31936196,-87
32-12,31940102,-109
32-13,31944008,-114
32-14,31947914,-107
32-15,31951820,-112
32-16,31955726,-127
32-17,31959632,-137
32-18,31963538,-127
32-19,31967444,-95
32-20,31971350,-54
32-21,31975256,-33
32-22,31979162,-38
32-23,31983068,-54
32-24,31986974,-64
32-25,31990880,-64
32-26,31994786,-43
32-27,31998692,-14
32-28,32002598,14
32-29,32006504,28
32-30,32010410,18
32-31,32014316,-2
32-32,32018222,-17
32-1,32022134,-16
32-2,32026040,-2
32-3,32029946,10
32-4,32033852,19
32-5,32037758,39
32-6,32041664,61
32-7,32045570,71
32-8,32049476,70
32-9,32053382,67
32-10,32057288,76
32-11,32061194,91
32-12,32065100,94
32-13,32069006,81
32-14,32072912,54
32-15,32076818,20
32-16,32080724,-14
32-17,32084630,-41
32-18,32088536,-52
32-19,32092442,-47
32-20,32096348,-41
32-21,32100254,-41
32-22,32104160,-51
32-23,32108066,-60
32-24,32111972,-65
32-25,32115878,-71
32-26,32119784,-51
32-27,32123690,-2
32-28,32127596,46
32-29,32131502,60
32-30,32135408,30
32-31,32139314,-15
32-32,32143220,-41
32-1,32147132,-47
32-2,32151038,-43
32-3,32154944,-38
32-4,32158850,-36
32-5,32162756,-17
32-6,32166662,5
32-7,32170568,13
32-8,32174474,6
32-9,32178380,-11
32-10,32182286,-34
32-11,32186192,-55
32-12,32190098,-63
32-13,32194004,-55
32-14,32197910,-35
32-15,32201816,-22
32-16,32205722,-13
32-17,32209628,-11
32-18,32213534,-22
32-19,32217440,-41
32-20,32221346,-62
32-21,32225252,-72
32-22,32229158,-67
32-23,32233064,-53
32-24,32236970,-44
32-25,32240876,-39
32-26,32244782,-15
32-27,32248688,26
32-28,32252594,66
32-29,32256500,80
32-30,32260406,68
32-31,32264312,44
32-32,32268218,33
32-1,32272190,36
32-2,32276096,38
32-3,32280002,27
32-4,32283908,2
32-5,32287814,-12
32-6,32291720,-9
32-7,32295626,2
32-8,32299532,14
32-9,32303438,17
32-10,32307344,7
32-11,32311250,-9
32-12,32315156,-23
32-13,32319062,-38
32-14,32322968,-45
32-15,32326874,-42
32-16,32330780,-29
32-17,32334686,-14
32-18,32338592,-16
32-19,32342498,-37
32-20,32346404,-68
32-21,32350310,-85
32-22,32354216,-78
32-23,32358122,-54
32-24,32362028,-41
32-25,32365934,-62
32-26,32369840,-84
32-27,32373746,-68
32-28,32377652,-19
32-29,32381558,23
32-30,32385464,18
32-31,32389370,-31
32-32,32393276,-82
32-1,32397157,-107
32-2,32401063,-106
32-3,32404969,-96
32-4,32408875,-99
32-5,32412781,-100
32-6,32416687,-93
32-7,32420593,-83
32-8,32424499,-60
32-9,32428405,-26
32-10,32432311,9
32-11,32436217,25
32-12,32440123,15
32-13,32444029,-16
32-14,32447935,-52
32-15,32451841,-70
32-16,32455747,-65
32-17,32459653,-44
32-18,32463559,-25
32-19,32467465,-24
32-20,32471371,-36
32-21,32475277,-46
32-22,32479183,-55
32-23,32483089,-52
32-24,32486995,-40
32-25,32490901,-39
32-26,32494807,-27
32-27,32498713,0
32-28,32502619,33
32-29,32506525,57
32-30,32510431,43
32-31,32514337,2
32-32,32518243,-31
32-1,32522124,-42
32-2,32526030,-26
32-3,32529936,-8
32-4,32533842,-19
32-5,32537748,-39
32-6,32541654,-61
32-7,32545560,-82
32-8,32549466,-95
32-9,32553372,-94
32-10,32557278,-78
32-11,32561184,-64
32-12,32565090,-65
32-13,32568996,-83
32-14,32572902,-107
32-15,32576808,-123
32-16,32580714,-129
32-17,32584620,-127
32-18,32588526,-116
32-19,32592432,-98
32-20,32596338,-77
32-21,32600244,-63
32-22,32604150,-61
32-23,32608056,-52
32-24,32611962,-39
32-25,32615868,-28
32-26,32619774,-15
32-27,32623680,0
32-28,32627586,13
32-29,32631492,13
32-30,32635398,-9
32-31,32639304,-41
32-32,32643210,-63
32-1,32647122,-73
32-2,32651028,-70
32-3,32654934,-61
32-4,32658840,-54
32-5,32662746,-39
32-6,32666652,-33
32-7,32670558,-37
32-8,32674464,-40
32-9,32678370,-37
32-10,32682276,-27
32-11,32686182,-24
32-12,32690088,-37
32-13,32693994,-57
32-14,32697900,-71
32-15,32701806,-74
32-16,32705712,-67
32-17,32709618,-59
32-18,32713524,-50
32-19,32717430,-41
32-20,32721336,-32
32-21,32725242,-26
32-22,32729148,-27
32-23,32733054,-27
32-24,32736960,-16
32-25,32740866,-2
32-26,32744772,23
32-27,32748678,55
32-28,32752584,81
32-29,32756490,85
32-30,32760396,53
32-31,32764302,-11
32-32,32768208,-77
32-1,32772120,-115
32-2,32776026,-122
32-3,32779932,-115
32-4,32783838,-106
32-5,32787744,-81
32-6,32791650,-46
32-7,32795556,-15
32-8,32799462,-8
32-9,32803368,-21
32-10,32807274,-35
32-11,32811180,-44
32-12,32815086,-46
32-13,32818992,-46
32-14,32822898,-53
32-15,32826804,-58
32-16,32830710,-55
32-17,32834616,-49
32-18,32838522,-33
32-19,32842428,-14
32-20,32846334,-3
32-21,32850240,-4
32-22,32854146,-17
32-23,32858052,-33
32-24,32861958,-55
32-25,32865864,-101
32-26,32869770,-141
32-27,32873676,-151
32-28,32877582,-125
32-29,32881488,-90
32-30,32885394,-79
32-31,32889300,-84
32-32,32893206,-78
32-1,32897117,-57
32-2,32901023,-26
32-3,32904929,-8
32-4,32908835,-11
32-5,32912741,-17
32-6,32916647,-24
32-7,32920553,-29
32-8,32924459,-26
32-9,32928365,-24
32-10,32932271,-31
32-11,32936177,-45
32-12,32940083,-58
32-13,32943989,-56
32-14,32947895,-43
32-15,32951801,-35
32-16,32955707,-34
32-17,32959613,-31
32-18,32963519,-27
32-19,32967425,-31
32-20,32971331,-45
32-21,32975237,-61
32-22,32979143,-69
32-23,32983049,-62
32-24,32986955,-46
32-25,32990861,-42
32-26,32994767,-35
32-27,32998673,-21
32-28,33002579,-3
32-29,33006485,5
32-30,33010391,-9
32-31,33014297,-28
32-32,33018203,-37
32-1,33022237,-39
32-2,33026143,-44
32-3,33030049,-62
32-4,33033955,-91
32-5,33037861,-92
32-6,33041767,-71
32-7,33045673,-59
32-8,33049579,-74
32-9,33053485,-112
32-10,33057391,-146
32-11,33061297,-158
32-12,33065203,-150
32-13,33069109,-135
32-14,33073015,-112
32-15,33076921,-86
32-16,33080827,-58
32-17,33084733,-34
32-18,33088639,-21
32-19,33092545,-13
32-20,33096451,-15
32-21,33100357,-14
32-22,33104263,-4
32-23,33108169,18
32-24,33112075,22
32-25,33115981,-18
32-26,33119887,-68
32-27,33123793,-99
32-28,33127699,-100
32-29,33131605,-92
32-30,33135511,-106
32-31,33139417,-137
32-32,33143323,-147
32-1,33147113,-125
32-2,33151019,-87
32-3,33154925,-62
32-4,33158831,-69
32-5,33162737,-76
32-6,33166643,-76
32-7,33170549,-72
32-8,33174455,-65
32-9,33178361,-60
32-10,33182267,-51
32-11,33186173,-43
32-12,33190079,-38
32-13,33193985,-43
32-14,33197891,-61
32-15,33201797,-76
32-16,33205703,-73
32-17,33209609,-54
32-18,33213515,-26
32-19,33217421,-5
32-20,33221327,4
32-21,33225233,9
32-22,33229139,4
32-23,33233045,4
32-24,33236951,4
32-25,33240857,-18
32-26,33244763,-36
32-27,33248669,-24
32-28,33252575,13
32-29,33256481,54
32-30,33260387,58
32-31,33264293,23
32-32,33268199,-16
32-1,33272110,-36
32-2,33276016,-34
32-3,33279922,-27
32-4,33283828,-42
32-5,33287734,-59
32-6,33291640,-75
32-7,33295546,-96
32-8,33299452,-107
32-9,33303358,-99
32-10,33307264,-66
32-11,33311170,-28
32-12,33315076,-8
32-13,33318982,-12
32-14,33322888,-30
32-15,33326794,-39
32-16,33330700,-34
32-17,33334606,-23
32-18,33338512,-21
32-19,33342418,-28
32-20,33346324,-37
32-21,33350230,-34
32-22,33354136,-28
32-23,33358042,-16
32-24,33361948,-9
32-25,33365854,-11
32-26,33369760,0
32-27,33373666,24
32-28,33377572,44
32-29,33381478,46
32-30,33385384,24
32-31,33389290,-12
32-32,33393196,-42
32-1,33397108,-58
32-2,33401014,-57
32-3,33404920,-44
32-4,33408826,-36
32-5,33412732,-32
32-6,33416638,-36
32-7,33420544,-45
32-8,33424450,-51
32-9,33428356,-50
32-10,33432262,-48
32-11,33436168,-48
32-12,33440074,-51
32-13,33443980,-66
32-14,33447886,-94
32-15,33451792,-123
32-16,33455698,-133
32-17,33459604,-116
32-18,33463510,-89
32-19,33467416,-77
32-20,33471322,-84
32-21,33475228,-93
32-22,33479134,-99
32-23,33483040,-93
32-24,33486946,-87
32-25,33490852,-95
32-26,33494758,-96
32-27,33498664,-76
32-28,33502570,-41
32-29,33506476,-18
32-30,33510382,-28
32-31,33514288,-68
32-32,33518194,-107
32-1,33522105,-118
32-2,33526011,-97
32-3,33529917,-64
32-4,33533823,-51
32-5,33537729,-50
32-6,33541635,-52
32-7,33545541,-50
32-8,33549447,-34
32-9,33553353,-7
32-10,33557259,18
32-11,33561165,24
32-12,33565071,12
32-13,33568977,-8
32-14,33572883,-34
32-15,33576789,-62
32-16,33580695,-92
32-17,33584601,-117
32-18,33588507,-120
32-19,33592413,-98
32-20,33596319,-65
32-21,33600225,-43
32-22,33604131,-45
32-23,33608037,-55
32-24,33611943,-67
32-25,33615849,-84
32-26,33619755,-81
32-27,33623661,-57
32-28,33627567,-25
32-29,33631473,-4
32-30,33635379,-21
32-31,33639285,-61
32-32,33643191,-93
32-1,33647225,-100
32-2,33651131,-77
32-3,33655037,-45
32-4,33658943,-26
32-5,33662849,-5
32-6,33666755,8
32-7,33670661,9
32-8,33674567,0
32-9,33678473,-25
32-10,33682379,-53
32-11,33686285,-66
32-12,33690191,-55
32-13,33694097,-32
32-14,33698003,-14
32-15,33701909,-9
32-16,33705815,-12
32-17,33709721,-17
32-18,33713627,-26
32-19,33717533,-32
32-20,33721439,-30
32-21,33725345,-22
32-22,33729251,-11
32-23,33733157,-9
32-24,33737063,-23
32-25,33740969,-50
32-26,33744875,-57
32-27,33748781,-30
32-28,33752687,16
32-29,33756593,53
32-30,33760499,55
32-31,33764405,25
32-32,33768311,-1
32-1,33772131,3
32-2,33776037,38
32-3,33779943,73
32-4,33783849,75
32-5,33787755,49
32-6,33791661,11
32-7,33795567,-25
32-8,33799473,-43
32-9,33803379,-39
32-10,33807285,-20
32-11,33811191,2
32-12,33815097,15
32-13,33819003,13
32-14,33822909,7
32-15,33826815,8
32-16,33830721,19
32-17,33834627,34
32-18,33838533,43
32-19,33842439,37
32-20,33846345,25
32-21,33850251,18
32-22,33854157,14
32-23,33858063,23
32-24,33861969,24
32-25,33865875,-5
32-26,33869781,-29
32-27,33873687,-27
32-28,33877593,-4
32-29,33881499,14
32-30,33885405,-8
32-31,33889311,-48
32-32,33893217,-66
32-1,33897098,-56
32-2,33901004,-27
32-3,33904910,-8
32-4,33908816,-15
32-5,33912722,-19
32-6,33916628,-20
32-7,33920534,-27
32-8,33924440,-42
32-9,33928346,-65
32-10,33932252,-81
32-11,33936158,-82
32-12,33940064,-72
32-13,33943970,-61
32-14,33947876,-66
32-15,33951782,-75
32-16,33955688,-74
32-17,33959594,-59
32-18,33963500,-42
32-19,33967406,-34
32-20,33971312,-37
32-21,33975218,-36
32-22,33979124,-34
32-23,33983030,-24
32-24,33986936,-14
32-25,33990842,-19
32-26,33994748,-18
32-27,33998654,-1
32-28,34002560,20
32-29,34006466,27
32-30,34010372,1
32-31,34014278,-48
32-32,34018184,-79
32-1,34022096,-77
32-2,34026002,-51
32-3,34029908,-29
32-4,34033814,-29
32-5,34037720,-28
32-6,34041626,-16
32-7,34045532,2
32-8,34049438,7
32-9,34053344,-11
32-10,34057250,-42
32-11,34061156,-66
32-12,34065062,-68
32-13,34068968,-48
32-14,34072874,-28
32-15,34076780,-29
32-16,34080686,-57
32-17,34084592,-90
32-18,34088498,-96
32-19,34092404,-70
32-20,34096310,-34
32-21,34100216,-14
32-22,34104122,-19
32-23,34108028,-28
32-24,34111934,-30
32-25,34115840,-31
32-26,34119746,-20
32-27,34123652,-1
32-28,34127558,21
32-29,34131464,27
32-30,34135370,0
32-31,34139276,-45
32-32,34143182,-75
32-1,34147094,-81
32-2,34151000,-74
32-3,34154906,-76
32-4,34158812,-98
32-5,34162718,-119
32-6,34166624,-125
32-7,34170530,-114
32-8,34174436,-87
32-9,34178342,-63
32-10,34182248,-53
32-11,34186154,-65
32-12,34190060,-82
32-13,34193966,-87
32-14,34197872,-75
32-15,34201778,-60
32-16,34205684,-58
32-17,34209590,-68
32-18,34213496,-80
32-19,34217402,-74
32-20,34221308,-54
32-21,34225214,-31
32-22,34229120,-24
32-23,34233026,-35
32-24,34236932,-59
32-25,34240838,-82
32-26,34244744,-80
32-27,34248650,-51
32-28,34252556,-13
32-29,34256462,9
32-30,34260368,-8
32-31,34264274,-52
32-32,34268180,-86
32-1,34272244,-85
32-2,34276150,-54
32-3,34280056,-16
32-4,34283962,-2
32-5,34287868,0
32-6,34291774,-5
32-7,34295680,-11
32-8,34299586,-16
32-9,34303492,-30
32-10,34307398,-55
32-11,34311304,-86
32-12,34315210,-113
32-13,34319116,-130
32-14,34323022,-130
32-15,34326928,-114
32-16,34330834,-88
32-17,34334740,-58
32-18,34338646,-35
32-19,34342552,-27
32-20,34346458,-39
32-21,34350364,-53
32-22,34354270,-58
32-23,34358176,-45
32-24,34362082,-29
32-25,34365988,-34
32-26,34369894,-43
32-27,34373800,-40
32-28,34377706,-23
32-29,34381612,0
32-30,34385518,2
32-31,34389424,-17
32-32,34393330,-36
32-1,34397119,-47
32-2,34401025,-42
32-3,34404931,-23
32-4,34408837,-3
32-5,34412743,21
32-6,34416649,32
32-7,34420555,23
32-8,34424461,-1
32-9,34428367,-36
32-10,34432273,-73
32-11,34436179,-99
32-12,34440085,-108
32-13,34443991,-101
32-14,34447897,-90
32-15,34451803,-88
32-16,34455709,-94
32-17,34459615,-88
32-18,34463521,-67
32-19,34467427,-41
32-20,34471333,-25
32-21,34475239,-26
32-22,34479145,-48
32-23,34483051,-77
32-24,34486957,-104
32-25,34490863,-120
32-26,34494769,-106
32-27,34498675,-71
32-28,34502581,-32
32-29,34506487,-12
32-30,34510393,-32
32-31,34514299,-72
32-32,34518205,-103
32-1,34522117,-110
32-2,34526023,-95
32-3,34529929,-78
32-4,34533835,-81
32-5,34537741,-83
32-6,34541647,-74
32-7,34545553,-57
32-8,34549459,-40
32-9,34553365,-33
32-10,34557271,-24
32-11,34561177,-6
32-12,34565083,15
32-13,34568989,23
32-14,34572895,11
32-15,34576801,-12
32-16,34580707,-25
32-17,34584613,-20
32-18,34588519,-6
32-19,34592425,0
32-20,34596331,-11
32-21,34600237,-29
32-22,34604143,-39
32-23,34608049,-24
32-24,34611955,7
32-25,34615861,27
32-26,34619767,43
32-27,34623673,60
32-28,34627579,63
32-29,34631485,39
32-30,34635391,-14
32-31,34639297,-58
32-32,34643203,-58
32-1,34647084,-29
32-2,34650990,2
32-3,34654896,9
32-4,34658802,-15
32-5,34662708,-37
32-6,34666614,-45
32-7,34670520,-41
32-8,34674426,-22
32-9,34678332,-3
32-10,34682238,5
32-11,34686144,-1
32-12,34690050,-12
32-13,34693956,-21
32-14,34697862,-33
32-15,34701768,-47
32-16,34705674,-48
32-17,34709580,-31
32-18,34713486,-15
32-19,34717392,-10
32-20,34721298,-8
32-21,34725204,8
32-22,34729110,36
32-23,34733016,59
32-24,34736922,63
32-25,34740828,50
32-26,34744734,46
32-27,34748640,53
32-28,34752546,53
32-29,34756452,37
32-30,34760358,7
32-31,34764264,-25
32-32,34768170,-41
32-1,34772082,-35
32-2,34775988,-13
32-3,34779894,10
32-4,34783800,15
32-5,34787706,18
32-6,34791612,19
32-7,34795518,17
32-8,34799424,20
32-9,34803330,31
32-10,34807236,50
32-11,34811142,68
32-12,34815048,67
32-13,34818954,47
32-14,34822860,24
32-15,34826766,7
32-16,34830672,-15
32-17,34834578,-42
32-18,34838484,-61
32-19,34842390,-43
32-20,34846296,11
32-21,34850202,70
32-22,34854108,103
32-23,34858014,117
32-24,34861920,109
32-25,34865826,76
32-26,34869732,49
32-27,34873638,40
32-28,34877544,55
32-29,34881450,75
32-30,34885356,74
32-31,34889262,55
32-32,34893168,39
32-1,34897079,30
32-2,34900985,29
32-3,34904891,34
32-4,34908797,44
32-5,34912703,76
32-6,34916609,95
32-7,34920515,82
32-8,34924421,52
32-9,34928327,26
32-10,34932233,10
32-11,34936139,3
32-12,34940045,-2
32-13,34943951,-3
32-14,34947857,0
32-15,34951763,-2
32-16,34955669,-1
32-17,34959575,2
32-18,34963481,7
32-19,34967387,15
32-20,34971293,21
32-21,34975199,30
32-22,34979105,40
32-23,34983011,59
32-24,34986917,83
32-25,34990823,98
32-26,34994729,110
32-27,34998635,115
32-28,35002541,116
32-29,35006447,123
32-30,35010353,124
32-31,35014259,109
32-32,35018165,85
32-1,35022077,59
32-2,35025983,45
32-3,35029889,36
32-4,35033795,14
32-5,35037701,3
32-6,35041607,-1
32-7,35045513,-5
32-8,35049419,-12
32-9,35053325,-25
32-10,35057231,-31
32-11,35061137,-23
32-12,35065043,-16
32-13,35068949,-16
32-14,35072855,-19
32-15,35076761,-20
32-16,35080667,-20
32-17,35084573,-23
32-18,35088479,-31
32-19,35092385,-43
32-20,35096291,-52
32-21,35100197,-50
32-22,35104103,-38
32-23,35108009,-12
32-24,35111915,9
32-25,35115821,4
32-26,35119727,-6
32-27,35123633,2
32-28,35127539,25
32-29,35131445,38
32-30,35135351,17
32-31,35139257,-22
32-32,35143163,-42
32-1,35147105,-34
32-2,35151011,-8
32-3,35154917,6
32-4,35158823,-14
32-5,35162729,-46
32-6,35166635,-76
32-7,35170541,-91
32-8,35174447,-81
32-9,35178353,-61
32-10,35182259,-50
32-11,35186165,-53
32-12,35190071,-57
32-13,35193977,-50
32-14,35197883,-41
32-15,35201789,-42
32-16,35205695,-52
32-17,35209601,-57
32-18,35213507,-50
32-19,35217413,-35
32-20,35221319,-26
32-21,35225225,-22
32-22,35229131,-24
32-23,35233037,-21
32-24,35236943,-20
32-25,35240849,-33
32-26,35244755,-33
32-27,35248661,-7
32-28,35252567,33
32-29,35256473,57
32-30,35260379,30
32-31,35264285,-41
32-32,35268191,-112
32-1,35272072,-145
32-2,35275978,-120
32-3,35279884,-59
32-4,35283790,-10
32-5,35287696,6
32-6,35291602,-17
32-7,35295508,-58
32-8,35299414,-81
32-9,35303320,-74
32-10,35307226,-46
32-11,35311132,-21
32-12,35315038,-7
32-13,35318944,-3
32-14,35322850,4
32-15,35326756,18
32-16,35330662,31
32-17,35334568,35
32-18,35338474,31
32-19,35342380,25
32-20,35346286,24
32-21,35350192,32
32-22,35354098,40
32-23,35358004,42
32-24,35361910,26
32-25,35365816,-18
32-26,35369722,-50
32-27,35373628,-49
32-28,35377534,-23
32-29,35381440,-1
32-30,35385346,-14
32-31,35389252,-57
32-32,35393158,-95
32-1,35397070,-105
32-2,35400976,-93
32-3,35404882,-79
32-4,35408788,-80
32-5,35412694,-81
32-6,35416600,-75
32-7,35420506,-71
32-8,35424412,-63
32-9,35428318,-56
32-10,35432224,-58
32-11,35436130,-74
32-12,35440036,-102
32-13,35443942,-129
32-14,35447848,-134
32-15,35451754,-107
32-16,35455660,-71
32-17,35459566,-44
32-18,35463472,-37
32-19,35467378,-42
32-20,35471284,-42
32-21,35475190,-34
32-22,35479096,-23
32-23,35483002,-6
32-24,35486908,5
32-25,35490814,-7
32-26,35494720,-22
32-27,35498626,-29
32-28,35502532,-11
32-29,35506438,14
32-30,35510344,10
32-31,35514250,-28
32-32,35518156,-76
32-1,35522068,-115
32-2,35525974,-129
32-3,35529880,-125
32-4,35533786,-117
32-5,35537692,-98
32-6,35541598,-90
32-7,35545504,-106
32-8,35549410,-129
32-9,35553316,-140
32-10,35557222,-128
32-11,35561128,-108
32-12,35565034,-98
32-13,35568940,-102
32-14,35572846,-111
32-15,35576752,-115
32-16,35580658,-110
32-17,35584564,-102
32-18,35588470,-96
32-19,35592376,-89
32-20,35596282,-77
32-21,35600188,-68
32-22,35604094,-78
32-23,35608000,-103
32-24,35611906,-132
32-25,35615812,-151
32-26,35619718,-139
32-27,35623624,-111
32-28,35627530,-89
32-29,35631436,-87
32-30,35635342,-107
32-31,35639248,-136
32-32,35643154,-158
32-1,35647065,-165
32-2,35650971,-147
32-3,35654877,-111
32-4,35658783,-80
32-5,35662689,-55
32-6,35666595,-53
32-7,35670501,-68
32-8,35674407,-88
32-9,35678313,-101
32-10,35682219,-95
32-11,35686125,-72
32-12,35690031,-37
32-13,35693937,0
32-14,35697843,25
32-15,35701749,32
32-16,35705655,27
32-17,35709561,21
32-18,35713467,21
32-19,35717373,24
32-20,35721279,19
32-21,35725185,5
32-22,35729091,-7
32-23,35732997,5
32-24,35736903,30
32-25,35740809,39
32-26,35744715,41
32-27,35748621,40
32-28,35752527,39
32-29,35756433,33
32-30,35760339,9
32-31,35764245,-23
32-32,35768151,-42
32-1,35772063,-40
32-2,35775969,-14
32-3,35779875,17
32-4,35783781,36
32-5,35787687,50
32-6,35791593,52
32-7,35795499,43
32-8,35799405,38
32-9,35803311,38
32-10,35807217,39
32-11,35811123,33
32-12,35815029,25
32-13,35818935,26
32-14,35822841,35
32-15,35826747,43
32-16,35830653,43
32-17,35834559,27
32-18,35838465,2
32-19,35842371,-32
32-20,35846277,-71
32-21,35850183,-103
32-22,35854089,-120
32-23,35857995,-112
32-24,35861901,-89
32-25,35865807,-81
32-26,35869713,-79
32-27,35873619,-79
32-28,35877525,-77
32-29,35881431,-77
32-30,35885337,-92
32-31,35889243,-113
32-32,35893149,-116
32-1,35897122,-108
32-2,35901028,-93
32-3,35904934,-93
32-4,35908840,-127
32-5,35912746,-171
32-6,35916652,-201
32-7,35920558,-204
32-8,35924464,-181
32-9,35928370,-166
32-10,35932276,-177
32-11,35936182,-198
32-12,35940088,-193
32-13,35943994,-144
32-14,35947900,-81
32-15,35951806,-46
32-16,35955712,-48
32-17,35959618,-65
32-18,35963524,-63
32-19,35967430,-41
32-20,35971336,-16
32-21,35975242,-3
32-22,35979148,-6
32-23,35983054,-9
32-24,35986960,-19
32-25,35990866,-45
32-26,35994772,-62
32-27,35998678,-58
32-28,36002584,-34
32-29,36006490,-14
32-30,36010396,-26
32-31,36014302,-58
32-32,36018208,-80
32-1,36022089,-74
32-2,36025995,-46
32-3,36029901,-32
32-4,36033807,-43
32-5,36037713,-48
32-6,36041619,-38
32-7,36045525,-19
32-8,36049431,-4
32-9,36053337,-1
32-10,36057243,-2
32-11,36061149,-9
32-12,36065055,-26
32-13,36068961,-48
32-14,36072867,-66
32-15,36076773,-73
32-16,36080679,-74
32-17,36084585,-77
32-18,36088491,-82
32-19,36092397,-75
32-20,36096303,-64
32-21,36100209,-56
32-22,36104115,-58
32-23,36108021,-59
32-24,36111927,-54
32-25,36115833,-57
32-26,36119739,-52
32-27,36123645,-32
32-28,36127551,-2
32-29,36131457,21
32-30,36135363,17
32-31,36139269,-13
32-32,36143175,-39
32-1,36147056,-48
32-2,36150962,-41
32-3,36154868,-35
32-4,36158774,-44
32-5,36162680,-46
32-6,36166586,-41
32-7,36170492,-43
32-8,36174398,-49
32-9,36178304,-52
32-10,36182210,-46
32-11,36186116,-38
32-12,36190022,-42
32-13,36193928,-60
32-14,36197834,-76
32-15,36201740,-72
32-16,36205646,-45
32-17,36209552,-14
32-18,36213458,6
32-19,36217364,11
32-20,36221270,12
32-21,36225176,15
32-22,36229082,12
32-23,36232988,9
32-24,36236894,5
32-25,36240800,-16
32-26,36244706,-26
32-27,36248612,-12
32-28,36252518,10
32-29,36256424,17
32-30,36260330,-19
32-31,36264236,-80
32-32,36268142,-122
32-1,36272053,-119
32-2,36275959,-84
32-3,36279865,-51
32-4,36283771,-45
32-5,36287677,-38
32-6,36291583,-18
32-7,36295489,5
32-8,36299395,27
32-9,36303301,40
32-10,36307207,45
32-11,36311113,45
32-12,36315019,44
32-13,36318925,45
32-14,36322831,40
32-15,36326737,35
32-16,36330643,33
32-17,36334549,32
32-18,36338455,35
32-19,36342361,44
32-20,36346267,57
32-21,36350173,73
32-22,36354079,82
32-23,36357985,78
32-24,36361891,63
32-25,36365797,34
32-26,36369703,20
32-27,36373609,25
32-28,36377515,34
32-29,36381421,29
32-30,36385327,0
32-31,36389233,-36
32-32,36393139,-54
32-1,36397051,-52
32-2,36400957,-34
32-3,36404863,-19
32-4,36408769,-18
32-5,36412675,-15
32-6,36416581,-16
32-7,36420487,-32
32-8,36424393,-63
32-9,36428299,-104
32-10,36432205,-135
32-11,36436111,-141
32-12,36440017,-127
32-13,36443923,-105
32-14,36447829,-85
32-15,36451735,-70
32-16,36455641,-57
32-17,36459547,-47
32-18,36463453,-39
32-19,36467359,-30
32-20,36471265,-18
32-21,36475171,-3
32-22,36479077,5
32-23,36482983,6
32-24,36486889,-6
32-25,36490795,-25
32-26,36494701,-24
32-27,36498607,1
32-28,36502513,33
32-29,36506419,45
32-30,36510325,21
32-31,36514231,-23
32-32,36518137,-58
32-1,36522049,-69
32-2,36525955,-59
32-3,36529861,-40
32-4,36533767,-24
32-5,36537673,-1
32-6,36541579,18
32-7,36545485,29
32-8,36549391,33
32-9,36553297,31
32-10,36557203,21
32-11,36561109,5
32-12,36565015,-9
32-13,36568921,-22
32-14,36572827,-35
32-15,36576733,-45
32-16,36580639,-45
32-17,36584545,-38
32-18,36588451,-34
32-19,36592357,-40
32-20,36596263,-48
32-21,36600169,-48
32-22,36604075,-33
32-23,36607981,-7
32-24,36611887,10
32-25,36615793,5
32-26,36619699,12
32-27,36623605,39
32-28,36627511,67
32-29,36631417,66
32-30,36635323,16
32-31,36639229,-56
32-32,36643135,-103
32-1,36647107,-103
32-2,36651013,-66
32-3,36654919,-29
32-4,36658825,-17
32-5,36662731,-15
32-6,36666637,-19
32-7,36670543,-30
32-8,36674449,-37
32-9,36678355,-38
32-10,36682261,-36
32-11,36686167,-39
32-12,36690073,-46
32-13,36693979,-57
32-14,36697885,-62
32-15,36701791,-62
32-16,36705697,-59
32-17,36709603,-57
32-18,36713509,-61
32-19,36717415,-67
32-20,36721321,-69
32-21,36725227,-70
32-22,36729133,-70
32-23,36733039,-62
32-24,36736945,-49
32-25,36740851,-37
32-26,36744757,-16
32-27,36748663,11
32-28,36752569,36
32-29,36756475,40
32-30,36760381,18
32-31,36764287,-13
32-32,36768193,-28
32-1,36772105,-24
32-2,36776011,-17
32-3,36779917,-26
32-4,36783823,-50
32-5,36787729,-63
32-6,36791635,-63
32-7,36795541,-60
32-8,36799447,-62
32-9,36803353,-70
32-10,36807259,-80
32-11,36811165,-83
32-12,36815071,-77
32-13,36818977,-74
32-14,36822883,-75
32-15,36826789,-85
32-16,36830695,-100
32-17,36834601,-107
32-18,36838507,-98
32-19,36842413,-74
32-20,36846319,-49
32-21,36850225,-31
32-22,36854131,-35
32-23,36858037,-54
32-24,36861943,-81
32-25,36865849,-109
32-26,36869755,-97
32-27,36873661,-45
32-28,36877567,25
32-29,36881473,76
32-30,36885379,73
32-31,36889285,38
32-32,36893191,11
32-1,36897042,0
32-2,36900948,0
32-3,36904854,-7
32-4,36908760,-31
32-5,36912666,-43
32-6,36916572,-45
32-7,36920478,-55
32-8,36924384,-79
32-9,36928290,-112
32-10,36932196,-124
32-11,36936102,-99
32-12,36940008,-54
32-13,36943914,-21
32-14,36947820,-21
32-15,36951726,-40
32-16,36955632,-50
32-17,36959538,-40
32-18,36963444,-25
32-19,36967350,-22
32-20,36971256,-38
32-21,36975162,-56
32-22,36979068,-62
32-23,36982974,-55
32-24,36986880,-56
32-25,36990786,-90
32-26,36994692,-117
32-27,36998598,-97
32-28,37002504,-34
32-29,37006410,29
32-30,37010316,41
32-31,37014222,1
32-32,37018128,-46
32-1,37022039,-62
32-2,37025945,-53
32-3,37029851,-43
32-4,37033757,-52
32-5,37037663,-56
32-6,37041569,-41
32-7,37045475,-23
32-8,37049381,-6
32-9,37053287,6
32-10,37057193,17
32-11,37061099,15
32-12,37065005,-3
32-13,37068911,-22
32-14,37072817,-30
32-15,37076723,-22
32-16,37080629,-15
32-17,37084535,-17
32-18,37088441,-31
32-19,37092347,-46
32-20,37096253,-53
32-21,37100159,-50
32-22,37104065,-46
32-23,37107971,-37
32-24,37111877,-30
32-25,37115783,-37
32-26,37119689,-41
32-27,37123595,-36
32-28,37127501,-26
32-29,37131407,-28
32-30,37135313,-51
32-31,37139219,-73
32-32,37143125,-74
32-1,37147037,-47
32-2,37150943,-3
32-3,37154849,31
32-4,37158755,44
32-5,37162661,46
32-6,37166567,37
32-7,37170473,24
32-8,37174379,15
32-9,37178285,7
32-10,37182191,0
32-11,37186097,-17
32-12,37190003,-38
32-13,37193909,-48
32-14,37197815,-40
32-15,37201721,-20
32-16,37205627,-10
32-17,37209533,-19
32-18,37213439,-29
32-19,37217345,-32
32-20,37221251,-20
32-21,37225157,3
32-22,37229063,18
32-23,37232969,23
32-24,37236875,7
32-25,37240781,-25
32-26,37244687,-48
32-27,37248593,-56
32-28,37252499,-54
32-29,37256405,-61
32-30,37260311,-88
32-31,37264217,-118
32-32,37268123,-131
32-1,37272034,-120
32-2,37275940,-95
32-3,37279846,-68
32-4,37283752,-41
32-5,37287658,-3
32-6,37291564,33
32-7,37295470,47
32-8,37299376,39
32-9,37303282,21
32-10,37307188,12
32-11,37311094,20
32-12,37315000,30
32-13,37318906,21
32-14,37322812,-10
32-15,37326718,-45
32-16,37330624,-69
32-17,37334530,-82
32-18,37338436,-90
32-19,37342342,-93
32-20,37346248,-89
32-21,37350154,-80
32-22,37354060,-76
32-23,37357966,-81
32-24,37361872,-88
32-25,37365778,-90
32-26,37369684,-72
32-27,37373590,-39
32-28,37377496,-4
32-29,37381402,19
32-30,37385308,19
32-31,37389214,2
32-32,37393120,-12
32-1,37397093,-24
32-2,37400999,-33
32-3,37404905,-46
32-4,37408811,-64
32-5,37412717,-68
32-6,37416623,-68
32-7,37420529,-78
32-8,37424435,-87
32-9,37428341,-94
32-10,37432247,-95
32-11,37436153,-95
32-12,37440059,-98
32-13,37443965,-97
32-14,37447871,-76
32-15,37451777,-46
32-16,37455683,-29
32-17,37459589,-35
32-18,37463495,-55
32-19,37467401,-62
32-20,37471307,-44
32-21,37475213,-14
32-22,37479119,11
32-23,37483025,25
32-24,37486931,21
32-25,37490837,-6
32-26,37494743,-33
32-27,37498649,-47
32-28,37502555,-46
32-29,37506461,-39
32-30,37510367,-47
32-31,37514273,-62
32-32,37518179,-71
32-1,37522121,-74
32-2,37526027,-69
32-3,37529933,-63
32-4,37533839,-64
32-5,37537745,-56
32-6,37541651,-44
32-7,37545557,-33
32-8,37549463,-14
32-9,37553369,4
32-10,37557275,4
32-11,37561181,-18
32-12,37565087,-51
32-13,37568993,-75
32-14,37572899,-80
32-15,37576805,-71
32-16,37580711,-55
32-17,37584617,-32
32-18,37588523,-10
32-19,37592429,0
32-20,37596335,-2
32-21,37600241,-8
32-22,37604147,-2
32-23,37608053,21
32-24,37611959,38
32-25,37615865,28
32-26,37619771,18
32-27,37623677,30
32-28,37627583,57
32-29,37631489,70
32-30,37635395,43
32-31,37639301,-8
32-32,37643207,-49
32-1,37647027,-64
32-2,37650933,-61
32-3,37654839,-66
32-4,37658745,-88
32-5,37662651,-95
32-6,37666557,-76
32-7,37670463,-47
32-8,37674369,-17
32-9,37678275,9
32-10,37682181,27
32-11,37686087,38
32-12,37689993,48
32-13,37693899,47
32-14,37697805,36
32-15,37701711,27
32-16,37705617,32
32-17,37709523,41
32-18,37713429,39
32-19,37717335,19
32-20,37721241,-15
32-21,37725147,-49
32-22,37729053,-74
32-23,37732959,-68
32-24,37736865,-38
32-25,37740771,-17
32-26,37744677,1
32-27,37748583,16
32-28,37752489,28
32-29,37756395,34
32-30,37760301,26
32-31,37764207,4
32-32,37768113,-24
32-1,37772025,-55
32-2,37775931,-82
32-3,37779837,-95
32-4,37783743,-103
32-5,37787649,-93
32-6,37791555,-87
32-7,37795461,-101
32-8,37799367,-111
32-9,37803273,-104
32-10,37807179,-82
32-11,37811085,-63
32-12,37814991,-47
32-13,37818897,-31
32-14,37822803,-16
32-15,37826709,-9
32-16,37830615,-16
32-17,37834521,-20
32-18,37838427,-12
32-19,37842333,0
32-20,37846239,-1
32-21,37850145,-15
32-22,37854051,-29
32-23,37857957,-27
32-24,37861863,-21
32-25,37865769,-28
32-26,37869675,-21
32-27,37873581,11
32-28,37877487,54
32-29,37881393,73
32-30,37885299,34
32-31,37889205,-36
32-32,37893111,-90
32-1,37897023,-108
32-2,37900929,-97
32-3,37904835,-85
32-4,37908741,-86
32-5,37912647,-75
32-6,37916553,-55
32-7,37920459,-30
32-8,37924365,-9
32-9,37928271,-2
32-10,37932177,-4
32-11,37936083,-10
32-12,37939989,-15
32-13,37943895,-10
32-14,37947801,4
32-15,37951707,16
32-16,37955613,21
32-17,37959519,11
32-18,37963425,-5
32-19,37967331,-19
32-20,37971237,-32
32-21,37975143,-43
32-22,37979049,-53
32-23,37982955,-59
32-24,37986861,-64
32-25,37990767,-70
32-26,37994673,-59
32-27,37998579,-27
32-28,38002485,17
32-29,38006391,46
32-30,38010297,40
32-31,38014203,3
32-32,38018109,-41
32-1,38022020,-77
32-2,38025926,-93
32-3,38029832,-81
32-4,38033738,-54
32-5,38037644,-17
32-6,38041550,3
32-7,38045456,-3
32-8,38049362,-23
32-9,38053268,-41
32-10,38057174,-52
32-11,38061080,-60
32-12,38064986,-54
32-13,38068892,-31
32-14,38072798,3
32-15,38076704,30
32-16,38080610,37
32-17,38084516,21
32-18,38088422,-11
32-19,38092328,-39
32-20,38096234,-53
32-21,38100140,-45
32-22,38104046,-22
32-23,38107952,6
32-24,38111858,27
32-25,38115764,27
32-26,38119670,31
32-27,38123576,41
32-28,38127482,54
32-29,38131388,61
32-30,38135294,49
32-31,38139200,22
32-32,38143106,-5
32-1,38147079,-29
32-2,38150985,-45
32-3,38154891,-49
32-4,38158797,-38
32-5,38162703,-5
32-6,38166609,24
32-7,38170515,25
32-8,38174421,18
32-9,38178327,24
32-10,38182233,50
32-11,38186139,79
32-12,38190045,85
32-13,38193951,56
32-14,38197857,14
32-15,38201763,-22
32-16,38205669,-40
32-17,38209575,-38
32-18,38213481,-27
32-19,38217387,-12
32-20,38221293,0
32-21,38225199,3
32-22,38229105,-6
32-23,38233011,-9
32-24,38236917,-10
32-25,38240823,-6
32-26,38244729,16
32-27,38248635,53
32-28,38252541,81
32-29,38256447,67
32-30,38260353,4
32-31,38264259,-74
32-32,38268165,-123
32-1,38272107,-127
32-2,38276013,-99
32-3,38279919,-72
32-4,38283825,-66
32-5,38287731,-61
32-6,38291637,-52
32-7,38295543,-43
32-8,38299449,-37
32-9,38303355,-29
32-10,38307261,-14
32-11,38311167,1
32-12,38315073,8
32-13,38318979,0
32-14,38322885,-17
32-15,38326791,-28
32-16,38330697,-28
32-17,38334603,-24
32-18,38338509,-29
32-19,38342415,-53
32-20,38346321,-82
32-21,38350227,-101
32-22,38354133,-103
32-23,38358039,-78
32-24,38361945,-45
32-25,38365851,-37
32-26,38369757,-33
32-27,38373663,-29
32-28,38377569,-24
32-29,38381475,-27
32-30,38385381,-52
32-31,38389287,-81
32-32,38393193,-89
32-1,38397013,-75
32-2,38400919,-46
32-3,38404825,-31
32-4,38408731,-46
32-5,38412637,-61
32-6,38416543,-68
32-7,38420449,-62
32-8,38424355,-40
32-9,38428261,-11
32-10,38432167,9
32-11,38436073,12
32-12,38439979,0
32-13,38443885,-16
32-14,38447791,-22
32-15,38451697,-10
32-16,38455603,10
32-17,38459509,30
32-18,38463415,42
32-19,38467321,50
32-20,38471227,52
32-21,38475133,47
32-22,38479039,32
32-23,38482945,19
32-24,38486851,6
32-25,38490757,-25
32-26,38494663,-44
32-27,38498569,-35
32-28,38502475,-9
32-29,38506381,6
32-30,38510287,-28
32-31,38514193,-100
32-32,38518099,-158
32-1,38522041,-174
32-2,38525947,-146
32-3,38529853,-99
32-4,38533759,-64
32-5,38537665,-30
32-6,38541571,0
32-7,38545477,8
32-8,38549383,0
32-9,38553289,-19
32-10,38557195,-34
32-11,38561101,-35
32-12,38565007,-23
32-13,38568913,-2
32-14,38572819,15
32-15,38576725,15
32-16,38580631,2
32-17,38584537,-19
32-18,38588443,-41
32-19,38592349,-60
32-20,38596255,-78
32-21,38600161,-86
32-22,38604067,-86
32-23,38607973,-73
32-24,38611879,-57
32-25,38615785,-52
32-26,38619691,-44
32-27,38623597,-32
32-28,38627503,-24
32-29,38631409,-29
32-30,38635315,-57
32-31,38639221,-95
32-32,38643127,-114
32-1,38647008,-106
32-2,38650914,-80
32-3,38654820,-59
32-4,38658726,-60
32-5,38662632,-70
32-6,38666538,-82
32-7,38670444,-80
32-8,38674350,-65
32-9,38678256,-51
32-10,38682162,-46
32-11,38686068,-52
32-12,38689974,-59
32-13,38693880,-64
32-14,38697786,-64
32-15,38701692,-52
32-16,38705598,-42
32-17,38709504,-40
32-18,38713410,-48
32-19,38717316,-64
32-20,38721222,-69
32-21,38725128,-50
32-22,38729034,-24
32-23,38732940,-9
32-24,38736846,-25
32-25,38740752,-72
32-26,38744658,-101
32-27,38748564,-93
32-28,38752470,-62
32-29,38756376,-32
32-30,38760282,-32
32-31,38764188,-50
32-32,38768094,-47
32-1,38772006,-20
32-2,38775912,15
32-3,38779818,28
32-4,38783724,5
32-5,38787630,-19
32-6,38791536,-29
32-7,38795442,-29
32-8,38799348,-21
32-9,38803254,-17
32-10,38807160,-18
32-11,38811066,-26
32-12,38814972,-31
32-13,38818878,-28
32-14,38822784,-12
32-15,38826690,11
32-16,38830596,31
32-17,38834502,36
32-18,38838408,27
32-19,38842314,14
32-20,38846220,7
32-21,38850126,13
32-22,38854032,23
32-23,38857938,37
32-24,38861844,44
32-25,38865750,36
32-26,38869656,36
32-27,38873562,52
32-28,38877468,72
32-29,38881374,74
32-30,38885280,37
32-31,38889186,-23
32-32,38893092,-72
32-1,38897065,-94
32-2,38900971,-86
32-3,38904877,-63
32-4,38908783,-47
32-5,38912689,-35
32-6,38916595,-33
32-7,38920501,-44
32-8,38924407,-51
32-9,38928313,-54
32-10,38932219,-50
32-11,38936125,-42
32-12,38940031,-37
32-13,38943937,-39
32-14,38947843,-49
32-15,38951749,-59
32-16,38955655,-60
32-17,38959561,-36
32-18,38963467,8
32-19,38967373,49
32-20,38971279,68
32-21,38975185,62
32-22,38979091,41
32-23,38982997,26
32-24,38986903,13
32-25,38990809,-11
32-26,38994715,-32
32-27,38998621,-48
32-28,39002527,-56
32-29,39006433,-63
32-30,39010339,-85
32-31,39014245,-110
32-32,39018151,-126
32-1,39022123,-123
32-2,39026029,-96
32-3,39029935,-57
32-4,39033841,-26
32-5,39037747,3
32-6,39041653,27
32-7,39045559,44
32-8,39049465,57
32-9,39053371,56
32-10,39057277,40
32-11,39061183,11
32-12,39065089,-22
32-13,39068995,-39
32-14,39072901,-36
32-15,39076807,-20
32-16,39080713,1
32-17,39084619,17
32-18,39088525,22
32-19,39092431,19
32-20,39096337,7
32-21,39100243,-14
32-22,39104149,-44
32-23,39108055,-66
32-24,39111961,-76
32-25,39115867,-78
32-26,39119773,-59
32-27,39123679,-28
32-28,39127585,0
32-29,39131491,0
32-30,39135397,-35
32-31,39139303,-84
32-32,39143209,-116
32-1,39147090,-121
32-2,39150996,-100
32-3,39154902,-74
32-4,39158808,-52
32-5,39162714,-20
32-6,39166620,8
32-7,39170526,17
32-8,39174432,13
32-9,39178338,6
32-10,39182244,8
32-11,39186150,6
32-12,39190056,-7
32-13,39193962,-25
32-14,39197868,-42
32-15,39201774,-48
32-16,39205680,-52
32-17,39209586,-63
32-18,39213492,-70
32-19,39217398,-59
32-20,39221304,-25
32-21,39225210,18
32-22,39229116,42
32-23,39233022,44
32-24,39236928,26
32-25,39240834,-12
32-26,39244740,-23
32-27,39248646,5
32-28,39252552,46
32-29,39256458,58
32-30,39260364,14
32-31,39264270,-63
32-32,39268176,-121
32-1,39271997,-139
32-2,39275903,-127
32-3,39279809,-112
32-4,39283715,-110
32-5,39287621,-101
32-6,39291527,-80
32-7,39295433,-59
32-8,39299339,-36
32-9,39303245,-14
32-10,39307151,0
32-11,39311057,-7
32-12,39314963,-28
32-13,39318869,-47
32-14,39322775,-49
32-15,39326681,-34
32-16,39330587,-26
32-17,39334493,-43
32-18,39338399,-73
32-19,39342305,-96
32-20,39346211,-98
32-21,39350117,-86
32-22,39354023,-75
32-23,39357929,-68
32-24,39361835,-62
32-25,39365741,-65
32-26,39369647,-58
32-27,39373553,-37
32-28,39377459,-7
32-29,39381365,22
32-30,39385271,21
32-31,39389177,-15
32-32,39393083,-62
32-1,39396994,-92
32-2,39400900,-90
32-3,39404806,-74
32-4,39408712,-65
32-5,39412618,-63
32-6,39416524,-66
32-7,39420430,-69
32-8,39424336,-66
32-9,39428242,-57
32-10,39432148,-47
32-11,39436054,-42
32-12,39439960,-44
32-13,39443866,-47
32-14,39447772,-42
32-15,39451678,-25
32-16,39455584,-7
32-17,39459490,3
32-18,39463396,0
32-19,39467302,-10
32-20,39471208,-22
32-21,39475114,-32
32-22,39479020,-39
32-23,39482926,-38
32-24,39486832,-34
32-25,39490738,-37
32-26,39494644,-33
32-27,39498550,-19
32-28,39502456,0
32-29,39506362,6
32-30,39510268,-14
32-31,39514174,-54
32-32,39518080,-91
32-1,39521992,-116
32-2,39525898,-124
32-3,39529804,-122
32-4,39533710,-115
32-5,39537616,-95
32-6,39541522,-79
32-7,39545428,-76
32-8,39549334,-76
32-9,39553240,-66
32-10,39557146,-45
32-11,39561052,-16
32-12,39564958,11
32-13,39568864,25
32-14,39572770,21
32-15,39576676,-6
32-16,39580582,-39
32-17,39584488,-66
32-18,39588394,-68
32-19,39592300,-42
32-20,39596206,-5
32-21,39600112,27
32-22,39604018,38
32-23,39607924,38
32-24,39611830,28
32-25,39615736,12
32-26,39619642,17
32-27,39623548,43
32-28,39627454,64
32-29,39631360,59
32-30,39635266,25
32-31,39639172,-17
32-32,39643078,-36
32-1,39646989,-26
32-2,39650895,-5
32-3,39654801,9
32-4,39658707,4
32-5,39662613,2
32-6,39666519,8
32-7,39670425,8
32-8,39674331,1
32-9,39678237,-13
32-10,39682143,-26
32-11,39686049,-26
32-12,39689955,-7
32-13,39693861,17
32-14,39697767,26
32-15,39701673,20
32-16,39705579,2
32-17,39709485,-15
32-18,39713391,-27
32-19,39717297,-34
32-20,39721203,-34
32-21,39725109,-35
32-22,39729015,-44
32-23,39732921,-51
32-24,39736827,-60
32-25,39740733,-76
32-26,39744639,-84
32-27,39748545,-82
32-28,39752451,-78
32-29,39756357,-84
32-30,39760263,-109
32-31,39764169,-141
32-32,39768075,-158
32-1,39772323,-160
32-2,39776229,-139
32-3,39780135,-110
32-4,39784041,-84
32-5,39787947,-53
32-6,39791853,-35
32-7,39795759,-40
32-8,39799665,-48
32-9,39803571,-43
32-10,39807477,-18
32-11,39811383,11
32-12,39815289,23
32-13,39819195,15
32-14,39823101,-4
32-15,39827007,-16
32-16,39830913,-21
32-17,39834819,-22
32-18,39838725,-23
32-19,39842631,-26
32-20,39846537,-36
32-21,39850443,-55
32-22,39854349,-77
32-23,39858255,-77
32-24,39862161,-63
32-25,39866067,-56
32-26,39869973,-48
32-27,39873879,-35
32-28,39877785,-16
32-29,39881691,-4
32-30,39885597,-23
32-31,39889503,-60
32-32,39893409,-80
32-1,39896985,-65
32-2,39900891,-24
32-3,39904797,2
32-4,39908703,-9
32-5,39912609,-29
32-6,39916515,-44
32-7,39920421,-46
32-8,39924327,-39
32-9,39928233,-37
32-10,39932139,-46
32-11,39936045,-68
32-12,39939951,-88
32-13,39943857,-102
32-14,39947763,-115
32-15,39951669,-124
32-16,39955575,-128
32-17,39959481,-125
32-18,39963387,-115
32-19,39967293,-103
32-20,39971199,-94
32-21,39975105,-83
32-22,39979011,-74
32-23,39982917,-62
32-24,39986823,-61
32-25,39990729,-81
32-26,39994635,-78
32-27,39998541,-32
32-28,40002447,34
32-29,40006353,69
32-30,40010259,28
32-31,40014165,-67
32-32,40018071,-155
32-1,40021982,-185
32-2,40025888,-156
32-3,40029794,-107
32-4,40033700,-81
32-5,40037606,-69
32-6,40041512,-64
32-7,40045418,-66
32-8,40049324,-69
32-9,40053230,-75
32-10,40057136,-83
32-11,40061042,-93
32-12,40064948,-100
32-13,40068854,-108
32-14,40072760,-122
32-15,40076666,-140
32-16,40080572,-156
32-17,40084478,-155
32-18,40088384,-135
32-19,40092290,-103
32-20,40096196,-73
32-21,40100102,-47
32-22,40104008,-34
32-23,40107914,-30
32-24,40111820,-38
32-25,40115726,-60
32-26,40119632,-65
32-27,40123538,-41
32-28,40127444,3
32-29,40131350,35
32-30,40135256,25
32-31,40139162,-14
32-32,40143068,-52
32-1,40146980,-73
32-2,40150886,-68
32-3,40154792,-55
32-4,40158698,-52
32-5,40162604,-52
32-6,40166510,-57
32-7,40170416,-64
32-8,40174322,-69
32-9,40178228,-71
32-10,40182134,-72
32-11,40186040,-76
32-12,40189946,-85
32-13,40193852,-88
32-14,40197758,-86
32-15,40201664,-82
32-16,40205570,-80
32-17,40209476,-83
32-18,40213382,-86
32-19,40217288,-80
32-20,40221194,-60
32-21,40225100,-32
32-22,40229006,-9
32-23,40232912,-1
32-24,40236818,-10
32-25,40240724,-27
32-26,40244630,-19
32-27,40248536,17
32-28,40252442,67
32-29,40256348,93
32-30,40260254,71
32-31,40264160,16
32-32,40268066,-35
32-1,40271978,-54
32-2,40275884,-37
32-3,40279790,-8
32-4,40283696,8
32-5,40287602,11
32-6,40291508,-6
32-7,40295414,-32
32-8,40299320,-48
32-9,40303226,-54
32-10,40307132,-54
32-11,40311038,-53
32-12,40314944,-43
32-13,40318850,-21
32-14,40322756,0
32-15,40326662,9
32-16,40330568,5
32-17,40334474,-5
32-18,40338380,-15
32-19,40342286,-22
32-20,40346192,-36
32-21,40350098,-55
32-22,40354004,-71
32-23,40357910,-70
32-24,40361816,-64
32-25,40365722,-70
32-26,40369628,-67
32-27,40373534,-49
32-28,40377440,-21
32-29,40381346,0
32-30,40385252,-2
32-31,40389158,-16
32-32,40393064,-25
32-1,40397189,-19
32-2,40401095,2
32-3,40405001,23
32-4,40408907,28
32-5,40412813,27
32-6,40416719,17
32-7,40420625,0
32-8,40424531,-14
32-9,40428437,-22
32-10,40432343,-30
32-11,40436249,-42
32-12,40440155,-51
32-13,40444061,-60
32-14,40447967,-69
32-15,40451873,-80
32-16,40455779,-89
32-17,40459685,-88
32-18,40463591,-77
32-19,40467497,-62
32-20,40471403,-54
32-21,40475309,-54
32-22,40479215,-57
32-23,40483121,-51
32-24,40487027,-31
32-25,40490933,-8
32-26,40494839,27
32-27,40498745,59
32-28,40502651,75
32-29,40506557,61
32-30,40510463,15
32-31,40514369,-45
32-32,40518275,-78
32-1,40522156,-70
32-2,40526062,-31
32-3,40529968,11
32-4,40533874,26
32-5,40537780,24
32-6,40541686,19
32-7,40545592,23
32-8,40549498,40
32-9,40553404,50
32-10,40557310,46
32-11,40561216,30
32-12,40565122,18
32-13,40569028,17
32-14,40572934,22
32-15,40576840,16
32-16,40580746,-7
32-17,40584652,-32
32-18,40588558,-43
32-19,40592464,-38
32-20,40596370,-29
32-21,40600276,-25
32-22,40604182,-32
32-23,40608088,-35
32-24,40611994,-30
32-25,40615900,-30
32-26,40619806,-17
32-27,40623712,10
32-28,40627618,39
32-29,40631524,48
32-30,40635430,19
32-31,40639336,-34
32-32,40643242,-78
32-1,40646971,-89
32-2,40650877,-67
32-3,40654783,-44
32-4,40658689,-52
32-5,40662595,-79
32-6,40666501,-112
32-7,40670407,-135
32-8,40674313,-125
32-9,40678219,-98
32-10,40682125,-79
32-11,40686031,-82
32-12,40689937,-92
32-13,40693843,-92
32-14,40697749,-78
32-15,40701655,-59
32-16,40705561,-48
32-17,40709467,-49
32-18,40713373,-56
32-19,40717279,-64
32-20,40721185,-69
32-21,40725091,-71
32-22,40728997,-69
32-23,40732903,-54
32-24,40736809,-32
32-25,40740715,-30
32-26,40744621,-28
32-27,40748527,-14
32-28,40752433,9
32-29,40756339,28
32-30,40760245,25
32-31,40764151,8
32-32,40768057,-5
32-1,40771968,-5
32-2,40775874,3
32-3,40779780,8
32-4,40783686,-4
32-5,40787592,-9
32-6,40791498,-10
32-7,40795404,-23
32-8,40799310,-50
32-9,40803216,-81
32-10,40807122,-103
32-11,40811028,-113
32-12,40814934,-107
32-13,40818840,-94
32-14,40822746,-82
32-15,40826652,-69
32-16,40830558,-54
32-17,40834464,-38
32-18,40838370,-20
32-19,40842276,-1
32-20,40846182,15
32-21,40850088,26
32-22,40853994,36
32-23,40857900,42
32-24,40861806,36
32-25,40865712,11
32-26,40869618,-15
32-27,40873524,-33
32-28,40877430,-37
32-29,40881336,-25
32-30,40885242,-11
32-31,40889148,-7
32-32,40893054,-6
32-1,40896966,3
32-2,40900872,25
32-3,40904778,53
32-4,40908684,71
32-5,40912590,77
32-6,40916496,66
32-7,40920402,50
32-8,40924308,45
32-9,40928214,54
32-10,40932120,69
32-11,40936026,85
32-12,40939932,102
32-13,40943838,124
32-14,40947744,152
32-15,40951650,179
32-16,40955556,183
32-17,40959462,157
32-18,40963368,108
32-19,40967274,58
32-20,40971180,17
32-21,40975086,-11
32-22,40978992,-33
32-23,40982898,-38
32-24,40986804,-33
32-25,40990710,-28
32-26,40994616,-12
32-27,40998522,16
32-28,41002428,46
32-29,41006334,63
32-30,41010240,47
32-31,41014146,10
32-32,41018052,-26
32-1,41021963,-47
32-2,41025869,-53
32-3,41029775,-55
32-4,41033681,-51
32-5,41037587,-24
32-6,41041493,11
32-7,41045399,38
32-8,41049305,57
32-9,41053211,73
32-10,41057117,87
32-11,41061023,99
32-12,41064929,107
32-13,41068835,113
32-14,41072741,114
32-15,41076647,100
32-16,41080553,70
32-17,41084459,34
32-18,41088365,15
32-19,41092271,23
32-20,41096177,37
32-21,41100083,40
32-22,41103989,22
32-23,41107895,-3
32-24,41111801,-27
32-25,41115707,-54
32-26,41119613,-69
32-27,41123519,-65
32-28,41127425,-47
32-29,41131331,-25
32-30,41135237,-17
32-31,41139143,-23
32-32,41143049,-25
32-1,41146961,-18
32-2,41150867,-2
32-3,41154773,12
32-4,41158679,13
32-5,41162585,24
32-6,41166491,47
32-7,41170397,70
32-8,41174303,80
32-9,41178209,67
32-10,41182115,41
32-11,41186021,25
32-12,41189927,27
32-13,41193833,34
32-14,41197739,33
32-15,41201645,19
32-16,41205551,-2
32-17,41209457,-25
32-18,41213363,-50
32-19,41217269,-69
32-20,41221175,-70
32-21,41225081,-49
32-22,41228987,-17
32-23,41232893,15
32-24,41236799,30
32-25,41240705,19
32-26,41244611,9
32-27,41248517,10
32-28,41252423,19
32-29,41256329,19
32-30,41260235,-7
32-31,41264141,-50
32-32,41268047,-82
32-1,41272172,-92
32-2,41276078,-79
32-3,41279984,-64
32-4,41283890,-66
32-5,41287796,-71
32-6,41291702,-72
32-7,41295608,-63
32-8,41299514,-46
32-9,41303420,-32
32-10,41307326,-29
32-11,41311232,-36
32-12,41315138,-47
32-13,41319044,-57
32-14,41322950,-71
32-15,41326856,-90
32-16,41330762,-105
32-17,41334668,-103
32-18,41338574,-89
32-19,41342480,-73
32-20,41346386,-64
32-21,41350292,-55
32-22,41354198,-40
32-23,41358104,-13
32-24,41362010,7
32-25,41365916,-5
32-26,41369822,-26
32-27,41373728,-37
32-28,41377634,-31
32-29,41381540,-19
32-30,41385446,-17
32-31,41389352,-28
32-32,41393258,-30
32-1,41396956,-22
32-2,41400862,-14
32-3,41404768,-20
32-4,41408674,-42
32-5,41412580,-49
32-6,41416486,-35
32-7,41420392,-13
32-8,41424298,5
32-9,41428204,6
32-10,41432110,-2
32-11,41436016,-6
32-12,41439922,2
32-13,41443828,9
32-14,41447734,6
32-15,41451640,-5
32-16,41455546,-14
32-17,41459452,-12
32-18,41463358,-4
32-19,41467264,0
32-20,41471170,-3
32-21,41475076,-4
32-22,41478982,1
32-23,41482888,14
32-24,41486794,22
32-25,41490700,1
32-26,41494606,-13
32-27,41498512,3
32-28,41502418,37
32-29,41506324,54
32-30,41510230,27
32-31,41514136,-30
32-32,41518042,-68
32-1,41521954,-72
32-2,41525860,-55
32-3,41529766,-44
32-4,41533672,-59
32-5,41537578,-70
32-6,41541484,-71
32-7,41545390,-71
32-8,41549296,-68
32-9,41553202,-68
32-10,41557108,-73
32-11,41561014,-79
32-12,41564920,-75
32-13,41568826,-60
32-14,41572732,-38
32-15,41576638,-24
32-16,41580544,-25
32-17,41584450,-40
32-18,41588356,-60
32-19,41592262,-78
32-20,41596168,-93
32-21,41600074,-102
32-22,41603980,-109
32-23,41607886,-111
32-24,41611792,-118
32-25,41615698,-138
32-26,41619604,-139
32-27,41623510,-110
32-28,41627416,-68
32-29,41631322,-39
32-30,41635228,-53
32-31,41639134,-92
32-32,41643040,-120
32-1,41646952,-116
32-2,41650858,-90
32-3,41654764,-65
32-4,41658670,-58
32-5,41662576,-53
32-6,41666482,-53
32-7,41670388,-64
32-8,41674294,-80
32-9,41678200,-85
32-10,41682106,-64
32-11,41686012,-23
32-12,41689918,9
32-13,41693824,7
32-14,41697730,-15
32-15,41701636,-36
32-16,41705542,-50
32-17,41709448,-61
32-18,41713354,-72
32-19,41717260,-86
32-20,41721166,-96
