32-1,302266465,-51
32-2,302270371,-32
32-3,302274277,-2
32-4,302278183,-2
32-5,302282089,-12
32-6,302285995,-3
32-7,302289901,8
32-8,302293807,-15
32-9,302297713,-53
32-10,302301619,-62
32-11,302305525,-51
32-12,302309431,-63
32-13,302313337,-96
32-14,302317243,-102
32-15,302321149,-71
32-16,302325055,-52
32-17,302328961,-67
32-18,302332867,-80
32-19,302336773,-56
32-20,302340679,-23
32-21,302344585,-21
32-22,302348491,-32
32-23,302352397,-14
32-24,302356303,20
32-25,302360209,28
32-26,302364115,21
32-27,302368021,34
32-28,302371927,58
32-29,302375833,47
32-30,302379739,1
32-31,302383645,-28
32-32,302387551,-13
32-1,302391463,3
32-2,302395369,-8
32-3,302399275,-17
32-4,302403181,-5
32-5,302407087,6
32-6,302410993,-14
32-7,302414899,-36
32-8,302418805,-24
32-9,302422711,0
32-10,302426617,-15
32-11,302430523,-55
32-12,302434429,-65
32-13,302438335,-44
32-14,302442241,-38
32-15,302446147,-63
32-16,302450053,-75
32-17,302453959,-49
32-18,302457865,-25
32-19,302461771,-42
32-20,302465677,-64
32-21,302469583,-54
32-22,302473489,-28
32-23,302477395,-33
32-24,302481301,-65
32-25,302485207,-88
32-26,302489113,-96
32-27,302493019,-113
32-28,302496925,-122
32-29,302500831,-85
32-30,302504737,-19
32-31,302508643,14
32-32,302512549,-2
32-1,302516460,-19
32-2,302520366,-2
32-3,302524272,12
32-4,302528178,-9
32-5,302532084,-30
32-6,302535990,-17
32-7,302539896,4
32-8,302543802,-15
32-9,302547708,-61
32-10,302551614,-79
32-11,302555520,-58
32-12,302559426,-44
32-13,302563332,-53
32-14,302567238,-62
32-15,302571144,-58
32-16,302575050,-65
32-17,302578956,-87
32-18,302582862,-83
32-19,302586768,-38
32-20,302590674,9
32-21,302594580,15
32-22,302598486,6
32-23,302602392,17
32-24,302606298,34
32-25,302610204,16
32-26,302614110,-19
32-27,302618016,-25
32-28,302621922,-5
32-29,302625828,-4
32-30,302629734,-28
32-31,302633640,-41
32-32,302637546,-28
32-1,302641458,-26
32-2,302645364,-50
32-3,302649270,-52
32-4,302653176,-10
32-5,302657082,37
32-6,302660988,39
32-7,302664894,11
32-8,302668800,1
32-9,302672706,11
32-10,302676612,7
32-11,302680518,-6
32-12,302684424,2
32-13,302688330,24
32-14,302692236,19
32-15,302696142,-9
32-16,302700048,-15
32-17,302703954,12
32-18,302707860,26
32-19,302711766,-7
32-20,302715672,-39
32-21,302719578,-24
32-22,302723484,4
32-23,302727390,2
32-24,302731296,-17
32-25,302735202,-18
32-26,302739108,-4
32-27,302743014,-14
32-28,302746920,-44
32-29,302750826,-51
32-30,302754732,-28
32-31,302758638,-18
32-32,302762544,-35
32-1,302766486,-44
32-2,302770392,-23
32-3,302774298,-6
32-4,302778204,-27
32-5,302782110,-53
32-6,302786016,-49
32-7,302789922,-27
32-8,302793828,-29
32-9,302797734,-39
32-10,302801640,-22
32-11,302805546,7
32-12,302809452,-6
32-13,302813358,-52
32-14,302817264,-74
32-15,302821170,-52
32-16,302825076,-25
32-17,302828982,-24
32-18,302832888,-25
32-19,302836794,-10
32-20,302840700,-4
32-21,302844606,-30
32-22,302848512,-53
32-23,302852418,-39
32-24,302856324,-12
32-25,302860230,-23
32-26,302864136,-54
32-27,302868042,-58
32-28,302871948,-34
32-29,302875854,-33
32-30,302879760,-64
32-31,302883666,-86
32-32,302887572,-81
32-1,302891453,-79
32-2,302895359,-98
32-3,302899265,-102
32-4,302903171,-68
32-5,302907077,-29
32-6,302910983,-23
32-7,302914889,-29
32-8,302918795,-11
32-9,302922701,17
32-10,302926607,15
32-11,302930513,-9
32-12,302934419,-12
32-13,302938325,4
32-14,302942231,-6
32-15,302946137,-40
32-16,302950043,-46
32-17,302953949,-3
32-18,302957855,40
32-19,302961761,40
32-20,302965667,21
32-21,302969573,18
32-22,302973479,19
32-23,302977385,-3
32-24,302981291,-28
32-25,302985197,-23
32-26,302989103,5
32-27,302993009,13
32-28,302996915,0
32-29,303000821,-1
32-30,303004727,10
32-31,303008633,0
32-32,303012539,-31
32-1,303016451,-37
32-2,303020357,-11
32-3,303024263,3
32-4,303028169,-30
32-5,303032075,-60
32-6,303035981,-53
32-7,303039887,-28
32-8,303043793,-31
32-9,303047699,-46
32-10,303051605,-33
32-11,303055511,-2
32-12,303059417,-1
32-13,303063323,-29
32-14,303067229,-46
32-15,303071135,-36
32-16,303075041,-36
32-17,303078947,-58
32-18,303082853,-67
32-19,303086759,-45
32-20,303090665,-25
32-21,303094571,-39
32-22,303098477,-58
32-23,303102383,-49
32-24,303106289,-37
32-25,303110195,-61
32-26,303114101,-92
32-27,303118007,-80
32-28,303121913,-34
32-29,303125819,-10
32-30,303129725,-23
32-31,303133631,-27
32-32,303137537,-2
32-1,303141448,20
32-2,303145354,12
32-3,303149260,-1
32-4,303153166,3
32-5,303157072,11
32-6,303160978,-5
32-7,303164884,-18
32-8,303168790,-2
32-9,303172696,17
32-10,303176602,-6
32-11,303180508,-48
32-12,303184414,-59
32-13,303188320,-37
32-14,303192226,-33
32-15,303196132,-58
32-16,303200038,-69
32-17,303203944,-53
32-18,303207850,-46
32-19,303211756,-67
32-20,303215662,-84
32-21,303219568,-65
32-22,303223474,-33
32-23,303227380,-26
32-24,303231286,-25
32-25,303235192,-1
32-26,303239098,27
32-27,303243004,15
32-28,303246910,-24
32-29,303250816,-39
32-30,303254722,-22
32-31,303258628,-19
32-32,303262534,-42
32-1,303266446,-53
32-2,303270352,-33
32-3,303274258,-26
32-4,303278164,-57
32-5,303282070,-84
32-6,303285976,-69
32-7,303289882,-35
32-8,303293788,-23
32-9,303297694,-23
32-10,303301600,-2
32-11,303305506,33
32-12,303309412,38
32-13,303313318,16
32-14,303317224,11
32-15,303321130,31
32-16,303325036,29
32-17,303328942,0
32-18,303332848,-16
32-19,303336754,1
32-20,303340660,14
32-21,303344566,-11
32-22,303348472,-37
32-23,303352378,-27
32-24,303356284,-9
32-25,303360190,-25
32-26,303364096,-52
32-27,303368002,-50
32-28,303371908,-19
32-29,303375814,-11
32-30,303379720,-37
32-31,303383626,-48
32-32,303387532,-28
32-1,303391444,-21
32-2,303395350,-45
32-3,303399256,-65
32-4,303403162,-54
32-5,303407068,-38
32-6,303410974,-54
32-7,303414880,-70
32-8,303418786,-57
32-9,303422692,-38
32-10,303426598,-54
32-11,303430504,-87
32-12,303434410,-88
32-13,303438316,-48
32-14,303442222,-22
32-15,303446128,-29
32-16,303450034,-32
32-17,303453940,-14
32-18,303457846,-7
32-19,303461752,-36
32-20,303465658,-60
32-21,303469564,-51
32-22,303473470,-32
32-23,303477376,-37
32-24,303481282,-42
32-25,303485188,-14
32-26,303489094,31
32-27,303493000,43
32-28,303496906,25
32-29,303500812,18
32-30,303504718,28
32-31,303508624,25
32-32,303512530,5
32-1,303516502,-3
32-2,303520408,13
32-3,303524314,18
32-4,303528220,-7
32-5,303532126,-19
32-6,303536032,7
32-7,303539938,36
32-8,303543844,24
32-9,303547750,-11
32-10,303551656,-28
32-11,303555562,-29
32-12,303559468,-47
32-13,303563374,-70
32-14,303567280,-58
32-15,303571186,-13
32-16,303575092,10
32-17,303578998,-12
32-18,303582904,-31
32-19,303586810,-20
32-20,303590716,-12
32-21,303594622,-34
32-22,303598528,-56
32-23,303602434,-37
32-24,303606340,1
32-25,303610246,11
32-26,303614152,-3
32-27,303618058,-5
32-28,303621964,-2
32-29,303625870,-25
32-30,303629776,-61
32-31,303633682,-67
32-32,303637588,-35
32-1,303641439,-18
32-2,303645345,-40
32-3,303649251,-59
32-4,303653157,-47
32-5,303657063,-27
32-6,303660969,-34
32-7,303664875,-45
32-8,303668781,-27
32-9,303672687,4
32-10,303676593,6
32-11,303680499,-10
32-12,303684405,-8
32-13,303688311,5
32-14,303692217,-16
32-15,303696123,-71
32-16,303700029,-108
32-17,303703935,-105
32-18,303707841,-99
32-19,303711747,-116
32-20,303715653,-125
32-21,303719559,-106
32-22,303723465,-92
32-23,303727371,-107
32-24,303731277,-122
32-25,303735183,-103
32-26,303739089,-65
32-27,303742995,-53
32-28,303746901,-60
32-29,303750807,-52
32-30,303754713,-32
32-31,303758619,-37
32-32,303762525,-60
32-1,303766437,-58
32-2,303770343,-18
32-3,303774249,14
32-4,303778155,7
32-5,303782061,-3
32-6,303785967,12
32-7,303789873,18
32-8,303793779,-16
32-9,303797685,-49
32-10,303801591,-37
32-11,303805497,-2
32-12,303809403,-5
32-13,303813309,-36
32-14,303817215,-46
32-15,303821121,-29
32-16,303825027,-31
32-17,303828933,-63
32-18,303832839,-79
32-19,303836745,-57
32-20,303840651,-38
32-21,303844557,-53
32-22,303848463,-77
32-23,303852369,-67
32-24,303856275,-47
32-25,303860181,-59
32-26,303864087,-83
32-27,303867993,-70
32-28,303871899,-30
32-29,303875805,-12
32-30,303879711,-22
32-31,303883617,-22
32-32,303887523,0
32-1,303891434,0
32-2,303895340,-30
32-3,303899246,-47
32-4,303903152,-30
32-5,303907058,-14
32-6,303910964,-27
32-7,303914870,-44
32-8,303918776,-28
32-9,303922682,-5
32-10,303926588,-16
32-11,303930494,-44
32-12,303934400,-40
32-13,303938306,-8
32-14,303942212,4
32-15,303946118,-14
32-16,303950024,-29
32-17,303953930,-26
32-18,303957836,-40
32-19,303961742,-76
32-20,303965648,-90
32-21,303969554,-59
32-22,303973460,-27
32-23,303977366,-36
32-24,303981272,-58
32-25,303985178,-50
32-26,303989084,-23
32-27,303992990,-23
32-28,303996896,-45
32-29,304000802,-49
32-30,304004708,-35
32-31,304008614,-46
32-32,304012520,-74
32-1,304016432,-73
32-2,304020338,-30
32-3,304024244,7
32-4,304028150,-1
32-5,304032056,-18
32-6,304035962,-5
32-7,304039868,17
32-8,304043774,7
32-9,304047680,-17
32-10,304051586,-20
32-11,304055492,-6
32-12,304059398,-13
32-13,304063304,-31
32-14,304067210,-23
32-15,304071116,2
32-16,304075022,-12
32-17,304078928,-65
32-18,304082834,-102
32-19,304086740,-91
32-20,304090646,-66
32-21,304094552,-64
32-22,304098458,-62
32-23,304102364,-35
32-24,304106270,-8
32-25,304110176,-16
32-26,304114082,-34
32-27,304117988,-24
32-28,304121894,5
32-29,304125800,-3
32-30,304129706,-47
32-31,304133612,-73
32-32,304137518,-64
32-1,304141429,-55
32-2,304145335,-62
32-3,304149241,-56
32-4,304153147,-25
32-5,304157053,-6
32-6,304160959,-25
32-7,304164865,-48
32-8,304168771,-35
32-9,304172677,-12
32-10,304176583,-23
32-11,304180489,-55
32-12,304184395,-60
32-13,304188301,-37
32-14,304192207,-32
32-15,304196113,-51
32-16,304200019,-48
32-17,304203925,-14
32-18,304207831,2
32-19,304211737,-25
32-20,304215643,-51
32-21,304219549,-40
32-22,304223455,-19
32-23,304227361,-22
32-24,304231267,-32
32-25,304235173,-22
32-26,304239079,-5
32-27,304242985,-17
32-28,304246891,-46
32-29,304250797,-53
32-30,304254703,-44
32-31,304258609,-55
32-32,304262515,-83
32-1,304266519,-79
32-2,304270425,-36
32-3,304274331,-2
32-4,304278237,-14
32-5,304282143,-29
32-6,304286049,-15
32-7,304289955,4
32-8,304293861,-5
32-9,304297767,-17
32-10,304301673,1
32-11,304305579,29
32-12,304309485,16
32-13,304313391,-27
32-14,304317297,-45
32-15,304321203,-24
32-16,304325109,-6
32-17,304329015,-8
32-18,304332921,-2
32-19,304336827,18
32-20,304340733,16
32-21,304344639,-17
32-22,304348545,-32
32-23,304352451,-2
32-24,304356357,39
32-25,304360263,37
32-26,304364169,14
32-27,304368075,21
32-28,304371981,51
32-29,304375887,53
32-30,304379793,23
32-31,304383699,1
32-32,304387605,9
32-1,304391425,10
32-2,304395331,-10
32-3,304399237,-20
32-4,304403143,-7
32-5,304407049,-1
32-6,304410955,-22
32-7,304414861,-40
32-8,304418767,-28
32-9,304422673,-19
32-10,304426579,-50
32-11,304430485,-88
32-12,304434391,-78
32-13,304438297,-37
32-14,304442203,-24
32-15,304446109,-51
32-16,304450015,-70
32-17,304453921,-57
32-18,304457827,-49
32-19,304461733,-67
32-20,304465639,-74
32-21,304469545,-44
32-22,304473451,-12
32-23,304477357,-19
32-24,304481263,-38
32-25,304485169,-37
32-26,304489075,-22
32-27,304492981,-29
32-28,304496887,-48
32-29,304500793,-41
32-30,304504699,-21
32-31,304508605,-30
32-32,304512511,-62
32-1,304516422,-77
32-2,304520328,-58
32-3,304524234,-41
32-4,304528140,-55
32-5,304532046,-62
32-6,304535952,-42
32-7,304539858,-24
32-8,304543764,-43
32-9,304547670,-68
32-10,304551576,-61
32-11,304555482,-36
32-12,304559388,-44
32-13,304563294,-77
32-14,304567200,-88
32-15,304571106,-76
32-16,304575012,-84
32-17,304578918,-116
32-18,304582824,-129
32-19,304586730,-105
32-20,304590636,-79
32-21,304594542,-83
32-22,304598448,-86
32-23,304602354,-63
32-24,304606260,-39
32-25,304610166,-45
32-26,304614072,-54
32-27,304617978,-34
32-28,304621884,-3
32-29,304625790,-8
32-30,304629696,-41
32-31,304633602,-53
32-32,304637508,-39
32-1,304641420,-42
32-2,304645326,-76
32-3,304649232,-94
32-4,304653138,-78
32-5,304657044,-60
32-6,304660950,-79
32-7,304664856,-102
32-8,304668762,-94
32-9,304672668,-80
32-10,304676574,-103
32-11,304680480,-140
32-12,304684386,-144
32-13,304688292,-120
32-14,304692198,-117
32-15,304696104,-134
32-16,304700010,-130
32-17,304703916,-92
32-18,304707822,-64
32-19,304711728,-66
32-20,304715634,-62
32-21,304719540,-32
32-22,304723446,-6
32-23,304727352,-19
32-24,304731258,-44
32-25,304735164,-36
32-26,304739070,-10
32-27,304742976,-6
32-28,304746882,-16
32-29,304750788,-8
32-30,304754694,12
32-31,304758600,3
32-32,304762506,-28
32-1,304766418,-36
32-2,304770324,-5
32-3,304774230,21
32-4,304778136,18
32-5,304782042,14
32-6,304785948,31
32-7,304789854,41
32-8,304793760,17
32-9,304797666,-4
32-10,304801572,10
32-11,304805478,34
32-12,304809384,16
32-13,304813290,-24
32-14,304817196,-30
32-15,304821102,4
32-16,304825008,24
32-17,304828914,7
32-18,304832820,-4
32-19,304836726,7
32-20,304840632,10
32-21,304844538,-11
32-22,304848444,-25
32-23,304852350,-2
32-24,304856256,25
32-25,304860162,14
32-26,304864068,-8
32-27,304867974,-3
32-28,304871880,19
32-29,304875786,12
32-30,304879692,-21
32-31,304883598,-30
32-32,304887504,-10
32-1,304891415,-7
32-2,304895321,-32
32-3,304899227,-41
32-4,304903133,-11
32-5,304907039,9
32-6,304910945,-17
32-7,304914851,-53
32-8,304918757,-57
32-9,304922663,-36
32-10,304926569,-33
32-11,304930475,-40
32-12,304934381,-22
32-13,304938287,9
32-14,304942193,11
32-15,304946099,-13
32-16,304950005,-27
32-17,304953911,-22
32-18,304957817,-33
32-19,304961723,-66
32-20,304965629,-71
32-21,304969535,-31
32-22,304973441,0
32-23,304977347,-17
32-24,304981253,-50
32-25,304985159,-53
32-26,304989065,-35
32-27,304992971,-42
32-28,304996877,-67
32-29,305000783,-62
32-30,305004689,-29
32-31,305008595,-16
32-32,305012501,-31
32-1,305016535,-38
32-2,305020441,-15
32-3,305024347,4
32-4,305028253,-8
32-5,305032159,-18
32-6,305036065,-6
32-7,305039971,2
32-8,305043877,-19
32-9,305047783,-37
32-10,305051689,-29
32-11,305055595,-13
32-12,305059501,-28
32-13,305063407,-51
32-14,305067313,-35
32-15,305071219,9
32-16,305075125,22
32-17,305079031,-3
32-18,305082937,-14
32-19,305086843,11
32-20,305090749,32
32-21,305094655,16
32-22,305098561,-9
32-23,305102467,-9
32-24,305106373,-2
32-25,305110279,-20
32-26,305114185,-37
32-27,305118091,-23
32-28,305121997,2
32-29,305125903,-11
32-30,305129809,-48
32-31,305133715,-63
32-32,305137621,-53
32-1,305141411,-56
32-2,305145317,-82
32-3,305149223,-89
32-4,305153129,-63
32-5,305157035,-44
32-6,305160941,-61
32-7,305164847,-73
32-8,305168753,-46
32-9,305172659,-10
32-10,305176565,-8
32-11,305180471,-25
32-12,305184377,-19
32-13,305188283,5
32-14,305192189,1
32-15,305196095,-23
32-16,305200001,-19
32-17,305203907,13
32-18,305207813,20
32-19,305211719,-19
32-20,305215625,-53
32-21,305219531,-49
32-22,305223437,-40
32-23,305227343,-63
32-24,305231249,-88
32-25,305235155,-84
32-26,305239061,-64
32-27,305242967,-65
32-28,305246873,-71
32-29,305250779,-55
32-30,305254685,-31
32-31,305258591,-45
32-32,305262497,-91
32-1,305266408,-112
32-2,305270314,-84
32-3,305274220,-52
32-4,305278126,-47
32-5,305282032,-45
32-6,305285938,-29
32-7,305289844,-27
32-8,305293750,-61
32-9,305297656,-83
32-10,305301562,-56
32-11,305305468,-17
32-12,305309374,-21
32-13,305313280,-53
32-14,305317186,-62
32-15,305321092,-42
32-16,305324998,-40
32-17,305328904,-63
32-18,305332810,-66
32-19,305336716,-34
32-20,305340622,-6
32-21,305344528,-8
32-22,305348434,-8
32-23,305352340,19
32-24,305356246,39
32-25,305360152,12
32-26,305364058,-26
32-27,305367964,-25
32-28,305371870,3
32-29,305375776,6
32-30,305379682,-19
32-31,305383588,-29
32-32,305387494,-15
32-1,305391406,-16
32-2,305395312,-39
32-3,305399218,-41
32-4,305403124,-6
32-5,305407030,28
32-6,305410936,28
32-7,305414842,17
32-8,305418748,26
32-9,305422654,33
32-10,305426560,5
32-11,305430466,-32
32-12,305434372,-40
32-13,305438278,-29
32-14,305442184,-39
32-15,305446090,-56
32-16,305449996,-40
32-17,305453902,2
32-18,305457808,16
32-19,305461714,-13
32-20,305465620,-28
32-21,305469526,-5
32-22,305473432,23
32-23,305477338,14
32-24,305481244,-6
32-25,305485150,-4
32-26,305489056,4
32-27,305492962,-16
32-28,305496868,-39
32-29,305500774,-33
32-30,305504680,-10
32-31,305508586,-18
32-32,305512492,-54
32-1,305516403,-70
32-2,305520309,-48
32-3,305524215,-31
32-4,305528121,-47
32-5,305532027,-60
32-6,305535933,-52
32-7,305539839,-47
32-8,305543745,-71
32-9,305547651,-92
32-10,305551557,-70
32-11,305555463,-33
32-12,305559369,-29
32-13,305563275,-49
32-14,305567181,-50
32-15,305571087,-30
32-16,305574993,-31
32-17,305578899,-61
32-18,305582805,-70
32-19,305586711,-44
32-20,305590617,-21
32-21,305594523,-29
32-22,305598429,-40
32-23,305602335,-30
32-24,305606241,-22
32-25,305610147,-37
32-26,305614053,-38
32-27,305617959,-2
32-28,305621865,39
32-29,305625771,31
32-30,305629677,-11
32-31,305633583,-33
32-32,305637489,-23
32-1,305641401,-24
32-2,305645307,-40
32-3,305649213,-32
32-4,305653119,6
32-5,305657025,24
32-6,305660931,-12
32-7,305664837,-51
32-8,305668743,-50
32-9,305672649,-31
32-10,305676555,-42
32-11,305680461,-71
32-12,305684367,-72
32-13,305688273,-45
32-14,305692179,-35
32-15,305696085,-46
32-16,305699991,-47
32-17,305703897,-29
32-18,305707803,-28
32-19,305711709,-51
32-20,305715615,-58
32-21,305719521,-33
32-22,305723427,-16
32-23,305727333,-32
32-24,305731239,-50
32-25,305735145,-38
32-26,305739051,-14
32-27,305742957,-20
32-28,305746863,-42
32-29,305750769,-45
32-30,305754675,-35
32-31,305758581,-45
32-32,305762487,-71
32-1,305766521,-71
32-2,305770427,-45
32-3,305774333,-34
32-4,305778239,-51
32-5,305782145,-51
32-6,305786051,-23
32-7,305789957,-6
32-8,305793863,-26
32-9,305797769,-44
32-10,305801675,-23
32-11,305805581,9
32-12,305809487,-1
32-13,305813393,-30
32-14,305817299,-31
32-15,305821205,-2
32-16,305825111,6
32-17,305829017,-12
32-18,305832923,-22
32-19,305836829,-8
32-20,305840735,-9
32-21,305844641,-38
32-22,305848547,-57
32-23,305852453,-42
32-24,305856359,-24
32-25,305860265,-39
32-26,305864171,-56
32-27,305868077,-35
32-28,305871983,-2
32-29,305875889,-8
32-30,305879795,-40
32-31,305883701,-42
32-32,305887607,-10
32-1,305891396,3
32-2,305895302,-17
32-3,305899208,-34
32-4,305903114,-31
32-5,305907020,-34
32-6,305910926,-59
32-7,305914832,-69
32-8,305918738,-39
32-9,305922644,-4
32-10,305926550,-11
32-11,305930456,-39
32-12,305934362,-40
32-13,305938268,-17
32-14,305942174,-14
32-15,305946080,-25
32-16,305949986,-16
32-17,305953892,13
32-18,305957798,18
32-19,305961704,-4
32-20,305965610,-8
32-21,305969516,18
32-22,305973422,29
32-23,305977328,-2
32-24,305981234,-41
32-25,305985140,-48
32-26,305989046,-36
32-27,305992952,-42
32-28,305996858,-52
32-29,306000764,-41
32-30,306004670,-24
32-31,306008576,-42
32-32,306012482,-77
32-1,306016394,-80
32-2,306020300,-41
32-3,306024206,-15
32-4,306028112,-23
32-5,306032018,-26
32-6,306035924,-7
32-7,306039830,-6
32-8,306043736,-45
32-9,306047642,-82
32-10,306051548,-72
32-11,306055454,-40
32-12,306059360,-34
32-13,306063266,-46
32-14,306067172,-33
32-15,306071078,-5
32-16,306074984,-1
32-17,306078890,-23
32-18,306082796,-28
32-19,306086702,-6
32-20,306090608,0
32-21,306094514,-27
32-22,306098420,-42
32-23,306102326,-17
32-24,306106232,12
32-25,306110138,6
32-26,306114044,-9
32-27,306117950,5
32-28,306121856,28
32-29,306125762,21
32-30,306129668,-8
32-31,306133574,-16
32-32,306137480,0
32-1,306141392,-3
32-2,306145298,-30
32-3,306149204,-43
32-4,306153110,-27
32-5,306157016,-14
32-6,306160922,-29
32-7,306164828,-41
32-8,306168734,-21
32-9,306172640,-5
32-10,306176546,-20
32-11,306180452,-37
32-12,306184358,-18
32-13,306188264,20
32-14,306192170,24
32-15,306196076,4
32-16,306199982,8
32-17,306203888,35
32-18,306207794,37
32-19,306211700,2
32-20,306215606,-26
32-21,306219512,-21
32-22,306223418,-15
32-23,306227324,-29
32-24,306231230,-35
32-25,306235136,-8
32-26,306239042,24
32-27,306242948,18
32-28,306246854,-8
32-29,306250760,-17
32-30,306254666,-21
32-31,306258572,-53
32-32,306262478,-99
32-1,306266450,-105
32-2,306270356,-73
32-3,306274262,-56
32-4,306278168,-68
32-5,306282074,-71
32-6,306285980,-45
32-7,306289886,-26
32-8,306293792,-43
32-9,306297698,-57
32-10,306301604,-29
32-11,306305510,14
32-12,306309416,24
32-13,306313322,9
32-14,306317228,9
32-15,306321134,23
32-16,306325040,10
32-17,306328946,-21
32-18,306332852,-24
32-19,306336758,2
32-20,306340664,7
32-21,306344570,-29
32-22,306348476,-64
32-23,306352382,-63
32-24,306356288,-55
32-25,306360194,-76
32-26,306364100,-91
32-27,306368006,-60
32-28,306371912,-11
32-29,306375818,1
32-30,306379724,-16
32-31,306383630,-17
32-32,306387536,4
32-1,306391387,3
32-2,306395293,-25
32-3,306399199,-37
32-4,306403105,-25
32-5,306407011,-20
32-6,306410917,-42
32-7,306414823,-64
32-8,306418729,-54
32-9,306422635,-34
32-10,306426541,-40
32-11,306430447,-50
32-12,306434353,-34
32-13,306438259,-11
32-14,306442165,-16
32-15,306446071,-32
32-16,306449977,-21
32-17,306453883,10
32-18,306457789,9
32-19,306461695,-19
32-20,306465601,-19
32-21,306469507,18
32-22,306473413,42
32-23,306477319,20
32-24,306481225,-9
32-25,306485131,-4
32-26,306489037,16
32-27,306492943,8
32-28,306496849,-13
32-29,306500755,-13
32-30,306504661,-1
32-31,306508567,-12
32-32,306512473,-41
32-1,306516537,-45
32-2,306520443,-27
32-3,306524349,-27
32-4,306528255,-47
32-5,306532161,-38
32-6,306536067,11
32-7,306539973,47
32-8,306543879,30
32-9,306547785,-5
32-10,306551691,-13
32-11,306555597,-8
32-12,306559503,-27
32-13,306563409,-53
32-14,306567315,-50
32-15,306571221,-23
32-16,306575127,-24
32-17,306579033,-54
32-18,306582939,-71
32-19,306586845,-64
32-20,306590751,-70
32-21,306594657,-106
32-22,306598563,-127
32-23,306602469,-109
32-24,306606375,-77
32-25,306610281,-65
32-26,306614187,-52
32-27,306618093,-23
32-28,306621999,-3
32-29,306625905,-28
32-30,306629811,-65
32-31,306633717,-59
32-32,306637623,-15
32-1,306641382,7
32-2,306645288,-3
32-3,306649194,-1
32-4,306653100,27
32-5,306657006,45
32-6,306660912,28
32-7,306664818,10
32-8,306668724,17
32-9,306672630,21
32-10,306676536,-8
32-11,306680442,-39
32-12,306684348,-41
32-13,306688254,-30
32-14,306692160,-46
32-15,306696066,-75
32-16,306699972,-75
32-17,306703878,-51
32-18,306707784,-50
32-19,306711690,-79
32-20,306715596,-93
32-21,306719502,-69
32-22,306723408,-55
32-23,306727314,-69
32-24,306731220,-77
32-25,306735126,-56
32-26,306739032,-25
32-27,306742938,-23
32-28,306746844,-29
32-29,306750750,-9
32-30,306754656,14
32-31,306758562,-4
32-32,306762468,-47
32-1,306766380,-61
32-2,306770286,-32
32-3,306774192,-13
32-4,306778098,-25
32-5,306782004,-32
32-6,306785910,-17
32-7,306789816,-12
32-8,306793722,-40
32-9,306797628,-66
32-10,306801534,-59
32-11,306805440,-51
32-12,306809346,-73
32-13,306813252,-97
32-14,306817158,-83
32-15,306821064,-48
32-16,306824970,-47
32-17,306828876,-76
32-18,306832782,-86
32-19,306836688,-65
32-20,306840594,-62
32-21,306844500,-98
32-22,306848406,-129
32-23,306852312,-125
32-24,306856218,-112
32-25,306860124,-121
32-26,306864030,-124
32-27,306867936,-98
32-28,306871842,-66
32-29,306875748,-76
32-30,306879654,-109
32-31,306883560,-116
32-32,306887466,-92
32-1,306891499,-80
32-2,306895405,-88
32-3,306899311,-76
32-4,306903217,-34
32-5,306907123,-10
32-6,306911029,-30
32-7,306914935,-53
32-8,306918841,-47
32-9,306922747,-33
32-10,306926653,-44
32-11,306930559,-61
32-12,306934465,-66
32-13,306938371,-70
32-14,306942277,-96
32-15,306946183,-115
32-16,306950089,-87
32-17,306953995,-31
32-18,306957901,-12
32-19,306961807,-35
32-20,306965713,-46
32-21,306969619,-20
32-22,306973525,0
32-23,306977431,-18
32-24,306981337,-46
32-25,306985243,-48
32-26,306989149,-41
32-27,306993055,-54
32-28,306996961,-68
32-29,307000867,-60
32-30,307004773,-42
32-31,307008679,-54
32-32,307012585,-78
32-1,307016375,-74
32-2,307020281,-50
32-3,307024187,-57
32-4,307028093,-90
32-5,307031999,-94
32-6,307035905,-52
32-7,307039811,-15
32-8,307043717,-20
32-9,307047623,-34
32-10,307051529,-26
32-11,307055435,-19
32-12,307059341,-47
32-13,307063247,-84
32-14,307067153,-82
32-15,307071059,-52
32-16,307074965,-47
32-17,307078871,-69
32-18,307082777,-75
32-19,307086683,-56
32-20,307090589,-47
32-21,307094495,-58
32-22,307098401,-52
32-23,307102307,-15
32-24,307106213,10
32-25,307110119,-5
32-26,307114025,-18
32-27,307117931,6
32-28,307121837,42
32-29,307125743,38
32-30,307129649,9
32-31,307133555,4
32-32,307137461,27
32-1,307141373,26
32-2,307145279,-1
32-3,307149185,-15
32-4,307153091,-4
32-5,307156997,-1
32-6,307160903,-24
32-7,307164809,-35
32-8,307168715,-17
32-9,307172621,-4
32-10,307176527,-22
32-11,307180433,-41
32-12,307184339,-19
32-13,307188245,19
32-14,307192151,22
32-15,307196057,-3
32-16,307199963,-12
32-17,307203869,-2
32-18,307207775,-9
32-19,307211681,-39
32-20,307215587,-44
32-21,307219493,-12
32-22,307223399,13
32-23,307227305,5
32-24,307231211,-6
32-25,307235117,5
32-26,307239023,17
32-27,307242929,7
32-28,307246835,1
32-29,307250741,20
32-30,307254647,33
32-31,307258553,3
32-32,307262459,-40
32-1,307266553,-39
32-2,307270459,2
32-3,307274365,21
32-4,307278271,-2
32-5,307282177,-17
32-6,307286083,2
32-7,307289989,17
32-8,307293895,2
32-9,307297801,-13
32-10,307301707,-1
32-11,307305613,17
32-12,307309519,7
32-13,307313425,-10
32-14,307317331,0
32-15,307321237,17
32-16,307325143,1
32-17,307329049,-34
32-18,307332955,-41
32-19,307336861,-17
32-20,307340767,-11
32-21,307344673,-37
32-22,307348579,-45
32-23,307352485,-13
32-24,307356391,15
32-25,307360297,2
32-26,307364203,-18
32-27,307368109,-7
32-28,307372015,13
32-29,307375921,-7
32-30,307379827,-48
32-31,307383733,-59
32-32,307387639,-41
32-1,307391368,-36
32-2,307395274,-49
32-3,307399180,-37
32-4,307403086,7
32-5,307406992,35
32-6,307410898,24
32-7,307414804,5
32-8,307418710,8
32-9,307422616,9
32-10,307426522,-19
32-11,307430428,-50
32-12,307434334,-53
32-13,307438240,-44
32-14,307442146,-56
32-15,307446052,-75
32-16,307449958,-65
32-17,307453864,-35
32-18,307457770,-40
32-19,307461676,-75
32-20,307465582,-90
32-21,307469488,-60
32-22,307473394,-29
32-23,307477300,-30
32-24,307481206,-40
32-25,307485112,-35
32-26,307489018,-28
32-27,307492924,-35
32-28,307496830,-31
32-29,307500736,-5
32-30,307504642,6
32-31,307508548,-32
32-32,307512454,-83
32-1,307516518,-93
32-2,307520424,-66
32-3,307524330,-58
32-4,307528236,-76
32-5,307532142,-69
32-6,307536048,-23
32-7,307539954,12
32-8,307543860,6
32-9,307547766,0
32-10,307551672,33
32-11,307555578,72
32-12,307559484,65
32-13,307563390,26
32-14,307567296,1
32-15,307571202,-1
32-16,307575108,-7
32-17,307579014,-11
32-18,307582920,10
32-19,307586826,39
32-20,307590732,32
32-21,307594638,-7
32-22,307598544,-24
32-23,307602450,4
32-24,307606356,27
32-25,307610262,4
32-26,307614168,-24
32-27,307618074,-16
32-28,307621980,2
32-29,307625886,-11
32-30,307629792,-44
32-31,307633698,-54
32-32,307637604,-41
32-1,307641363,-47
32-2,307645269,-67
32-3,307649175,-61
32-4,307653081,-26
32-5,307656987,-4
32-6,307660893,-15
32-7,307664799,-25
32-8,307668705,-4
32-9,307672611,17
32-10,307676517,11
32-11,307680423,2
32-12,307684329,22
32-13,307688235,45
32-14,307692141,29
32-15,307696047,-13
32-16,307699953,-31
32-17,307703859,-25
32-18,307707765,-34
32-19,307711671,-58
32-20,307715577,-60
32-21,307719483,-38
32-22,307723389,-34
32-23,307727295,-62
32-24,307731201,-78
32-25,307735107,-63
32-26,307739013,-44
32-27,307742919,-52
32-28,307746825,-58
32-29,307750731,-30
32-30,307754637,3
32-31,307758543,-5
32-32,307762449,-38
32-1,307766361,-45
32-2,307770267,-22
32-3,307774173,-21
32-4,307778079,-50
32-5,307781985,-62
32-6,307785891,-46
32-7,307789797,-43
32-8,307793703,-70
32-9,307797609,-87
32-10,307801515,-65
32-11,307805421,-35
32-12,307809327,-43
32-13,307813233,-68
32-14,307817139,-71
32-15,307821045,-58
32-16,307824951,-67
32-17,307828857,-87
32-18,307832763,-84
32-19,307836669,-60
32-20,307840575,-54
32-21,307844481,-70
32-22,307848387,-65
32-23,307852293,-32
32-24,307856199,-21
32-25,307860105,-55
32-26,307864011,-82
32-27,307867917,-62
32-28,307871823,-26
32-29,307875729,-22
32-30,307879635,-38
32-31,307883541,-33
32-32,307887447,-13
32-1,307891358,-17
32-2,307895264,-37
32-3,307899170,-33
32-4,307903076,-8
32-5,307906982,-3
32-6,307910888,-29
32-7,307914794,-43
32-8,307918700,-20
32-9,307922606,0
32-10,307926512,-14
32-11,307930418,-28
32-12,307934324,-10
32-13,307938230,13
32-14,307942136,-9
32-15,307946042,-51
32-16,307949948,-58
32-17,307953854,-29
32-18,307957760,-12
32-19,307961666,-18
32-20,307965572,-16
32-21,307969478,4
32-22,307973384,5
32-23,307977290,-24
32-24,307981196,-42
32-25,307985102,-22
32-26,307989008,8
32-27,307992914,8
32-28,307996820,-3
32-29,308000726,4
32-30,308004632,12
32-31,308008538,-7
32-32,308012444,-32
32-1,308016539,-25
32-2,308020445,-1
32-3,308024351,-6
32-4,308028257,-36
32-5,308032163,-44
32-6,308036069,-23
32-7,308039975,-16
32-8,308043881,-44
32-9,308047787,-59
32-10,308051693,-35
32-11,308055599,-9
32-12,308059505,-27
32-13,308063411,-64
32-14,308067317,-75
32-15,308071223,-68
32-16,308075129,-85
32-17,308079035,-115
32-18,308082941,-119
32-19,308086847,-95
32-20,308090753,-90
32-21,308094659,-106
32-22,308098565,-102
32-23,308102471,-61
32-24,308106377,-27
32-25,308110283,-26
32-26,308114189,-17
32-27,308118095,28
32-28,308122001,72
32-29,308125907,62
32-30,308129813,18
32-31,308133719,-5
32-32,308137625,-2
32-1,308141506,-18
32-2,308145412,-50
32-3,308149318,-57
32-4,308153224,-36
32-5,308157130,-26
32-6,308161036,-46
32-7,308164942,-59
32-8,308168848,-42
32-9,308172754,-24
32-10,308176660,-37
32-11,308180566,-49
32-12,308184472,-32
32-13,308188378,-10
32-14,308192284,-24
32-15,308196190,-57
32-16,308200096,-64
32-17,308204002,-45
32-18,308207908,-46
32-19,308211814,-67
32-20,308215720,-73
32-21,308219626,-51
32-22,308223532,-31
32-23,308227438,-30
32-24,308231344,-12
32-25,308235250,19
32-26,308239156,21
32-27,308243062,-27
32-28,308246968,-73
32-29,308250874,-67
32-30,308254780,-32
32-31,308258686,-30
32-32,308262592,-57
32-1,308266351,-66
32-2,308270257,-48
32-3,308274163,-45
32-4,308278069,-66
32-5,308281975,-68
32-6,308285881,-37
32-7,308289787,-17
32-8,308293693,-33
32-9,308297599,-52
32-10,308301505,-50
32-11,308305411,-43
32-12,308309317,-54
32-13,308313223,-55
32-14,308317129,-29
32-15,308321035,-3
32-16,308324941,-17
32-17,308328847,-52
32-18,308332753,-54
32-19,308336659,-23
32-20,308340565,-11
32-21,308344471,-26
32-22,308348377,-24
32-23,308352283,9
32-24,308356189,18
32-25,308360095,-24
32-26,308364001,-66
32-27,308367907,-59
32-28,308371813,-32
32-29,308375719,-33
32-30,308379625,-54
32-31,308383531,-55
32-32,308387437,-39
32-1,308391349,-45
32-2,308395255,-69
32-3,308399161,-82
32-4,308403067,-73
32-5,308406973,-74
32-6,308410879,-88
32-7,308414785,-76
32-8,308418691,-27
32-9,308422597,11
32-10,308426503,4
32-11,308430409,-16
32-12,308434315,-11
32-13,308438221,1
32-14,308442127,-17
32-15,308446033,-46
32-16,308449939,-46
32-17,308453845,-31
32-18,308457751,-39
32-19,308461657,-62
32-20,308465563,-54
32-21,308469469,-19
32-22,308473375,-6
32-23,308477281,-28
32-24,308481187,-46
32-25,308485093,-39
32-26,308488999,-40
32-27,308492905,-73
32-28,308496811,-103
32-29,308500717,-98
32-30,308504623,-85
32-31,308508529,-104
32-32,308512435,-127
32-1,308516347,-106
32-2,308520253,-58
32-3,308524159,-40
32-4,308528065,-59
32-5,308531971,-58
32-6,308535877,-16
32-7,308539783,15
32-8,308543689,5
32-9,308547595,-9
32-10,308551501,10
32-11,308555407,40
32-12,308559313,45
32-13,308563219,41
32-14,308567125,55
32-15,308571031,67
32-16,308574937,48
32-17,308578843,17
32-18,308582749,20
32-19,308586655,45
32-20,308590561,37
32-21,308594467,-7
32-22,308598373,-30
32-23,308602279,-12
32-24,308606185,7
32-25,308610091,-9
32-26,308613997,-24
32-27,308617903,-4
32-28,308621809,20
32-29,308625715,12
32-30,308629621,-2
32-31,308633527,14
32-32,308637433,42
32-1,308641344,31
32-2,308645250,-9
32-3,308649156,-27
32-4,308653062,-12
32-5,308656968,-3
32-6,308660874,-18
32-7,308664780,-23
32-8,308668686,-6
32-9,308672592,5
32-10,308676498,-15
32-11,308680404,-33
32-12,308684310,-19
32-13,308688216,-3
32-14,308692122,-21
32-15,308696028,-44
32-16,308699934,-39
32-17,308703840,-27
32-18,308707746,-55
32-19,308711652,-106
32-20,308715558,-120
32-21,308719464,-86
32-22,308723370,-65
32-23,308727276,-79
32-24,308731182,-87
32-25,308735088,-60
32-26,308738994,-27
32-27,308742900,-34
32-28,308746806,-57
32-29,308750712,-52
32-30,308754618,-31
32-31,308758524,-31
32-32,308762430,-44
32-1,308766739,-36
32-2,308770645,-12
32-3,308774551,-8
32-4,308778457,-23
32-5,308782363,-14
32-6,308786269,21
32-7,308790175,36
32-8,308794081,12
32-9,308797987,-11
32-10,308801893,-6
32-11,308805799,2
32-12,308809705,-15
32-13,308813611,-22
32-14,308817517,8
32-15,308821423,35
32-16,308825329,8
32-17,308829235,-46
32-18,308833141,-65
32-19,308837047,-43
32-20,308840953,-22
32-21,308844859,-26
32-22,308848765,-18
32-23,308852671,16
32-24,308856577,39
32-25,308860483,19
32-26,308864389,-6
32-27,308868295,-4
32-28,308872201,7
32-29,308876107,-9
32-30,308880013,-23
32-31,308883919,-4
32-32,308887825,30
32-1,308891339,28
32-2,308895245,-1
32-3,308899151,-8
32-4,308903057,3
32-5,308906963,-7
32-6,308910869,-42
32-7,308914775,-56
32-8,308918681,-28
32-9,308922587,4
32-10,308926493,1
32-11,308930399,-8
32-12,308934305,5
32-13,308938211,19
32-14,308942117,6
32-15,308946023,-6
32-16,308949929,14
32-17,308953835,44
32-18,308957741,25
32-19,308961647,-33
32-20,308965553,-70
32-21,308969459,-60
32-22,308973365,-49
32-23,308977271,-57
32-24,308981177,-53
32-25,308985083,-24
32-26,308988989,-1
32-27,308992895,-6
32-28,308996801,-9
32-29,309000707,14
32-30,309004613,30
32-31,309008519,-2
32-32,309012425,-52
32-1,309016337,-74
32-2,309020243,-68
32-3,309024149,-77
32-4,309028055,-104
32-5,309031961,-102
32-6,309035867,-66
32-7,309039773,-48
32-8,309043679,-71
32-9,309047585,-85
32-10,309051491,-61
32-11,309055397,-30
32-12,309059303,-32
32-13,309063209,-48
32-14,309067115,-38
32-15,309071021,-20
32-16,309074927,-33
32-17,309078833,-59
32-18,309082739,-63
32-19,309086645,-48
32-20,309090551,-56
32-21,309094457,-88
32-22,309098363,-98
32-23,309102269,-70
32-24,309106175,-53
32-25,309110081,-66
32-26,309113987,-64
32-27,309117893,-21
32-28,309121799,25
32-29,309125705,21
32-30,309129611,-10
32-31,309133517,-14
32-32,309137423,7
32-1,309141335,13
32-2,309145241,-1
32-3,309149147,-3
32-4,309153053,7
32-5,309156959,-3
32-6,309160865,-32
32-7,309164771,-39
32-8,309168677,-7
32-9,309172583,23
32-10,309176489,20
32-11,309180395,13
32-12,309184301,28
32-13,309188207,42
32-14,309192113,23
32-15,309196019,-5
32-16,309199925,-5
32-17,309203831,9
32-18,309207737,1
32-19,309211643,-18
32-20,309215549,-8
32-21,309219455,26
32-22,309223361,32
32-23,309227267,4
32-24,309231173,-11
32-25,309235079,4
32-26,309238985,11
32-27,309242891,-20
32-28,309246797,-53
32-29,309250703,-47
32-30,309254609,-22
32-31,309258515,-27
32-32,309262421,-48
32-1,309266332,-52
32-2,309270238,-42
32-3,309274144,-56
32-4,309278050,-79
32-5,309281956,-70
32-6,309285862,-29
32-7,309289768,-4
32-8,309293674,-16
32-9,309297580,-29
32-10,309301486,-20
32-11,309305392,-22
32-12,309309298,-61
32-13,309313204,-90
32-14,309317110,-73
32-15,309321016,-31
32-16,309324922,-20
32-17,309328828,-32
32-18,309332734,-21
32-19,309336640,7
32-20,309340546,11
32-21,309344452,-12
32-22,309348358,-21
32-23,309352264,0
32-24,309356170,11
32-25,309360076,-10
32-26,309363982,-20
32-27,309367888,1
32-28,309371794,18
32-29,309375700,-4
32-30,309379606,-38
32-31,309383512,-40
32-32,309387418,-24
32-1,309391330,-38
32-2,309395236,-71
32-3,309399142,-76
32-4,309403048,-53
32-5,309406954,-41
32-6,309410860,-54
32-7,309414766,-58
32-8,309418672,-38
32-9,309422578,-28
32-10,309426484,-44
32-11,309430390,-51
32-12,309434296,-36
32-13,309438202,-31
32-14,309442108,-67
32-15,309446014,-106
32-16,309449920,-98
32-17,309453826,-59
32-18,309457732,-47
32-19,309461638,-56
32-20,309465544,-51
32-21,309469450,-32
32-22,309473356,-37
32-23,309477262,-72
32-24,309481168,-85
32-25,309485074,-59
32-26,309488980,-38
32-27,309492886,-54
32-28,309496792,-74
32-29,309500698,-62
32-30,309504604,-47
32-31,309508510,-65
32-32,309512416,-93
32-1,309516541,-91
32-2,309520447,-69
32-3,309524353,-75
32-4,309528259,-98
32-5,309532165,-88
32-6,309536071,-45
32-7,309539977,-26
32-8,309543883,-50
32-9,309547789,-68
32-10,309551695,-49
32-11,309555601,-22
32-12,309559507,-31
32-13,309563413,-52
32-14,309567319,-49
32-15,309571225,-36
32-16,309575131,-52
32-17,309579037,-78
32-18,309582943,-78
32-19,309586849,-56
32-20,309590755,-55
32-21,309594661,-76
32-22,309598567,-81
32-23,309602473,-59
32-24,309606379,-50
32-25,309610285,-66
32-26,309614191,-65
32-27,309618097,-28
32-28,309622003,9
32-29,309625909,-1
32-30,309629815,-31
32-31,309633721,-34
32-32,309637627,-17
32-1,309641325,-21
32-2,309645231,-39
32-3,309649137,-34
32-4,309653043,-10
32-5,309656949,-7
32-6,309660855,-29
32-7,309664761,-38
32-8,309668667,-22
32-9,309672573,-22
32-10,309676479,-53
32-11,309680385,-71
32-12,309684291,-47
32-13,309688197,-16
32-14,309692103,-18
32-15,309696009,-40
32-16,309699915,-41
32-17,309703821,-32
32-18,309707727,-44
32-19,309711633,-61
32-20,309715539,-49
32-21,309719445,-22
32-22,309723351,-26
32-23,309727257,-60
32-24,309731163,-68
32-25,309735069,-27
32-26,309738975,13
32-27,309742881,9
32-28,309746787,-10
32-29,309750693,-11
32-30,309754599,-13
32-31,309758505,-43
32-32,309762411,-74
32-1,309766323,-67
32-2,309770229,-38
32-3,309774135,-41
32-4,309778041,-70
32-5,309781947,-69
32-6,309785853,-36
32-7,309789759,-21
32-8,309793665,-41
32-9,309797571,-55
32-10,309801477,-37
32-11,309805383,-17
32-12,309809289,-32
32-13,309813195,-52
32-14,309817101,-40
32-15,309821007,-17
32-16,309824913,-18
32-17,309828819,-28
32-18,309832725,-11
32-19,309836631,22
32-20,309840537,22
32-21,309844443,-10
32-22,309848349,-30
32-23,309852255,-22
32-24,309856161,-22
32-25,309860067,-40
32-26,309863973,-44
32-27,309867879,-11
32-28,309871785,14
32-29,309875691,-2
32-30,309879597,-29
32-31,309883503,-30
32-32,309887409,-19
32-1,309891321,-36
32-2,309895227,-64
32-3,309899133,-58
32-4,309903039,-27
32-5,309906945,-19
32-6,309910851,-46
32-7,309914757,-67
32-8,309918663,-61
32-9,309922569,-60
32-10,309926475,-86
32-11,309930381,-100
32-12,309934287,-76
32-13,309938193,-47
32-14,309942099,-51
32-15,309946005,-65
32-16,309949911,-57
32-17,309953817,-37
32-18,309957723,-45
32-19,309961629,-64
32-20,309965535,-56
32-21,309969441,-23
32-22,309973347,-12
32-23,309977253,-32
32-24,309981159,-43
32-25,309985065,-24
32-26,309988971,-9
32-27,309992877,-21
32-28,309996783,-32
32-29,310000689,-21
32-30,310004595,-18
32-31,310008501,-58
32-32,310012407,-99
32-1,310016318,-89
32-2,310020224,-44
32-3,310024130,-25
32-4,310028036,-44
32-5,310031942,-58
32-6,310035848,-53
32-7,310039754,-51
32-8,310043660,-60
32-9,310047566,-48
32-10,310051472,-17
32-11,310055378,-12
32-12,310059284,-51
32-13,310063190,-86
32-14,310067096,-77
32-15,310071002,-52
32-16,310074908,-61
32-17,310078814,-94
32-18,310082720,-109
32-19,310086626,-109
32-20,310090532,-129
32-21,310094438,-163
32-22,310098344,-157
32-23,310102250,-104
32-24,310106156,-56
32-25,310110062,-47
32-26,310113968,-46
32-27,310117874,-27
32-28,310121780,-10
32-29,310125686,-24
32-30,310129592,-42
32-31,310133498,-41
32-32,310137404,-39
32-1,310141316,-69
32-2,310145222,-99
32-3,310149128,-87
32-4,310153034,-42
32-5,310156940,-22
32-6,310160846,-36
32-7,310164752,-39
32-8,310168658,-21
32-9,310172564,-14
32-10,310176470,-31
32-11,310180376,-38
32-12,310184282,-12
32-13,310188188,8
32-14,310192094,-17
32-15,310196000,-53
32-16,310199906,-51
32-17,310203812,-26
32-18,310207718,-22
32-19,310211624,-34
32-20,310215530,-26
32-21,310219436,0
32-22,310223342,-5
32-23,310227248,-38
32-24,310231154,-49
32-25,310235060,-27
32-26,310238966,-18
32-27,310242872,-48
32-28,310246778,-75
32-29,310250684,-58
32-30,310254590,-23
32-31,310258496,-23
32-32,310262402,-41
32-1,310266497,-39
32-2,310270403,-18
32-3,310274309,-21
32-4,310278215,-39
32-5,310282121,-32
32-6,310286027,-1
32-7,310289933,7
32-8,310293839,-15
32-9,310297745,-21
32-10,310301651,2
32-11,310305557,6
32-12,310309463,-35
32-13,310313369,-81
32-14,310317275,-79
32-15,310321181,-46
32-16,310325087,-37
32-17,310328993,-44
32-18,310332899,-42
32-19,310336805,-31
32-20,310340711,-44
32-21,310344617,-73
32-22,310348523,-70
32-23,310352429,-29
32-24,310356335,-4
32-25,310360241,-16
32-26,310364147,-23
32-27,310368053,-4
32-28,310371959,12
32-29,310375865,-9
32-30,310379771,-36
32-31,310383677,-27
32-32,310387583,3
32-1,310391311,10
32-2,310395217,0
32-3,310399123,4
32-4,310403029,19
32-5,310406935,10
32-6,310410841,-22
32-7,310414747,-35
32-8,310418653,-23
32-9,310422559,-18
32-10,310426465,-32
32-11,310430371,-25
32-12,310434277,9
32-13,310438183,27
32-14,310442089,-6
32-15,310445995,-38
32-16,310449901,-19
32-17,310453807,23
32-18,310457713,25
32-19,310461619,-7
32-20,310465525,-26
32-21,310469431,-18
32-22,310473337,-24
32-23,310477243,-52
32-24,310481149,-65
32-25,310485055,-52
32-26,310488961,-48
32-27,310492867,-72
32-28,310496773,-89
32-29,310500679,-70
32-30,310504585,-46
32-31,310508491,-52
32-32,310512397,-61
32-1,310516309,-44
32-2,310520215,-26
32-3,310524121,-48
32-4,310528027,-94
32-5,310531933,-102
32-6,310535839,-73
32-7,310539745,-64
32-8,310543651,-93
32-9,310547557,-112
32-10,310551463,-87
32-11,310555369,-55
32-12,310559275,-46
32-13,310563181,-43
32-14,310567087,-23
32-15,310570993,-12
32-16,310574899,-36
32-17,310578805,-59
32-18,310582711,-40
32-19,310586617,-1
32-20,310590523,4
32-21,310594429,-22
32-22,310598335,-33
32-23,310602241,-19
32-24,310606147,-25
32-25,310610053,-58
32-26,310613959,-69
32-27,310617865,-42
32-28,310621771,-20
32-29,310625677,-42
32-30,310629583,-70
32-31,310633489,-59
32-32,310637395,-28
32-1,310641306,-26
32-2,310645212,-40
32-3,310649118,-34
32-4,310653024,-14
32-5,310656930,-20
32-6,310660836,-55
32-7,310664742,-68
32-8,310668648,-43
32-9,310672554,-22
32-10,310676460,-24
32-11,310680366,-17
32-12,310684272,15
32-13,310688178,35
32-14,310692084,10
32-15,310695990,-23
32-16,310699896,-20
32-17,310703802,-2
32-18,310707708,-14
32-19,310711614,-46
32-20,310715520,-54
32-21,310719426,-33
32-22,310723332,-32
32-23,310727238,-61
32-24,310731144,-72
32-25,310735050,-50
32-26,310738956,-27
32-27,310742862,-24
32-28,310746768,-19
32-29,310750674,8
32-30,310754580,25
32-31,310758486,3
32-32,310762392,-21
32-1,310766304,-11
32-2,310770210,13
32-3,310774116,6
32-4,310778022,-24
32-5,310781928,-34
32-6,310785834,-17
32-7,310789740,-17
32-8,310793646,-41
32-9,310797552,-47
32-10,310801458,-24
32-11,310805364,-16
32-12,310809270,-42
32-13,310813176,-60
32-14,310817082,-42
32-15,310820988,-19
32-16,310824894,-32
32-17,310828800,-54
32-18,310832706,-40
32-19,310836612,-1
32-20,310840518,12
32-21,310844424,-1
32-22,310848330,-2
32-23,310852236,14
32-24,310856142,10
32-25,310860048,-21
32-26,310863954,-30
32-27,310867860,-4
32-28,310871766,10
32-29,310875672,-14
32-30,310879578,-35
32-31,310883484,-15
32-32,310887390,20
32-1,310891302,19
32-2,310895208,-5
32-3,310899114,-7
32-4,310903020,6
32-5,310906926,-6
32-6,310910832,-36
32-7,310914738,-42
32-8,310918644,-14
32-9,310922550,-2
32-10,310926456,-20
32-11,310930362,-26
32-12,310934268,6
32-13,310938174,30
32-14,310942080,6
32-15,310945986,-31
32-16,310949892,-33
32-17,310953798,-11
32-18,310957704,-12
32-19,310961610,-28
32-20,310965516,-22
32-21,310969422,2
32-22,310973328,-1
32-23,310977234,-29
32-24,310981140,-35
32-25,310985046,-4
32-26,310988952,26
32-27,310992858,27
32-28,310996764,31
32-29,311000670,59
32-30,311004576,72
32-31,311008482,37
32-32,311012388,-5
32-1,311016513,-10
32-2,311020419,8
32-3,311024325,-5
32-4,311028231,-45
32-5,311032137,-63
32-6,311036043,-51
32-7,311039949,-51
32-8,311043855,-74
32-9,311047761,-80
32-10,311051667,-49
32-11,311055573,-25
32-12,311059479,-35
32-13,311063385,-46
32-14,311067291,-27
32-15,311071197,-2
32-16,311075103,-10
32-17,311079009,-33
32-18,311082915,-28
32-19,311086821,-11
32-20,311090727,-24
32-21,311094633,-57
32-22,311098539,-67
32-23,311102445,-48
32-24,311106351,-39
32-25,311110257,-55
32-26,311114163,-52
32-27,311118069,-18
32-28,311121975,4
32-29,311125881,-14
32-30,311129787,-42
32-31,311133693,-39
32-32,311137599,-22
32-1,311141297,-35
32-2,311145203,-59
32-3,311149109,-53
32-4,311153015,-33
32-5,311156921,-41
32-6,311160827,-75
32-7,311164733,-86
32-8,311168639,-65
32-9,311172545,-59
32-10,311176451,-86
32-11,311180357,-94
32-12,311184263,-58
32-13,311188169,-15
32-14,311192075,-13
32-15,311195981,-26
32-16,311199887,-17
32-17,311203793,6
32-18,311207699,9
32-19,311211605,2
32-20,311215511,12
32-21,311219417,26
32-22,311223323,6
32-23,311227229,-36
32-24,311231135,-51
32-25,311235041,-33
32-26,311238947,-30
32-27,311242853,-59
32-28,311246759,-75
32-29,311250665,-51
32-30,311254571,-24
32-31,311258477,-43
32-32,311262383,-81
32-1,311266294,-89
32-2,311270200,-70
32-3,311274106,-70
32-4,311278012,-83
32-5,311281918,-74
32-6,311285824,-48
32-7,311289730,-47
32-8,311293636,-71
32-9,311297542,-75
32-10,311301448,-45
32-11,311305354,-22
32-12,311309260,-34
32-13,311313166,-45
32-14,311317072,-27
32-15,311320978,-7
32-16,311324884,-20
32-17,311328790,-41
32-18,311332696,-40
32-19,311336602,-26
32-20,311340508,-37
32-21,311344414,-57
32-22,311348320,-36
32-23,311352226,19
32-24,311356132,44
32-25,311360038,11
32-26,311363944,-30
32-27,311367850,-35
32-28,311371756,-26
32-29,311375662,-36
32-30,311379568,-42
32-31,311383474,-20
32-32,311387380,3
32-1,311391292,-12
32-2,311395198,-45
32-3,311399104,-54
32-4,311403010,-38
32-5,311406916,-30
32-6,311410822,-32
32-7,311414728,-15
32-8,311418634,13
32-9,311422540,8
32-10,311426446,-33
32-11,311430352,-58
32-12,311434258,-41
32-13,311438164,-20
32-14,311442070,-33
32-15,311445976,-54
32-16,311449882,-46
32-17,311453788,-27
32-18,311457694,-37
32-19,311461600,-55
32-20,311465506,-44
32-21,311469412,-8
32-22,311473318,3
32-23,311477224,-15
32-24,311481130,-28
32-25,311485036,-22
32-26,311488942,-25
32-27,311492848,-54
32-28,311496754,-71
32-29,311500660,-58
32-30,311504566,-46
32-31,311508472,-61
32-32,311512378,-71
32-1,311516290,-48
32-2,311520196,-19
32-3,311524102,-28
32-4,311528008,-59
32-5,311531914,-57
32-6,311535820,-26
32-7,311539726,-15
32-8,311543632,-35
32-9,311547538,-43
32-10,311551444,-22
32-11,311555350,-10
32-12,311559256,-26
32-13,311563162,-34
32-14,311567068,-9
32-15,311570974,17
32-16,311574880,6
32-17,311578786,-19
32-18,311582692,-18
32-19,311586598,2
32-20,311590504,6
32-21,311594410,2
32-22,311598316,17
32-23,311602222,42
32-24,311606128,30
32-25,311610034,-19
32-26,311613940,-44
32-27,311617846,-22
32-28,311621752,-1
32-29,311625658,-19
32-30,311629564,-45
32-31,311633470,-39
32-32,311637376,-26
32-1,311641287,-46
32-2,311645193,-80
32-3,311649099,-87
32-4,311653005,-74
32-5,311656911,-76
32-6,311660817,-90
32-7,311664723,-83
32-8,311668629,-54
32-9,311672535,-45
32-10,311676441,-68
32-11,311680347,-77
32-12,311684253,-49
32-13,311688159,-23
32-14,311692065,-35
32-15,311695971,-53
32-16,311699877,-34
32-17,311703783,0
32-18,311707689,1
32-19,311711595,-19
32-20,311715501,-23
32-21,311719407,-7
32-22,311723313,-8
32-23,311727219,-24
32-24,311731125,-25
32-25,311735031,-13
32-26,311738937,-24
32-27,311742843,-58
32-28,311746749,-69
32-29,311750655,-38
32-30,311754561,-14
32-31,311758467,-25
32-32,311762373,-41
32-1,311766529,-28
32-2,311770435,-6
32-3,311774341,-21
32-4,311778247,-55
32-5,311782153,-61
32-6,311786059,-37
32-7,311789965,-27
32-8,311793871,-34
32-9,311797777,-27
32-10,311801683,5
32-11,311805589,17
32-12,311809495,-9
32-13,311813401,-21
32-14,311817307,11
32-15,311821213,48
32-16,311825119,38
32-17,311829025,5
32-18,311832931,-10
32-19,311836837,-7
32-20,311840743,-17
32-21,311844649,-26
32-22,311848555,-4
32-23,311852461,36
32-24,311856367,44
32-25,311860273,15
32-26,311864179,0
32-27,311868085,23
32-28,311871991,42
32-29,311875897,23
32-30,311879803,-1
32-31,311883709,3
32-32,311887615,14
32-1,311891283,-7
32-2,311895189,-40
32-3,311899095,-46
32-4,311903001,-32
32-5,311906907,-34
32-6,311910813,-48
32-7,311914719,-41
32-8,311918625,-15
32-9,311922531,-17
32-10,311926437,-54
32-11,311930343,-79
32-12,311934249,-72
32-13,311938155,-64
32-14,311942061,-84
32-15,311945967,-103
32-16,311949873,-84
32-17,311953779,-49
32-18,311957685,-40
32-19,311961591,-42
32-20,311965497,-21
32-21,311969403,12
32-22,311973309,10
32-23,311977215,-19
32-24,311981121,-30
32-25,311985027,-10
32-26,311988933,6
32-27,311992839,4
32-28,311996745,18
32-29,312000651,52
32-30,312004557,57
32-31,312008463,9
32-32,312012369,-40
32-1,312016280,-39
32-2,312020186,-6
32-3,312024092,1
32-4,312027998,-23
32-5,312031904,-38
32-6,312035810,-38
32-7,312039716,-51
32-8,312043622,-69
32-9,312047528,-60
32-10,312051434,-26
32-11,312055340,-16
32-12,312059246,-48
32-13,312063152,-74
32-14,312067058,-58
32-15,312070964,-37
32-16,312074870,-54
32-17,312078776,-79
32-18,312082682,-67
32-19,312086588,-36
32-20,312090494,-32
32-21,312094400,-49
32-22,312098306,-49
32-23,312102212,-26
32-24,312106118,-20
32-25,312110024,-42
32-26,312113930,-41
32-27,312117836,-10
32-28,312121742,8
32-29,312125648,-14
32-30,312129554,-42
32-31,312133460,-42
32-32,312137366,-34
32-1,312141278,-55
32-2,312145184,-75
32-3,312149090,-59
32-4,312152996,-25
32-5,312156902,-22
32-6,312160808,-46
32-7,312164714,-53
32-8,312168620,-31
32-9,312172526,-13
32-10,312176432,-13
32-11,312180338,-3
32-12,312184244,30
32-13,312188150,49
32-14,312192056,30
32-15,312195962,11
32-16,312199868,21
32-17,312203774,31
32-18,312207680,4
32-19,312211586,-38
32-20,312215492,-50
32-21,312219398,-41
32-22,312223304,-53
32-23,312227210,-74
32-24,312231116,-64
32-25,312235022,-25
32-26,312238928,-11
32-27,312242834,-34
32-28,312246740,-45
32-29,312250646,-13
32-30,312254552,22
32-31,312258458,22
32-32,312262364,6
32-1,312266276,11
32-2,312270182,27
32-3,312274088,16
32-4,312277994,-6
32-5,312281900,3
32-6,312285806,31
32-7,312289712,33
32-8,312293618,9
32-9,312297524,3
32-10,312301430,24
32-11,312305336,29
32-12,312309242,-4
32-13,312313148,-34
32-14,312317054,-32
32-15,312320960,-23
32-16,312324866,-37
32-17,312328772,-51
32-18,312332678,-33
32-19,312336584,-5
32-20,312340490,-15
32-21,312344396,-54
32-22,312348302,-69
32-23,312352208,-53
32-24,312356114,-42
32-25,312360020,-49
32-26,312363926,-35
32-27,312367832,3
32-28,312371738,20
32-29,312375644,-8
32-30,312379550,-47
32-31,312383456,-60
32-32,312387362,-58
32-1,312391334,-70
32-2,312395240,-79
32-3,312399146,-68
32-4,312403052,-61
32-5,312406958,-88
32-6,312410864,-124
32-7,312414770,-122
32-8,312418676,-84
32-9,312422582,-71
32-10,312426488,-98
32-11,312430394,-117
32-12,312434300,-101
32-13,312438206,-84
32-14,312442112,-94
32-15,312446018,-101
32-16,312449924,-67
32-17,312453830,-17
32-18,312457736,-3
32-19,312461642,-14
32-20,312465548,-15
32-21,312469454,-11
32-22,312473360,-36
32-23,312477266,-80
32-24,312481172,-95
32-25,312485078,-72
32-26,312488984,-51
32-27,312492890,-56
32-28,312496796,-55
32-29,312500702,-36
32-30,312504608,-29
32-31,312508514,-50
32-32,312512420,-66
32-1,312516271,-51
32-2,312520177,-31
32-3,312524083,-51
32-4,312527989,-84
32-5,312531895,-82
32-6,312535801,-50
32-7,312539707,-44
32-8,312543613,-72
32-9,312547519,-93
32-10,312551425,-87
32-11,312555331,-87
32-12,312559237,-106
32-13,312563143,-109
32-14,312567049,-75
32-15,312570955,-42
32-16,312574861,-40
32-17,312578767,-45
32-18,312582673,-24
32-19,312586579,-1
32-20,312590485,-12
32-21,312594391,-39
32-22,312598297,-37
32-23,312602203,-8
32-24,312606109,1
32-25,312610015,-20
32-26,312613921,-26
32-27,312617827,-3
32-28,312621733,4
32-29,312625639,-29
32-30,312629545,-60
32-31,312633451,-52
32-32,312637357,-35
32-1,312641268,-53
32-2,312645174,-86
32-3,312649080,-88
32-4,312652986,-62
32-5,312656892,-49
32-6,312660798,-56
32-7,312664704,-51
32-8,312668610,-38
32-9,312672516,-51
32-10,312676422,-86
32-11,312680328,-99
32-12,312684234,-80
32-13,312688140,-73
32-14,312692046,-104
32-15,312695952,-130
32-16,312699858,-109
32-17,312703764,-68
32-18,312707670,-53
32-19,312711576,-60
32-20,312715482,-50
32-21,312719388,-28
32-22,312723294,-32
32-23,312727200,-56
32-24,312731106,-60
32-25,312735012,-41
32-26,312738918,-34
32-27,312742824,-44
32-28,312746730,-39
32-29,312750636,-11
32-30,312754542,-1
32-31,312758448,-33
32-32,312762354,-57
