32-1,43258310,-79
32-2,43262216,-32
32-3,43266122,-16
32-4,43270028,-104
32-5,43273934,-133
32-6,43277840,-48
32-7,43281746,-6
32-8,43285652,-59
32-9,43289558,-105
32-10,43293464,-63
32-11,43297370,19
32-12,43301276,4
32-13,43305182,-72
32-14,43309088,-38
32-15,43312994,42
32-16,43316900,6
32-17,43320806,-79
32-18,43324712,-97
32-19,43328618,-56
32-20,43332524,-24
32-21,43336430,-55
32-22,43340336,-101
32-23,43344242,-85
32-24,43348148,-57
32-25,43352054,-79
32-26,43355960,-104
32-27,43359866,-92
32-28,43363772,-27
32-29,43367678,38
32-30,43371584,-12
32-31,43375490,-57
32-32,43379396,11
32-1,43383186,21
32-2,43387092,-58
32-3,43390998,-81
32-4,43394904,-12
32-5,43398810,31
32-6,43402716,-31
32-7,43406622,-69
32-8,43410528,-31
32-9,43414434,-20
32-10,43418340,-63
32-11,43422246,-121
32-12,43426152,-123
32-13,43430058,-70
32-14,43433964,-92
32-15,43437870,-164
32-16,43441776,-126
32-17,43445682,-8
32-18,43449588,16
32-19,43453494,-71
32-20,43457400,-107
32-21,43461306,-33
32-22,43465212,6
32-23,43469118,-54
32-24,43473024,-83
32-25,43476930,-18
32-26,43480836,33
32-27,43484742,-7
32-28,43488648,-35
32-29,43492554,30
32-30,43496460,66
32-31,43500366,9
32-32,43504272,-60
32-1,43508183,-76
32-2,43512089,-29
32-3,43515995,-21
32-4,43519901,-91
32-5,43523807,-115
32-6,43527713,-59
32-7,43531619,-38
32-8,43535525,-105
32-9,43539431,-158
32-10,43543337,-111
32-11,43547243,-33
32-12,43551149,-44
32-13,43555055,-99
32-14,43558961,-67
32-15,43562867,-8
32-16,43566773,-53
32-17,43570679,-118
32-18,43574585,-88
32-19,43578491,-9
32-20,43582397,8
32-21,43586303,-49
32-22,43590209,-66
32-23,43594115,6
32-24,43598021,35
32-25,43601927,-27
32-26,43605833,-46
32-27,43609739,-2
32-28,43613645,52
32-29,43617551,63
32-30,43621457,-30
32-31,43625363,-67
32-32,43629269,27
32-1,43633181,20
32-2,43637087,-77
32-3,43640993,-86
32-4,43644899,-30
32-5,43648805,-6
32-6,43652711,-39
32-7,43656617,-45
32-8,43660523,6
32-9,43664429,48
32-10,43668335,24
32-11,43672241,-31
32-12,43676147,-5
32-13,43680053,54
32-14,43683959,23
32-15,43687865,-28
32-16,43691771,-27
32-17,43695677,5
32-18,43699583,5
32-19,43703489,-54
32-20,43707395,-56
32-21,43711301,23
32-22,43715207,42
32-23,43719113,-23
32-24,43723019,-70
32-25,43726925,-32
32-26,43730831,1
32-27,43734737,-70
32-28,43738643,-113
32-29,43742549,-46
32-30,43746455,-1
32-31,43750361,-33
32-32,43754267,-69
32-1,43758179,-36
32-2,43762085,40
32-3,43765991,45
32-4,43769897,-20
32-5,43773803,-33
32-6,43777709,27
32-7,43781615,47
32-8,43785521,-33
32-9,43789427,-101
32-10,43793333,-66
32-11,43797239,-19
32-12,43801145,-62
32-13,43805051,-113
32-14,43808957,-69
32-15,43812863,10
32-16,43816769,5
32-17,43820675,-68
32-18,43824581,-83
32-19,43828487,-15
32-20,43832393,11
32-21,43836299,-40
32-22,43840205,-53
32-23,43844111,11
32-24,43848017,37
32-25,43851923,-33
32-26,43855829,-87
32-27,43859735,-48
32-28,43863641,13
32-29,43867547,-10
32-30,43871453,-101
32-31,43875359,-99
32-32,43879265,-1
32-1,43883543,1
32-2,43887449,-93
32-3,43891355,-112
32-4,43895261,-29
32-5,43899167,8
32-6,43903073,-57
32-7,43906979,-105
32-8,43910885,-57
32-9,43914791,7
32-10,43918697,-27
32-11,43922603,-102
32-12,43926509,-62
32-13,43930415,35
32-14,43934321,16
32-15,43938227,-58
32-16,43942133,-37
32-17,43946039,19
32-18,43949945,-11
32-19,43953851,-86
32-20,43957757,-90
32-21,43961663,-15
32-22,43965569,27
32-23,43969475,-13
32-24,43973381,-55
32-25,43977287,-10
32-26,43981193,60
32-27,43985099,20
32-28,43989005,-34
32-29,43992911,27
32-30,43996817,59
32-31,44000723,-12
32-32,44004629,-78
32-1,44008174,-90
32-2,44012080,-41
32-3,44015986,-22
32-4,44019892,-99
32-5,44023798,-128
32-6,44027704,-50
32-7,44031610,-5
32-8,44035516,-59
32-9,44039422,-110
32-10,44043328,-72
32-11,44047234,-11
32-12,44051140,-33
32-13,44055046,-74
32-14,44058952,-28
32-15,44062858,34
32-16,44066764,8
32-17,44070670,-57
32-18,44074576,-41
32-19,44078482,26
32-20,44082388,7
32-21,44086294,-73
32-22,44090200,-103
32-23,44094106,-61
32-24,44098012,-26
32-25,44101918,-73
32-26,44105824,-120
32-27,44109730,-90
32-28,44113636,-14
32-29,44117542,25
32-30,44121448,-55
32-31,44125354,-101
32-32,44129260,-18
32-1,44133172,-9
32-2,44137078,-63
32-3,44140984,-33
32-4,44144890,20
32-5,44148796,16
32-6,44152702,-20
32-7,44156608,-35
32-8,44160514,4
32-9,44164420,47
32-10,44168326,4
32-11,44172232,-60
32-12,44176138,-28
32-13,44180044,15
32-14,44183950,-31
32-15,44187856,-85
32-16,44191762,-40
32-17,44195668,48
32-18,44199574,45
32-19,44203480,-40
32-20,44207386,-51
32-21,44211292,46
32-22,44215198,77
32-23,44219104,-16
32-24,44223010,-80
32-25,44226916,-16
32-26,44230822,79
32-27,44234728,48
32-28,44238634,-9
32-29,44242540,55
32-30,44246446,92
32-31,44250352,21
32-32,44254258,-47
32-1,44258169,-29
32-2,44262075,51
32-3,44265981,70
32-4,44269887,12
32-5,44273793,-13
32-6,44277699,19
32-7,44281605,23
32-8,44285511,-67
32-9,44289417,-154
32-10,44293323,-105
32-11,44297229,-1
32-12,44301135,-34
32-13,44305041,-107
32-14,44308947,-55
32-15,44312853,7
32-16,44316759,-8
32-17,44320665,-34
32-18,44324571,-20
32-19,44328477,42
32-20,44332383,50
32-21,44336289,-13
32-22,44340195,-17
32-23,44344101,48
32-24,44348007,69
32-25,44351913,0
32-26,44355819,-71
32-27,44359725,-56
32-28,44363631,23
32-29,44367537,38
32-30,44371443,-42
32-31,44375349,-56
32-32,44379255,25
32-1,44383167,26
32-2,44387073,-35
32-3,44390979,-19
32-4,44394885,29
32-5,44398791,12
32-6,44402697,-54
32-7,44406603,-92
32-8,44410509,-48
32-9,44414415,2
32-10,44418321,-59
32-11,44422227,-116
32-12,44426133,-60
32-13,44430039,3
32-14,44433945,-22
32-15,44437851,-85
32-16,44441757,-88
32-17,44445663,-24
32-18,44449569,-10
32-19,44453475,-50
32-20,44457381,-48
32-21,44461287,3
32-22,44465193,22
32-23,44469099,-24
32-24,44473005,-45
32-25,44476911,28
32-26,44480817,86
32-27,44484723,9
32-28,44488629,-58
32-29,44492535,-4
32-30,44496441,32
32-31,44500347,-20
32-32,44504253,-85
32-1,44508164,-79
32-2,44512070,4
32-3,44515976,24
32-4,44519882,-43
32-5,44523788,-49
32-6,44527694,13
32-7,44531600,19
32-8,44535506,-63
32-9,44539412,-103
32-10,44543318,-31
32-11,44547224,31
32-12,44551130,-23
32-13,44555036,-95
32-14,44558942,-74
32-15,44562848,4
32-16,44566754,15
32-17,44570660,-55
32-18,44574566,-73
32-19,44578472,-19
32-20,44582378,-17
32-21,44586284,-80
32-22,44590190,-113
32-23,44594096,-78
32-24,44598002,-45
32-25,44601908,-80
32-26,44605814,-103
32-27,44609720,-37
32-28,44613626,46
32-29,44617532,42
32-30,44621438,-41
32-31,44625344,-57
32-32,44629250,16
32-1,44633345,20
32-2,44637251,-38
32-3,44641157,-32
32-4,44645063,23
32-5,44648969,25
32-6,44652875,-44
32-7,44656781,-78
32-8,44660687,-16
32-9,44664593,25
32-10,44668499,-28
32-11,44672405,-66
32-12,44676311,-12
32-13,44680217,44
32-14,44684123,1
32-15,44688029,-71
32-16,44691935,-49
32-17,44695841,24
32-18,44699747,9
32-19,44703653,-76
32-20,44707559,-86
32-21,44711465,-21
32-22,44715371,-28
32-23,44719277,-104
32-24,44723183,-117
32-25,44727089,-42
32-26,44730995,-2
32-27,44734901,-70
32-28,44738807,-109
32-29,44742713,-43
32-30,44746619,-10
32-31,44750525,-79
32-32,44754431,-142
32-1,44758160,-107
32-2,44762066,-23
32-3,44765972,-13
32-4,44769878,-70
32-5,44773784,-73
32-6,44777690,-3
32-7,44781596,31
32-8,44785502,-23
32-9,44789408,-66
32-10,44793314,-40
32-11,44797220,-16
32-12,44801126,-68
32-13,44805032,-135
32-14,44808938,-102
32-15,44812844,-23
32-16,44816750,-33
32-17,44820656,-90
32-18,44824562,-62
32-19,44828468,27
32-20,44832374,55
32-21,44836280,0
32-22,44840186,-30
32-23,44844092,7
32-24,44847998,6
32-25,44851904,-81
32-26,44855810,-129
32-27,44859716,-93
32-28,44863622,-45
32-29,44867528,-40
32-30,44871434,-100
32-31,44875340,-131
32-32,44879246,-70
32-1,44883157,-63
32-2,44887063,-129
32-3,44890969,-128
32-4,44894875,-58
32-5,44898781,-34
32-6,44902687,-93
32-7,44906593,-123
32-8,44910499,-68
32-9,44914405,-48
32-10,44918311,-111
32-11,44922217,-144
32-12,44926123,-85
32-13,44930029,-38
32-14,44933935,-84
32-15,44937841,-143
32-16,44941747,-107
32-17,44945653,-23
32-18,44949559,-33
32-19,44953465,-107
32-20,44957371,-94
32-21,44961277,-3
32-22,44965183,21
32-23,44969089,-39
32-24,44972995,-66
32-25,44976901,-17
32-26,44980807,16
32-27,44984713,-43
32-28,44988619,-79
32-29,44992525,-12
32-30,44996431,26
32-31,45000337,-14
32-32,45004243,-51
32-1,45008155,-30
32-2,45012061,35
32-3,45015967,15
32-4,45019873,-65
32-5,45023779,-42
32-6,45027685,32
32-7,45031591,22
32-8,45035497,-51
32-9,45039403,-73
32-10,45043309,4
32-11,45047215,70
32-12,45051121,26
32-13,45055027,-30
32-14,45058933,27
32-15,45062839,110
32-16,45066745,87
32-17,45070651,16
32-18,45074557,19
32-19,45078463,79
32-20,45082369,89
32-21,45086275,37
32-22,45090181,11
32-23,45094087,57
32-24,45097993,89
32-25,45101899,39
32-26,45105805,-5
32-27,45109711,21
32-28,45113617,90
32-29,45117523,102
32-30,45121429,10
32-31,45125335,-9
32-32,45129241,72
32-1,45133153,44
32-2,45137059,-46
32-3,45140965,-23
32-4,45144871,59
32-5,45148777,62
32-6,45152683,-5
32-7,45156589,-22
32-8,45160495,34
32-9,45164401,59
32-10,45168307,11
32-11,45172213,-30
32-12,45176119,10
32-13,45180025,66
32-14,45183931,45
32-15,45187837,-7
32-16,45191743,1
32-17,45195649,52
32-18,45199555,35
32-19,45203461,-49
32-20,45207367,-49
32-21,45211273,42
32-22,45215179,46
32-23,45219085,-40
32-24,45222991,-49
32-25,45226897,31
32-26,45230803,61
32-27,45234709,-8
32-28,45238615,-40
32-29,45242521,36
32-30,45246427,54
32-31,45250333,-32
32-32,45254239,-71
32-1,45258150,-29
32-2,45262056,23
32-3,45265962,4
32-4,45269868,-86
32-5,45273774,-98
32-6,45277680,0
32-7,45281586,52
32-8,45285492,-5
32-9,45289398,-46
32-10,45293304,6
32-11,45297210,44
32-12,45301116,-15
32-13,45305022,-46
32-14,45308928,26
32-15,45312834,83
32-16,45316740,22
32-17,45320646,-76
32-18,45324552,-80
32-19,45328458,-12
32-20,45332364,-8
32-21,45336270,-79
32-22,45340176,-86
32-23,45344082,6
32-24,45347988,27
32-25,45351894,-49
32-26,45355800,-74
32-27,45359706,-44
32-28,45363612,-22
32-29,45367518,-41
32-30,45371424,-109
32-31,45375330,-110
32-32,45379236,-43
32-1,45383331,-51
32-2,45387237,-99
32-3,45391143,-65
32-4,45395049,18
32-5,45398955,38
32-6,45402861,-8
32-7,45406767,-5
32-8,45410673,73
32-9,45414579,97
32-10,45418485,28
32-11,45422391,-25
32-12,45426297,-3
32-13,45430203,29
32-14,45434109,-2
32-15,45438015,-49
32-16,45441921,0
32-17,45445827,75
32-18,45449733,40
32-19,45453639,-38
32-20,45457545,-26
32-21,45461451,57
32-22,45465357,71
32-23,45469263,-13
32-24,45473169,-54
32-25,45477075,7
32-26,45480981,36
32-27,45484887,-49
32-28,45488793,-97
32-29,45492699,-15
32-30,45496605,26
32-31,45500511,-40
32-32,45504417,-111
32-1,45508146,-117
32-2,45512052,-54
32-3,45515958,-38
32-4,45519864,-90
32-5,45523770,-68
32-6,45527676,31
32-7,45531582,67
32-8,45535488,10
32-9,45539394,-30
32-10,45543300,14
32-11,45547206,64
32-12,45551112,30
32-13,45555018,-33
32-14,45558924,4
32-15,45562830,78
32-16,45566736,43
32-17,45570642,-28
32-18,45574548,-3
32-19,45578454,61
32-20,45582360,62
32-21,45586266,1
32-22,45590172,-31
32-23,45594078,12
32-24,45597984,28
32-25,45601890,-41
32-26,45605796,-88
32-27,45609702,-70
32-28,45613608,-38
32-29,45617514,-38
32-30,45621420,-111
32-31,45625326,-144
32-32,45629232,-73
32-1,45633143,-87
32-2,45637049,-205
32-3,45640955,-214
32-4,45644861,-123
32-5,45648767,-103
32-6,45652673,-170
32-7,45656579,-180
32-8,45660485,-90
32-9,45664391,-38
32-10,45668297,-95
32-11,45672203,-134
32-12,45676109,-78
32-13,45680015,-22
32-14,45683921,-52
32-15,45687827,-115
32-16,45691733,-92
32-17,45695639,-15
32-18,45699545,-25
32-19,45703451,-94
32-20,45707357,-90
32-21,45711263,-24
32-22,45715169,-21
32-23,45719075,-86
32-24,45722981,-107
32-25,45726887,-59
32-26,45730793,-43
32-27,45734699,-116
32-28,45738605,-141
32-29,45742511,-37
32-30,45746417,6
32-31,45750323,-67
32-32,45754229,-105
32-1,45758141,-63
32-2,45762047,8
32-3,45765953,3
32-4,45769859,-69
32-5,45773765,-60
32-6,45777671,1
32-7,45781577,-1
32-8,45785483,-45
32-9,45789389,-65
32-10,45793295,-29
32-11,45797201,6
32-12,45801107,-34
32-13,45805013,-74
32-14,45808919,-25
32-15,45812825,25
32-16,45816731,-19
32-17,45820637,-89
32-18,45824543,-65
32-19,45828449,33
32-20,45832355,50
32-21,45836261,-21
32-22,45840167,-32
32-23,45844073,34
32-24,45847979,53
32-25,45851885,-13
32-26,45855791,-68
32-27,45859697,-22
32-28,45863603,73
32-29,45867509,80
32-30,45871415,7
32-31,45875321,22
32-32,45879227,108
32-1,45883138,84
32-2,45887044,-3
32-3,45890950,-9
32-4,45894856,37
32-5,45898762,27
32-6,45902668,-51
32-7,45906574,-72
32-8,45910480,-10
32-9,45914386,8
32-10,45918292,-67
32-11,45922198,-103
32-12,45926104,-15
32-13,45930010,67
32-14,45933916,29
32-15,45937822,-50
32-16,45941728,-76
32-17,45945634,-51
32-18,45949540,-51
32-19,45953446,-97
32-20,45957352,-99
32-21,45961258,-58
32-22,45965164,-58
32-23,45969070,-96
32-24,45972976,-118
32-25,45976882,-75
32-26,45980788,-19
32-27,45984694,-67
32-28,45988600,-124
32-29,45992506,-54
32-30,45996412,2
32-31,46000318,-48
32-32,46004224,-89
32-1,46008136,-53
32-2,46012042,14
32-3,46015948,16
32-4,46019854,-48
32-5,46023760,-50
32-6,46027666,15
32-7,46031572,32
32-8,46035478,-28
32-9,46039384,-56
32-10,46043290,14
32-11,46047196,48
32-12,46051102,-31
32-13,46055008,-83
32-14,46058914,-23
32-15,46062820,44
32-16,46066726,0
32-17,46070632,-82
32-18,46074538,-53
32-19,46078444,25
32-20,46082350,19
32-21,46086256,-43
32-22,46090162,-26
32-23,46094068,56
32-24,46097974,54
32-25,46101880,-11
32-26,46105786,-20
32-27,46109692,12
32-28,46113598,33
32-29,46117504,24
32-30,46121410,-38
32-31,46125316,-62
32-32,46129222,-15
32-1,46133134,-44
32-2,46137040,-117
32-3,46140946,-76
32-4,46144852,-7
32-5,46148758,-32
32-6,46152664,-107
32-7,46156570,-137
32-8,46160476,-95
32-9,46164382,-79
32-10,46168288,-142
32-11,46172194,-176
32-12,46176100,-128
32-13,46180006,-68
32-14,46183912,-77
32-15,46187818,-123
32-16,46191724,-80
32-17,46195630,3
32-18,46199536,-44
32-19,46203442,-129
32-20,46207348,-102
32-21,46211254,-37
32-22,46215160,-42
32-23,46219066,-95
32-24,46222972,-91
32-25,46226878,-14
32-26,46230784,28
32-27,46234690,-41
32-28,46238596,-93
32-29,46242502,-4
32-30,46246408,54
32-31,46250314,-41
32-32,46254220,-131
32-1,46258131,-117
32-2,46262037,-59
32-3,46265943,-72
32-4,46269849,-150
32-5,46273755,-154
32-6,46277661,-84
32-7,46281567,-70
32-8,46285473,-121
32-9,46289379,-140
32-10,46293285,-91
32-11,46297191,-56
32-12,46301097,-109
32-13,46305003,-142
32-14,46308909,-62
32-15,46312815,-15
32-16,46316721,-98
32-17,46320627,-171
32-18,46324533,-139
32-19,46328439,-66
32-20,46332345,-65
32-21,46336251,-118
32-22,46340157,-99
32-23,46344063,-23
32-24,46347969,-11
32-25,46351875,-65
32-26,46355781,-86
32-27,46359687,-58
32-28,46363593,-4
32-29,46367499,23
32-30,46371405,-45
32-31,46375311,-77
32-32,46379217,-23
32-1,46383129,-50
32-2,46387035,-134
32-3,46390941,-125
32-4,46394847,-45
32-5,46398753,-37
32-6,46402659,-121
32-7,46406565,-130
32-8,46410471,-34
32-9,46414377,-1
32-10,46418283,-85
32-11,46422189,-131
32-12,46426095,-53
32-13,46430001,14
32-14,46433907,-34
32-15,46437813,-101
32-16,46441719,-65
32-17,46445625,21
32-18,46449531,12
32-19,46453437,-57
32-20,46457343,-33
32-21,46461249,52
32-22,46465155,57
32-23,46469061,1
32-24,46472967,-13
32-25,46476873,42
32-26,46480779,65
32-27,46484685,-15
32-28,46488591,-34
32-29,46492497,46
32-30,46496403,45
32-31,46500309,-38
32-32,46504215,-94
32-1,46508127,-71
32-2,46512033,14
32-3,46515939,7
32-4,46519845,-79
32-5,46523751,-82
32-6,46527657,-25
32-7,46531563,-45
32-8,46535469,-137
32-9,46539375,-151
32-10,46543281,-63
32-11,46547187,-20
32-12,46551093,-64
32-13,46554999,-109
32-14,46558905,-98
32-15,46562811,-64
32-16,46566717,-94
32-17,46570623,-143
32-18,46574529,-95
32-19,46578435,-12
32-20,46582341,-24
32-21,46586247,-95
32-22,46590153,-88
32-23,46594059,6
32-24,46597965,27
32-25,46601871,-57
32-26,46605777,-86
32-27,46609683,-27
32-28,46613589,33
32-29,46617495,23
32-30,46621401,-39
32-31,46625307,-37
32-32,46629213,-2
32-1,46633124,-42
32-2,46637030,-97
32-3,46640936,-61
32-4,46644842,17
32-5,46648748,5
32-6,46652654,-79
32-7,46656560,-98
32-8,46660466,-30
32-9,46664372,15
32-10,46668278,-55
32-11,46672184,-122
32-12,46676090,-69
32-13,46679996,-17
32-14,46683902,-67
32-15,46687808,-138
32-16,46691714,-107
32-17,46695620,-2
32-18,46699526,1
32-19,46703432,-75
32-20,46707338,-49
32-21,46711244,35
32-22,46715150,15
32-23,46719056,-77
32-24,46722962,-105
32-25,46726868,-47
32-26,46730774,-21
32-27,46734680,-93
32-28,46738586,-106
32-29,46742492,0
32-30,46746398,34
32-31,46750304,-64
32-32,46754210,-147
32-1,46758122,-115
32-2,46762028,-36
32-3,46765934,-51
32-4,46769840,-97
32-5,46773746,-50
32-6,46777652,23
32-7,46781558,34
32-8,46785464,-20
32-9,46789370,-48
32-10,46793276,13
32-11,46797182,47
32-12,46801088,-16
32-13,46804994,-33
32-14,46808900,59
32-15,46812806,125
32-16,46816712,81
32-17,46820618,7
32-18,46824524,15
32-19,46828430,66
32-20,46832336,31
32-21,46836242,-42
32-22,46840148,-44
32-23,46844054,10
32-24,46847960,30
32-25,46851866,-28
32-26,46855772,-73
32-27,46859678,-25
32-28,46863584,52
32-29,46867490,65
32-30,46871396,-8
32-31,46875302,-39
32-32,46879208,15
32-1,46883150,8
32-2,46887056,-50
32-3,46890962,-10
32-4,46894868,77
32-5,46898774,64
32-6,46902680,-18
32-7,46906586,-15
32-8,46910492,48
32-9,46914398,43
32-10,46918304,-21
32-11,46922210,-41
32-12,46926116,10
32-13,46930022,45
32-14,46933928,-6
32-15,46937834,-55
32-16,46941740,2
32-17,46945646,63
32-18,46949552,17
32-19,46953458,-44
32-20,46957364,-24
32-21,46961270,40
32-22,46965176,58
32-23,46969082,7
32-24,46972988,-8
32-25,46976894,52
32-26,46980800,68
32-27,46984706,-7
32-28,46988612,-21
32-29,46992518,71
32-30,46996424,69
32-31,47000330,-49
32-32,47004236,-97
32-1,47008117,-19
32-2,47012023,60
32-3,47015929,37
32-4,47019835,-36
32-5,47023741,-38
32-6,47027647,22
32-7,47031553,20
32-8,47035459,-62
32-9,47039365,-82
32-10,47043271,-20
32-11,47047177,-11
32-12,47051083,-87
32-13,47054989,-146
32-14,47058895,-118
32-15,47062801,-62
32-16,47066707,-96
32-17,47070613,-168
32-18,47074519,-137
32-19,47078425,-58
32-20,47082331,-94
32-21,47086237,-191
32-22,47090143,-184
32-23,47094049,-100
32-24,47097955,-104
32-25,47101861,-166
32-26,47105767,-120
32-27,47109673,-28
32-28,47113579,20
32-29,47117485,31
32-30,47121391,-45
32-31,47125297,-96
32-32,47129203,-52
32-1,47133115,-62
32-2,47137021,-92
32-3,47140927,-37
32-4,47144833,31
32-5,47148739,15
32-6,47152645,-79
32-7,47156551,-96
32-8,47160457,-9
32-9,47164363,4
32-10,47168269,-82
32-11,47172175,-113
32-12,47176081,-58
32-13,47179987,-35
32-14,47183893,-87
32-15,47187799,-107
32-16,47191705,-29
32-17,47195611,46
32-18,47199517,10
32-19,47203423,-49
32-20,47207329,-14
32-21,47211235,60
32-22,47215141,48
32-23,47219047,-32
32-24,47222953,-62
32-25,47226859,-6
32-26,47230765,21
32-27,47234671,-68
32-28,47238577,-92
32-29,47242483,10
32-30,47246389,24
32-31,47250295,-64
32-32,47254201,-108
32-1,47258112,-50
32-2,47262018,49
32-3,47265924,46
32-4,47269830,-32
32-5,47273736,-48
32-6,47277642,-12
32-7,47281548,-33
32-8,47285454,-101
32-9,47289360,-106
32-10,47293266,-42
32-11,47297172,6
32-12,47301078,-37
32-13,47304984,-74
32-14,47308890,19
32-15,47312796,100
32-16,47316702,43
32-17,47320608,-30
32-18,47324514,-12
32-19,47328420,51
32-20,47332326,30
32-21,47336232,-48
32-22,47340138,-36
32-23,47344044,35
32-24,47347950,27
32-25,47351856,-77
32-26,47355762,-125
32-27,47359668,-40
32-28,47363574,57
32-29,47367480,21
32-30,47371386,-94
32-31,47375292,-99
32-32,47379198,-37
32-1,47383110,-71
32-2,47387016,-106
32-3,47390922,-59
32-4,47394828,-6
32-5,47398734,-15
32-6,47402640,-91
32-7,47406546,-105
32-8,47410452,-21
32-9,47414358,-8
32-10,47418264,-97
32-11,47422170,-120
32-12,47426076,-35
32-13,47429982,4
32-14,47433888,-50
32-15,47437794,-93
32-16,47441700,-61
32-17,47445606,-7
32-18,47449512,-41
32-19,47453418,-106
32-20,47457324,-62
32-21,47461230,23
32-22,47465136,14
32-23,47469042,-52
32-24,47472948,-60
32-25,47476854,14
32-26,47480760,58
32-27,47484666,-4
32-28,47488572,-26
32-29,47492478,59
32-30,47496384,69
32-31,47500290,-24
32-32,47504196,-73
32-1,47508138,-50
32-2,47512044,-10
32-3,47515950,-31
32-4,47519856,-92
32-5,47523762,-79
32-6,47527668,12
32-7,47531574,43
32-8,47535480,-26
32-9,47539386,-44
32-10,47543292,26
32-11,47547198,23
32-12,47551104,-72
32-13,47555010,-114
32-14,47558916,-72
32-15,47562822,-44
32-16,47566728,-97
32-17,47570634,-144
32-18,47574540,-96
32-19,47578446,-40
32-20,47582352,-71
32-21,47586258,-128
32-22,47590164,-119
32-23,47594070,-66
32-24,47597976,-60
32-25,47601882,-90
32-26,47605788,-78
32-27,47609694,-24
32-28,47613600,6
32-29,47617506,-45
32-30,47621412,-113
32-31,47625318,-83
32-32,47629224,-19
32-1,47633105,-45
32-2,47637011,-95
32-3,47640917,-65
32-4,47644823,-4
32-5,47648729,-19
32-6,47652635,-98
32-7,47656541,-107
32-8,47660447,-29
32-9,47664353,-10
32-10,47668259,-61
32-11,47672165,-73
32-12,47676071,-9
32-13,47679977,35
32-14,47683883,-5
32-15,47687789,-24
32-16,47691695,28
32-17,47695601,43
32-18,47699507,-15
32-19,47703413,-75
32-20,47707319,-61
32-21,47711225,-7
32-22,47715131,-24
32-23,47719037,-84
32-24,47722943,-78
32-25,47726849,6
32-26,47730755,32
32-27,47734661,-56
32-28,47738567,-73
32-29,47742473,31
32-30,47746379,48
32-31,47750285,-32
32-32,47754191,-68
32-1,47758103,-40
32-2,47762009,-16
32-3,47765915,-61
32-4,47769821,-102
32-5,47773727,-45
32-6,47777633,32
32-7,47781539,27
32-8,47785445,-51
32-9,47789351,-96
32-10,47793257,-41
32-11,47797163,4
32-12,47801069,-60
32-13,47804975,-114
32-14,47808881,-48
32-15,47812787,16
32-16,47816693,-23
32-17,47820599,-75
32-18,47824505,-40
32-19,47828411,31
32-20,47832317,19
32-21,47836223,-43
32-22,47840129,-26
32-23,47844035,58
32-24,47847941,65
32-25,47851847,-5
32-26,47855753,-2
32-27,47859659,63
32-28,47863565,101
32-29,47867471,99
32-30,47871377,46
32-31,47875283,30
32-32,47879189,54
32-1,47883101,-18
32-2,47887007,-87
32-3,47890913,-3
32-4,47894819,85
32-5,47898725,28
32-6,47902631,-60
32-7,47906537,-36
32-8,47910443,27
32-9,47914349,-1
32-10,47918255,-77
32-11,47922161,-78
32-12,47926067,9
32-13,47929973,56
32-14,47933879,-13
32-15,47937785,-86
32-16,47941691,-60
32-17,47945597,-11
32-18,47949503,-39
32-19,47953409,-92
32-20,47957315,-58
32-21,47961221,14
32-22,47965127,-6
32-23,47969033,-66
32-24,47972939,-52
32-25,47976845,5
32-26,47980751,8
32-27,47984657,-60
32-28,47988563,-63
32-29,47992469,36
32-30,47996375,54
32-31,48000281,-29
32-32,48004187,-76
32-1,48008098,-48
32-2,48012004,6
32-3,48015910,-27
32-4,48019816,-105
32-5,48023722,-67
32-6,48027628,15
32-7,48031534,-21
32-8,48035440,-116
32-9,48039346,-125
32-10,48043252,-40
32-11,48047158,-6
32-12,48051064,-80
32-13,48054970,-123
32-14,48058876,-48
32-15,48062782,16
32-16,48066688,-42
32-17,48070594,-105
32-18,48074500,-62
32-19,48078406,5
32-20,48082312,-9
32-21,48086218,-76
32-22,48090124,-77
32-23,48094030,3
32-24,48097936,8
32-25,48101842,-92
32-26,48105748,-124
32-27,48109654,-52
32-28,48113560,-8
32-29,48117466,-56
32-30,48121372,-115
32-31,48125278,-84
32-32,48129184,-26
32-1,48133187,-31
32-2,48137093,-46
32-3,48140999,-17
32-4,48144905,8
32-5,48148811,-39
32-6,48152717,-120
32-7,48156623,-135
32-8,48160529,-90
32-9,48164435,-93
32-10,48168341,-158
32-11,48172247,-175
32-12,48176153,-83
32-13,48180059,5
32-14,48183965,-34
32-15,48187871,-104
32-16,48191777,-64
32-17,48195683,-3
32-18,48199589,-33
32-19,48203495,-84
32-20,48207401,-63
32-21,48211307,7
32-22,48215213,7
32-23,48219119,-62
32-24,48223025,-65
32-25,48226931,16
32-26,48230837,24
32-27,48234743,-82
32-28,48238649,-106
32-29,48242555,-3
32-30,48246461,3
32-31,48250367,-105
32-32,48254273,-138
32-1,48258093,-64
32-2,48261999,9
32-3,48265905,-7
32-4,48269811,-73
32-5,48273717,-48
32-6,48277623,49
32-7,48281529,38
32-8,48285435,-64
32-9,48289341,-71
32-10,48293247,10
32-11,48297153,26
32-12,48301059,-38
32-13,48304965,-58
32-14,48308871,15
32-15,48312777,61
32-16,48316683,8
32-17,48320589,-29
32-18,48324495,23
32-19,48328401,76
32-20,48332307,40
32-21,48336213,-40
32-22,48340119,-25
32-23,48344025,75
32-24,48347931,68
32-25,48351837,-33
32-26,48355743,-48
32-27,48359649,18
32-28,48363555,69
32-29,48367461,48
32-30,48371367,-34
32-31,48375273,-37
32-32,48379179,10
32-1,48383091,-36
32-2,48386997,-81
32-3,48390903,-33
32-4,48394809,32
32-5,48398715,27
32-6,48402621,-56
32-7,48406527,-78
32-8,48410433,3
32-9,48414339,21
32-10,48418245,-45
32-11,48422151,-58
32-12,48426057,-7
32-13,48429963,-10
32-14,48433869,-84
32-15,48437775,-98
32-16,48441681,-15
32-17,48445587,42
32-18,48449493,3
32-19,48453399,-57
32-20,48457305,-45
32-21,48461211,26
32-22,48465117,28
32-23,48469023,-67
32-24,48472929,-104
32-25,48476835,-31
32-26,48480741,-6
32-27,48484647,-84
32-28,48488553,-85
32-29,48492459,42
32-30,48496365,65
32-31,48500271,-44
32-32,48504177,-71
32-1,48508089,-2
32-2,48511995,32
32-3,48515901,-18
32-4,48519807,-92
32-5,48523713,-100
32-6,48527619,-31
32-7,48531525,7
32-8,48535431,-49
32-9,48539337,-68
32-10,48543243,-11
32-11,48547149,-9
32-12,48551055,-81
32-13,48554961,-120
32-14,48558867,-65
32-15,48562773,-10
32-16,48566679,-62
32-17,48570585,-124
32-18,48574491,-86
32-19,48578397,-35
32-20,48582303,-57
32-21,48586209,-87
32-22,48590115,-62
32-23,48594021,-8
32-24,48597927,-12
32-25,48601833,-63
32-26,48605739,-46
32-27,48609645,-11
32-28,48613551,-2
32-29,48617457,23
32-30,48621363,-15
32-31,48625269,-41
32-32,48629175,15
32-1,48633086,-11
32-2,48636992,-64
32-3,48640898,-14
32-4,48644804,31
32-5,48648710,-8
32-6,48652616,-78
32-7,48656522,-76
32-8,48660428,-9
32-9,48664334,-10
32-10,48668240,-82
32-11,48672146,-109
32-12,48676052,-62
32-13,48679958,-19
32-14,48683864,-30
32-15,48687770,-52
32-16,48691676,-12
32-17,48695582,55
32-18,48699488,39
32-19,48703394,-28
32-20,48707300,-23
32-21,48711206,27
32-22,48715112,-6
32-23,48719018,-92
32-24,48722924,-83
32-25,48726830,8
32-26,48730736,17
32-27,48734642,-59
32-28,48738548,-36
32-29,48742454,72
32-30,48746360,32
32-31,48750266,-99
32-32,48754172,-117
32-1,48758206,-39
32-2,48762112,26
32-3,48766018,-2
32-4,48769924,-48
32-5,48773830,2
32-6,48777736,54
32-7,48781642,13
32-8,48785548,-59
32-9,48789454,-56
32-10,48793360,13
32-11,48797266,27
32-12,48801172,-21
32-13,48805078,-41
32-14,48808984,-10
32-15,48812890,6
32-16,48816796,-49
32-17,48820702,-91
32-18,48824608,-18
32-19,48828514,66
32-20,48832420,29
32-21,48836326,-56
32-22,48840232,-65
32-23,48844138,-1
32-24,48848044,19
32-25,48851950,-36
32-26,48855856,-61
32-27,48859762,-39
32-28,48863668,-20
32-29,48867574,-44
32-30,48871480,-106
32-31,48875386,-90
32-32,48879292,-32
32-1,48883082,-73
32-2,48886988,-123
32-3,48890894,-72
32-4,48894800,9
32-5,48898706,-10
32-6,48902612,-89
32-7,48906518,-71
32-8,48910424,25
32-9,48914330,55
32-10,48918236,17
32-11,48922142,13
32-12,48926048,58
32-13,48929954,66
32-14,48933860,8
32-15,48937766,-44
32-16,48941672,-12
32-17,48945578,16
32-18,48949484,-45
32-19,48953390,-104
32-20,48957296,-77
32-21,48961202,-12
32-22,48965108,-12
32-23,48969014,-60
32-24,48972920,-39
32-25,48976826,35
32-26,48980732,46
32-27,48984638,-26
32-28,48988544,-32
32-29,48992450,66
32-30,48996356,80
32-31,49000262,-9
32-32,49004168,-31
32-1,49008079,38
32-2,49011985,89
32-3,49015891,36
32-4,49019797,-28
32-5,49023703,6
32-6,49027609,59
32-7,49031515,19
32-8,49035421,-66
32-9,49039327,-78
32-10,49043233,7
32-11,49047139,52
32-12,49051045,-11
32-13,49054951,-37
32-14,49058857,23
32-15,49062763,33
32-16,49066669,-35
32-17,49070575,-66
32-18,49074481,-13
32-19,49078387,21
32-20,49082293,-36
32-21,49086199,-92
32-22,49090105,-62
32-23,49094011,-1
32-24,49097917,-9
32-25,49101823,-58
32-26,49105729,-44
32-27,49109635,10
32-28,49113541,26
32-29,49117447,-2
32-30,49121353,-43
32-31,49125259,-28
32-32,49129165,18
32-1,49133107,-25
32-2,49137013,-105
32-3,49140919,-73
32-4,49144825,10
32-5,49148731,-8
32-6,49152637,-77
32-7,49156543,-52
32-8,49160449,44
32-9,49164355,60
32-10,49168261,-5
32-11,49172167,-8
32-12,49176073,63
32-13,49179979,87
32-14,49183885,35
32-15,49187791,25
32-16,49191697,90
32-17,49195603,126
32-18,49199509,90
32-19,49203415,47
32-20,49207321,59
32-21,49211227,100
32-22,49215133,83
32-23,49219039,11
32-24,49222945,-5
32-25,49226851,53
32-26,49230757,59
32-27,49234663,-38
32-28,49238569,-67
32-29,49242475,26
32-30,49246381,37
32-31,49250287,-58
32-32,49254193,-80
32-1,49258074,-15
32-2,49261980,39
32-3,49265886,6
32-4,49269792,-58
32-5,49273698,-38
32-6,49277604,17
32-7,49281510,3
32-8,49285416,-63
32-9,49289322,-77
32-10,49293228,-8
32-11,49297134,14
32-12,49301040,-48
32-13,49304946,-67
32-14,49308852,-11
32-15,49312758,19
32-16,49316664,-38
32-17,49320570,-88
32-18,49324476,-32
32-19,49328382,35
32-20,49332288,-2
32-21,49336194,-50
32-22,49340100,-27
32-23,49344006,21
32-24,49347912,12
32-25,49351818,-68
32-26,49355724,-90
32-27,49359630,-20
32-28,49363536,8
32-29,49367442,-33
32-30,49371348,-74
32-31,49375254,-52
32-32,49379160,-26
32-1,49383194,-89
32-2,49387100,-139
32-3,49391006,-79
32-4,49394912,-9
32-5,49398818,-27
32-6,49402724,-71
32-7,49406630,-44
32-8,49410536,8
32-9,49414442,-1
32-10,49418348,-66
32-11,49422254,-65
32-12,49426160,22
32-13,49430066,48
32-14,49433972,1
32-15,49437878,-24
32-16,49441784,-8
32-17,49445690,6
32-18,49449596,-40
32-19,49453502,-80
32-20,49457408,-28
32-21,49461314,15
32-22,49465220,-31
32-23,49469126,-82
32-24,49473032,-68
32-25,49476938,-28
32-26,49480844,-43
32-27,49484750,-122
32-28,49488656,-104
32-29,49492562,28
32-30,49496468,35
32-31,49500374,-73
32-32,49504280,-88
32-1,49508070,-17
32-2,49511976,17
32-3,49515882,-35
32-4,49519788,-92
32-5,49523694,-68
32-6,49527600,-7
32-7,49531506,-20
32-8,49535412,-93
32-9,49539318,-87
32-10,49543224,-3
32-11,49547130,2
32-12,49551036,-93
32-13,49554942,-124
32-14,49558848,-41
32-15,49562754,-10
32-16,49566660,-91
32-17,49570566,-132
32-18,49574472,-78
32-19,49578378,-36
32-20,49582284,-75
32-21,49586190,-133
32-22,49590096,-118
32-23,49594002,-59
32-24,49597908,-66
32-25,49601814,-118
32-26,49605720,-108
32-27,49609626,-45
32-28,49613532,13
32-29,49617438,7
32-30,49621344,-57
32-31,49625250,-54
32-32,49629156,-7
32-1,49633067,-23
32-2,49636973,-41
32-3,49640879,3
32-4,49644785,51
32-5,49648691,7
32-6,49652597,-75
32-7,49656503,-51
32-8,49660409,21
32-9,49664315,-13
32-10,49668221,-115
32-11,49672127,-116
32-12,49676033,-21
32-13,49679939,0
32-14,49683845,-58
32-15,49687751,-62
32-16,49691657,18
32-17,49695563,78
32-18,49699469,38
32-19,49703375,-4
32-20,49707281,46
32-21,49711187,93
32-22,49715093,52
32-23,49718999,-2
32-24,49722905,8
32-25,49726811,65
32-26,49730717,69
32-27,49734623,-18
32-28,49738529,-18
32-29,49742435,100
32-30,49746341,95
32-31,49750247,-31
32-32,49754153,-61
32-1,49758065,28
32-2,49761971,75
32-3,49765877,8
32-4,49769783,-63
32-5,49773689,-47
32-6,49777595,17
32-7,49781501,30
32-8,49785407,-31
32-9,49789313,-43
32-10,49793219,17
32-11,49797125,13
32-12,49801031,-54
32-13,49804937,-49
32-14,49808843,18
32-15,49812749,25
32-16,49816655,-44
32-17,49820561,-85
32-18,49824467,-45
32-19,49828373,-13
32-20,49832279,-77
32-21,49836185,-139
32-22,49840091,-86
32-23,49843997,1
32-24,49847903,-12
32-25,49851809,-91
32-26,49855715,-94
32-27,49859621,-31
32-28,49863527,8
32-29,49867433,-6
32-30,49871339,-44
32-31,49875245,-6
32-32,49879151,55
32-1,49883093,-9
32-2,49886999,-71
32-3,49890905,-11
32-4,49894811,43
32-5,49898717,1
32-6,49902623,-69
32-7,49906529,-46
32-8,49910435,26
32-9,49914341,-5
32-10,49918247,-72
32-11,49922153,-41
32-12,49926059,21
32-13,49929965,1
32-14,49933871,-93
32-15,49937777,-133
32-16,49941683,-75
32-17,49945589,-58
32-18,49949495,-130
32-19,49953401,-159
32-20,49957307,-106
32-21,49961213,-49
32-22,49965119,-63
32-23,49969025,-107
32-24,49972931,-87
32-25,49976837,-38
32-26,49980743,-45
32-27,49984649,-116
32-28,49988555,-112
32-29,49992461,4
32-30,49996367,9
32-31,50000273,-120
32-32,50004179,-171
32-1,50008060,-126
32-2,50011966,-106
32-3,50015872,-156
32-4,50019778,-198
32-5,50023684,-152
32-6,50027590,-74
32-7,50031496,-77
32-8,50035402,-134
32-9,50039308,-129
32-10,50043214,-70
32-11,50047120,-54
32-12,50051026,-94
32-13,50054932,-102
32-14,50058838,-41
32-15,50062744,-27
32-16,50066650,-110
32-17,50070556,-156
32-18,50074462,-106
32-19,50078368,-78
32-20,50082274,-127
32-21,50086180,-170
32-22,50090086,-136
32-23,50093992,-64
32-24,50097898,-68
32-25,50101804,-147
32-26,50105710,-129
32-27,50109616,-42
32-28,50113522,-6
32-29,50117428,-7
32-30,50121334,-55
32-31,50125240,-83
32-32,50129146,-50
32-1,50133058,-79
32-2,50136964,-124
32-3,50140870,-77
32-4,50144776,-30
32-5,50148682,-92
32-6,50152588,-166
32-7,50156494,-123
32-8,50160400,-38
32-9,50164306,-37
32-10,50168212,-83
32-11,50172118,-73
32-12,50176024,-7
32-13,50179930,9
32-14,50183836,-53
32-15,50187742,-88
32-16,50191648,-39
32-17,50195554,-13
32-18,50199460,-84
32-19,50203366,-151
32-20,50207272,-109
32-21,50211178,-37
32-22,50215084,-46
32-23,50218990,-81
32-24,50222896,-55
32-25,50226802,11
32-26,50230708,14
32-27,50234614,-62
32-28,50238520,-41
32-29,50242426,73
32-30,50246332,59
32-31,50250238,-54
32-32,50254144,-93
32-1,50258056,-46
32-2,50261962,-5
32-3,50265868,-48
32-4,50269774,-83
32-5,50273680,-8
32-6,50277586,56
32-7,50281492,25
32-8,50285398,-10
32-9,50289304,25
32-10,50293210,87
32-11,50297116,77
32-12,50301022,-18
32-13,50304928,-47
32-14,50308834,47
32-15,50312740,85
32-16,50316646,3
32-17,50320552,-36
32-18,50324458,21
32-19,50328364,54
32-20,50332270,8
32-21,50336176,-54
32-22,50340082,-68
32-23,50343988,-32
32-24,50347894,-33
32-25,50351800,-88
32-26,50355706,-74
32-27,50359612,3
32-28,50363518,42
32-29,50367424,24
32-30,50371330,-9
32-31,50375236,28
32-32,50379142,68
32-1,50383053,9
32-2,50386959,-33
32-3,50390865,1
32-4,50394771,21
32-5,50398677,-26
32-6,50402583,-92
32-7,50406489,-67
32-8,50410395,15
32-9,50414301,22
32-10,50418207,-26
32-11,50422113,-23
32-12,50426019,41
32-13,50429925,63
32-14,50433831,1
32-15,50437737,-38
32-16,50441643,4
32-17,50445549,19
32-18,50449455,-50
32-19,50453361,-92
32-20,50457267,-55
32-21,50461173,-9
32-22,50465079,-30
32-23,50468985,-97
32-24,50472891,-94
32-25,50476797,-15
32-26,50480703,-40
32-27,50484609,-170
32-28,50488515,-165
32-29,50492421,-47
32-30,50496327,-64
32-31,50500233,-159
32-32,50504139,-179
32-1,50508051,-129
32-2,50511957,-55
32-3,50515863,-60
32-4,50519769,-122
32-5,50523675,-91
32-6,50527581,-31
32-7,50531487,-66
32-8,50535393,-116
32-9,50539299,-74
32-10,50543205,5
32-11,50547111,6
32-12,50551017,-59
32-13,50554923,-60
32-14,50558829,14
32-15,50562735,23
32-16,50566641,-58
32-17,50570547,-96
32-18,50574453,-58
32-19,50578359,-48
32-20,50582265,-103
32-21,50586171,-149
32-22,50590077,-123
32-23,50593983,-60
32-24,50597889,-64
32-25,50601795,-126
32-26,50605701,-113
32-27,50609607,-37
32-28,50613513,-14
32-29,50617419,-39
32-30,50621325,-64
32-31,50625231,-46
32-32,50629137,-24
32-1,50633079,-74
32-2,50636985,-116
32-3,50640891,-68
32-4,50644797,-10
32-5,50648703,-28
32-6,50652609,-62
32-7,50656515,-12
32-8,50660421,62
32-9,50664327,27
32-10,50668233,-67
32-11,50672139,-85
32-12,50676045,-20
32-13,50679951,-7
32-14,50683857,-77
32-15,50687763,-107
32-16,50691669,-47
32-17,50695575,5
32-18,50699481,-34
32-19,50703387,-99
32-20,50707293,-78
32-21,50711199,-29
32-22,50715105,-55
32-23,50719011,-83
32-24,50722917,-52
32-25,50726823,-11
32-26,50730729,-21
32-27,50734635,-85
32-28,50738541,-79
32-29,50742447,3
32-30,50746353,-19
32-31,50750259,-108
32-32,50754165,-106
32-1,50758046,-27
32-2,50761952,31
32-3,50765858,-8
32-4,50769764,-52
32-5,50773670,6
32-6,50777576,66
32-7,50781482,29
32-8,50785388,-41
32-9,50789294,-34
32-10,50793200,35
32-11,50797106,37
32-12,50801012,-28
32-13,50804918,-39
32-14,50808824,41
32-15,50812730,82
32-16,50816636,17
32-17,50820542,-21
32-18,50824448,39
32-19,50828354,99
32-20,50832260,72
32-21,50836166,14
32-22,50840072,36
32-23,50843978,88
32-24,50847884,53
32-25,50851790,-21
32-26,50855696,-20
32-27,50859602,18
32-28,50863508,13
32-29,50867414,-6
32-30,50871320,-27
32-31,50875226,-21
32-32,50879132,14
32-1,50883044,-9
32-2,50886950,-35
32-3,50890856,21
32-4,50894762,86
32-5,50898668,54
32-6,50902574,-31
32-7,50906480,-33
32-8,50910386,5
32-9,50914292,-28
32-10,50918198,-84
32-11,50922104,-62
32-12,50926010,37
32-13,50929916,76
32-14,50933822,19
32-15,50937728,-3
32-16,50941634,45
32-17,50945540,63
32-18,50949446,5
32-19,50953352,-15
32-20,50957258,60
32-21,50961164,97
32-22,50965070,44
32-23,50968976,3
32-24,50972882,19
32-25,50976788,59
32-26,50980694,51
32-27,50984600,-29
32-28,50988506,-40
32-29,50992412,54
32-30,50996318,47
32-31,51000224,-76
32-32,51004130,-109
32-1,51008041,-21
32-2,51011947,27
32-3,51015853,-33
32-4,51019759,-86
32-5,51023665,-47
32-6,51027571,14
32-7,51031477,-6
32-8,51035383,-51
32-9,51039289,-3
32-10,51043195,75
32-11,51047101,52
32-12,51051007,-23
32-13,51054913,-36
32-14,51058819,5
32-15,51062725,-19
32-16,51066631,-116
32-17,51070537,-139
32-18,51074443,-43
32-19,51078349,24
32-20,51082255,-32
32-21,51086161,-88
32-22,51090067,-25
32-23,51093973,36
32-24,51097879,-17
32-25,51101785,-90
32-26,51105691,-62
32-27,51109597,18
32-28,51113503,38
32-29,51117409,-8
32-30,51121315,-35
32-31,51125221,18
32-32,51129127,48
32-1,51133039,-26
32-2,51136945,-73
32-3,51140851,-27
32-4,51144757,13
32-5,51148663,-22
32-6,51152569,-73
32-7,51156475,-35
32-8,51160381,48
32-9,51164287,32
32-10,51168193,-41
32-11,51172099,-18
32-12,51176005,60
32-13,51179911,48
32-14,51183817,-41
32-15,51187723,-67
32-16,51191629,6
32-17,51195535,34
32-18,51199441,-28
32-19,51203347,-54
32-20,51207253,9
32-21,51211159,86
32-22,51215065,60
32-23,51218971,-30
32-24,51222877,-24
32-25,51226783,42
32-26,51230689,26
32-27,51234595,-53
32-28,51238501,-36
32-29,51242407,73
32-30,51246313,61
32-31,51250219,-55
32-32,51254125,-83
32-1,51258037,-14
32-2,51261943,32
32-3,51265849,-24
32-4,51269755,-99
32-5,51273661,-75
32-6,51277567,-16
32-7,51281473,-40
32-8,51285379,-101
32-9,51289285,-62
32-10,51293191,24
32-11,51297097,-1
32-12,51301003,-101
32-13,51304909,-116
32-14,51308815,-38
32-15,51312721,-25
32-16,51316627,-104
32-17,51320533,-124
32-18,51324439,-44
32-19,51328345,-9
32-20,51332251,-75
32-21,51336157,-122
32-22,51340063,-69
32-23,51343969,0
32-24,51347875,-23
32-25,51351781,-81
32-26,51355687,-52
32-27,51359593,20
32-28,51363499,38
32-29,51367405,14
32-30,51371311,-15
32-31,51375217,-10
32-32,51379123,1
32-1,51383065,-35
32-2,51386971,-63
32-3,51390877,-12
32-4,51394783,41
32-5,51398689,4
32-6,51402595,-52
32-7,51406501,-20
32-8,51410407,47
32-9,51414313,26
32-10,51418219,-47
32-11,51422125,-26
32-12,51426031,40
32-13,51429937,10
32-14,51433843,-68
32-15,51437749,-61
32-16,51441655,22
32-17,51445561,46
32-18,51449467,-29
32-19,51453373,-66
32-20,51457279,-17
32-21,51461185,16
32-22,51465091,-16
32-23,51468997,-48
32-24,51472903,-29
32-25,51476809,-9
32-26,51480715,-57
32-27,51484621,-148
32-28,51488527,-137
32-29,51492433,-34
32-30,51496339,-52
32-31,51500245,-145
32-32,51504151,-115
32-1,51508032,-18
32-2,51511938,3
32-3,51515844,-59
32-4,51519750,-93
32-5,51523656,-43
32-6,51527562,-12
32-7,51531468,-77
32-8,51535374,-146
32-9,51539280,-108
32-10,51543186,-26
32-11,51547092,-24
32-12,51550998,-71
32-13,51554904,-53
32-14,51558810,27
32-15,51562716,35
32-16,51566622,-50
32-17,51570528,-86
32-18,51574434,-12
32-19,51578340,34
32-20,51582246,-33
32-21,51586152,-84
32-22,51590058,-28
32-23,51593964,29
32-24,51597870,-10
32-25,51601776,-77
32-26,51605682,-62
32-27,51609588,1
32-28,51613494,21
32-29,51617400,4
32-30,51621306,-33
32-31,51625212,-47
32-32,51629118,-45
32-1,51633029,-86
32-2,51636935,-95
32-3,51640841,-31
32-4,51644747,4
32-5,51648653,-53
32-6,51652559,-124
32-7,51656465,-87
32-8,51660371,-23
32-9,51664277,-69
32-10,51668183,-135
32-11,51672089,-96
32-12,51675995,-14
32-13,51679901,-29
32-14,51683807,-122
32-15,51687713,-135
32-16,51691619,-61
32-17,51695525,-42
32-18,51699431,-97
32-19,51703337,-119
32-20,51707243,-63
32-21,51711149,-6
32-22,51715055,-32
32-23,51718961,-86
32-24,51722867,-54
32-25,51726773,14
32-26,51730679,-17
32-27,51734585,-85
32-28,51738491,-22
32-29,51742397,88
32-30,51746303,45
32-31,51750209,-52
32-32,51754115,-42
32-1,51758027,35
32-2,51761933,93
32-3,51765839,55
32-4,51769745,-10
32-5,51773651,27
32-6,51777557,72
32-7,51781463,23
32-8,51785369,-41
32-9,51789275,-18
32-10,51793181,39
32-11,51797087,10
32-12,51800993,-45
32-13,51804899,-7
32-14,51808805,59
32-15,51812711,57
32-16,51816617,21
32-17,51820523,37
32-18,51824429,89
32-19,51828335,91
32-20,51832241,24
32-21,51836147,-15
32-22,51840053,41
32-23,51843959,106
32-24,51847865,66
32-25,51851771,-3
32-26,51855677,12
32-27,51859583,51
32-28,51863489,36
32-29,51867395,-13
32-30,51871301,-47
32-31,51875207,-27
32-32,51879113,-13
32-1,51883025,-64
32-2,51886931,-68
32-3,51890837,8
32-4,51894743,50
32-5,51898649,7
32-6,51902555,-51
32-7,51906461,-35
32-8,51910367,19
32-9,51914273,-4
32-10,51918179,-82
32-11,51922085,-89
32-12,51925991,-17
32-13,51929897,-7
32-14,51933803,-97
32-15,51937709,-124
32-16,51941615,-34
32-17,51945521,5
32-18,51949427,-71
32-19,51953333,-114
32-20,51957239,-43
32-21,51961145,8
32-22,51965051,-44
32-23,51968957,-83
32-24,51972863,-44
32-25,51976769,-1
32-26,51980675,-20
32-27,51984581,-78
32-28,51988487,-56
32-29,51992393,26
32-30,51996299,-7
32-31,52000205,-104
32-32,52004111,-81
32-1,52008022,9
32-2,52011928,29
32-3,52015834,-24
32-4,52019740,-76
32-5,52023646,-49
32-6,52027552,7
32-7,52031458,-36
32-8,52035364,-111
32-9,52039270,-70
32-10,52043176,8
32-11,52047082,-26
32-12,52050988,-92
32-13,52054894,-60
32-14,52058800,8
32-15,52062706,14
32-16,52066612,-29
32-17,52070518,-33
32-18,52074424,37
32-19,52078330,72
32-20,52082236,17
32-21,52086142,-14
32-22,52090048,23
32-23,52093954,65
32-24,52097860,39
32-25,52101766,-37
32-26,52105672,-21
32-27,52109578,36
32-28,52113484,-7
32-29,52117390,-53
32-30,52121296,-54
32-31,52125202,-24
32-32,52129108,2
32-1,52132989,-64
32-2,52136895,-108
32-3,52140801,-35
32-4,52144707,1
32-5,52148613,-70
32-6,52152519,-121
32-7,52156425,-67
32-8,52160331,-9
32-9,52164237,-55
32-10,52168143,-117
32-11,52172049,-93
32-12,52175955,-36
32-13,52179861,-46
32-14,52183767,-110
32-15,52187673,-115
32-16,52191579,-34
32-17,52195485,-17
32-18,52199391,-100
32-19,52203297,-125
32-20,52207203,-56
32-21,52211109,-14
32-22,52215015,-50
32-23,52218921,-96
32-24,52222827,-92
32-25,52226733,-77
32-26,52230639,-89
32-27,52234545,-117
32-28,52238451,-85
32-29,52242357,13
32-30,52246263,4
32-31,52250169,-115
32-32,52254075,-132
32-1,52258018,-55
32-2,52261924,-42
32-3,52265830,-106
32-4,52269736,-140
32-5,52273642,-96
32-6,52277548,-59
32-7,52281454,-101
32-8,52285360,-142
32-9,52289266,-88
32-10,52293172,-20
32-11,52297078,-56
32-12,52300984,-134
32-13,52304890,-126
32-14,52308796,-43
32-15,52312702,-21
32-16,52316608,-86
32-17,52320514,-100
32-18,52324420,-26
32-19,52328326,15
32-20,52332232,-27
32-21,52336138,-88
32-22,52340044,-82
32-23,52343950,-32
32-24,52347856,-55
32-25,52351762,-119
32-26,52355668,-89
32-27,52359574,-19
32-28,52363480,-3
32-29,52367386,-16
32-30,52371292,-32
32-31,52375198,-10
32-32,52379104,13
32-1,52383015,-47
32-2,52386921,-78
32-3,52390827,-13
32-4,52394733,7
32-5,52398639,-44
32-6,52402545,-76
32-7,52406451,-33
32-8,52410357,24
32-9,52414263,-21
32-10,52418169,-87
32-11,52422075,-46
32-12,52425981,12
32-13,52429887,-8
32-14,52433793,-55
32-15,52437699,-51
32-16,52441605,-10
32-17,52445511,-31
32-18,52449417,-96
32-19,52453323,-96
32-20,52457229,-32
32-21,52461135,15
32-22,52465041,-9
32-23,52468947,-49
32-24,52472853,-32
32-25,52476759,3
32-26,52480665,-23
32-27,52484571,-98
32-28,52488477,-80
32-29,52492383,23
32-30,52496289,-1
32-31,52500195,-111
32-32,52504101,-122
32-1,52508013,-64
32-2,52511919,-48
32-3,52515825,-99
32-4,52519731,-128
32-5,52523637,-65
32-6,52527543,-14
32-7,52531449,-70
32-8,52535355,-128
32-9,52539261,-85
32-10,52543167,-36
32-11,52547073,-82
32-12,52550979,-137
32-13,52554885,-94
32-14,52558791,6
32-15,52562697,42
32-16,52566603,-19
32-17,52570509,-54
32-18,52574415,14
32-19,52578321,54
32-20,52582227,-12
32-21,52586133,-52
32-22,52590039,3
32-23,52593945,50
32-24,52597851,7
32-25,52601757,-45
32-26,52605663,-1
32-27,52609569,52
32-28,52613475,27
32-29,52617381,-20
32-30,52621287,-39
32-31,52625193,-26
32-32,52629099,-27
32-1,52633011,-59
32-2,52636917,-53
32-3,52640823,24
32-4,52644729,69
32-5,52648635,7
32-6,52652541,-47
32-7,52656447,20
32-8,52660353,81
32-9,52664259,24
32-10,52668165,-45
32-11,52672071,-19
32-12,52675977,39
32-13,52679883,20
32-14,52683789,-41
32-15,52687695,-31
32-16,52691601,38
32-17,52695507,49
32-18,52699413,-17
32-19,52703319,-49
32-20,52707225,-3
32-21,52711131,30
32-22,52715037,-21
32-23,52718943,-62
32-24,52722849,-2
32-25,52726755,59
32-26,52730661,11
32-27,52734567,-68
32-28,52738473,-31
32-29,52742379,61
32-30,52746285,23
32-31,52750191,-81
32-32,52754097,-89
32-1,52758008,-35
32-2,52761914,-25
32-3,52765820,-77
32-4,52769726,-100
32-5,52773632,-27
32-6,52777538,37
32-7,52781444,-13
32-8,52785350,-86
32-9,52789256,-57
32-10,52793162,21
32-11,52797068,14
32-12,52800974,-35
32-13,52804880,-5
32-14,52808786,63
32-15,52812692,55
32-16,52816598,-10
32-17,52820504,-12
32-18,52824410,79
32-19,52828316,121
32-20,52832222,37
32-21,52836128,-27
32-22,52840034,27
32-23,52843940,81
32-24,52847846,24
32-25,52851752,-44
32-26,52855658,1
32-27,52859564,68
32-28,52863470,55
32-29,52867376,6
32-30,52871282,2
32-31,52875188,51
32-32,52879094,50
32-1,52883006,-42
32-2,52886912,-84
32-3,52890818,-15
32-4,52894724,40
32-5,52898630,-8
32-6,52902536,-64
32-7,52906442,-19
32-8,52910348,22
32-9,52914254,-38
32-10,52918160,-83
32-11,52922066,-34
32-12,52925972,26
32-13,52929878,3
32-14,52933784,-59
32-15,52937690,-42
32-16,52941596,42
32-17,52945502,55
32-18,52949408,-19
32-19,52953314,-55
32-20,52957220,-6
32-21,52961126,33
32-22,52965032,-14
32-23,52968938,-73
32-24,52972844,-45
32-25,52976750,-10
32-26,52980656,-59
32-27,52984562,-118
32-28,52988468,-67
32-29,52992374,43
32-30,52996280,22
32-31,53000186,-89
32-32,53004092,-72
32-1,53007973,39
32-2,53011879,60
32-3,53015785,-20
32-4,53019691,-70
32-5,53023597,-32
32-6,53027503,3
32-7,53031409,-57
32-8,53035315,-109
32-9,53039221,-37
32-10,53043127,40
32-11,53047033,-2
32-12,53050939,-69
32-13,53054845,-43
32-14,53058751,36
32-15,53062657,49
32-16,53066563,4
32-17,53070469,22
32-18,53074375,90
32-19,53078281,65
32-20,53082187,-38
32-21,53086093,-71
32-22,53089999,-20
32-23,53093905,11
32-24,53097811,-34
32-25,53101717,-88
32-26,53105623,-42
32-27,53109529,21
32-28,53113435,8
32-29,53117341,3
32-30,53121247,13
32-31,53125153,18
32-32,53129059,23
32-1,53133001,-42
32-2,53136907,-84
32-3,53140813,-16
32-4,53144719,9
32-5,53148625,-66
32-6,53152531,-119
32-7,53156437,-71
32-8,53160343,7
32-9,53164249,-13
32-10,53168155,-87
32-11,53172061,-70
32-12,53175967,7
32-13,53179873,-14
32-14,53183779,-116
32-15,53187685,-123
32-16,53191591,-28
32-17,53195497,-19
32-18,53199403,-100
32-19,53203309,-103
32-20,53207215,-23
32-21,53211121,-4
32-22,53215027,-78
32-23,53218933,-117
32-24,53222839,-52
32-25,53226745,8
32-26,53230651,-44
32-27,53234557,-130
32-28,53238463,-87
32-29,53242369,18
32-30,53246275,-30
32-31,53250181,-136
32-32,53254087,-105
32-1,53257999,-21
32-2,53261905,-12
32-3,53265811,-80
32-4,53269717,-129
32-5,53273623,-73
32-6,53277529,-38
32-7,53281435,-101
32-8,53285341,-122
32-9,53289247,-54
32-10,53293153,7
32-11,53297059,-12
32-12,53300965,-76
32-13,53304871,-70
32-14,53308777,-2
32-15,53312683,1
32-16,53316589,-61
32-17,53320495,-71
32-18,53324401,1
32-19,53328307,23
32-20,53332213,-42
32-21,53336119,-59
32-22,53340025,-4
32-23,53343931,42
32-24,53347837,23
32-25,53351743,-41
32-26,53355649,-24
32-27,53359555,41
32-28,53363461,21
32-29,53367367,-23
32-30,53371273,-13
32-31,53375179,7
32-32,53379085,-36
32-1,53382996,-123
32-2,53386902,-119
32-3,53390808,-29
32-4,53394714,2
32-5,53398620,-57
32-6,53402526,-77
32-7,53406432,7
32-8,53410338,74
32-9,53414244,27
32-10,53418150,-45
32-11,53422056,-13
32-12,53425962,56
32-13,53429868,24
32-14,53433774,-61
32-15,53437680,-64
32-16,53441586,25
32-17,53445492,58
32-18,53449398,-25
32-19,53453304,-69
32-20,53457210,4
32-21,53461116,49
32-22,53465022,-32
32-23,53468928,-97
32-24,53472834,-58
32-25,53476740,-30
32-26,53480646,-80
32-27,53484552,-144
32-28,53488458,-104
32-29,53492364,11
32-30,53496270,6
32-31,53500176,-91
32-32,53504082,-75
32-1,53507994,29
32-2,53511900,55
32-3,53515806,-7
32-4,53519712,-18
32-5,53523618,46
32-6,53527524,53
32-7,53531430,-28
32-8,53535336,-89
32-9,53539242,-53
32-10,53543148,19
32-11,53547054,11
32-12,53550960,-51
32-13,53554866,-25
32-14,53558772,68
32-15,53562678,54
32-16,53566584,-35
32-17,53570490,-20
32-18,53574396,68
32-19,53578302,73
32-20,53582208,16
32-21,53586114,3
32-22,53590020,59
32-23,53593926,100
32-24,53597832,46
32-25,53601738,-27
32-26,53605644,-17
32-27,53609550,11
32-28,53613456,10
32-29,53617362,-1
32-30,53621268,7
32-31,53625174,50
32-32,53629080,36
32-1,53633205,-33
32-2,53637111,-21
32-3,53641017,45
32-4,53644923,45
32-5,53648829,-31
32-6,53652735,-87
32-7,53656641,-42
32-8,53660547,19
32-9,53664453,-20
32-10,53668359,-71
32-11,53672265,-17
32-12,53676171,46
32-13,53680077,6
32-14,53683983,-65
32-15,53687889,-50
32-16,53691795,30
32-17,53695701,27
32-18,53699607,-72
32-19,53703513,-103
32-20,53707419,-25
32-21,53711325,15
32-22,53715231,-50
32-23,53719137,-93
32-24,53723043,-33
32-25,53726949,42
32-26,53730855,21
32-27,53734761,-50
32-28,53738667,-5
32-29,53742573,104
32-30,53746479,54
32-31,53750385,-53
32-32,53754291,-27
32-1,53757989,27
32-2,53761895,-12
32-3,53765801,-93
32-4,53769707,-113
32-5,53773613,-46
32-6,53777519,2
32-7,53781425,-50
32-8,53785331,-93
32-9,53789237,-34
32-10,53793143,33
32-11,53797049,-4
32-12,53800955,-82
32-13,53804861,-62
32-14,53808767,22
32-15,53812673,13
32-16,53816579,-68
32-17,53820485,-63
32-18,53824391,23
32-19,53828297,38
32-20,53832203,-24
32-21,53836109,-14
32-22,53840015,69
32-23,53843921,95
32-24,53847827,27
32-25,53851733,-42
32-26,53855639,-6
32-27,53859545,43
32-28,53863451,13
32-29,53867357,5
32-30,53871263,10
32-31,53875169,-2
32-32,53879075,-2
32-1,53882987,-59
32-2,53886893,-97
32-3,53890799,-22
32-4,53894705,7
32-5,53898611,-65
32-6,53902517,-79
32-7,53906423,15
32-8,53910329,75
32-9,53914235,-2
32-10,53918141,-103
32-11,53922047,-89
32-12,53925953,-20
32-13,53929859,-30
32-14,53933765,-94
32-15,53937671,-89
32-16,53941577,-21
32-17,53945483,-32
32-18,53949389,-122
32-19,53953295,-133
32-20,53957201,-66
32-21,53961107,-45
32-22,53965013,-80
32-23,53968919,-100
32-24,53972825,-64
32-25,53976731,-23
32-26,53980637,-61
32-27,53984543,-119
32-28,53988449,-57
32-29,53992355,48
32-30,53996261,8
32-31,54000167,-81
32-32,54004073,-52
32-1,54007984,7
32-2,54011890,-21
32-3,54015796,-100
32-4,54019702,-103
32-5,54023608,-26
32-6,54027514,7
32-7,54031420,-41
32-8,54035326,-96
32-9,54039232,-73
32-10,54043138,-10
32-11,54047044,-43
32-12,54050950,-116
32-13,54054856,-83
32-14,54058762,-5
32-15,54062668,-9
32-16,54066574,-66
32-17,54070480,-64
32-18,54074386,18
32-19,54078292,55
32-20,54082198,-29
32-21,54086104,-85
32-22,54090010,-17
32-23,54093916,32
32-24,54097822,-40
32-25,54101728,-102
32-26,54105634,-57
32-27,54109540,4
32-28,54113446,-1
32-29,54117352,-45
32-30,54121258,-72
32-31,54125164,-32
32-32,54129070,-16
32-1,54132982,-83
32-2,54136888,-88
32-3,54140794,4
32-4,54144700,32
32-5,54148606,-30
32-6,54152512,-60
32-7,54156418,-12
32-8,54160324,22
32-9,54164230,-15
32-10,54168136,-59
32-11,54172042,-18
32-12,54175948,53
32-13,54179854,25
32-14,54183760,-49
32-15,54187666,-51
32-16,54191572,-5
32-17,54195478,3
32-18,54199384,-53
32-19,54203290,-68
32-20,54207196,-3
32-21,54211102,9
32-22,54215008,-58
32-23,54218914,-83
32-24,54222820,-22
32-25,54226726,26
32-26,54230632,-22
32-27,54234538,-83
32-28,54238444,-39
32-29,54242350,43
32-30,54246256,-1
32-31,54250162,-109
32-32,54254068,-106
32-1,54258071,-13
32-2,54261977,36
32-3,54265883,-14
32-4,54269789,-40
32-5,54273695,28
32-6,54277601,39
32-7,54281507,-41
32-8,54285413,-73
32-9,54289319,-15
32-10,54293225,50
32-11,54297131,19
32-12,54301037,-54
32-13,54304943,-16
32-14,54308849,81
32-15,54312755,78
32-16,54316661,25
32-17,54320567,42
32-18,54324473,93
32-19,54328379,77
32-20,54332285,-9
32-21,54336191,-52
32-22,54340097,-9
32-23,54344003,14
32-24,54347909,-58
32-25,54351815,-132
32-26,54355721,-91
32-27,54359627,-28
32-28,54363533,-53
32-29,54367439,-97
32-30,54371345,-84
32-31,54375251,-28
32-32,54379157,-34
32-1,54383038,-124
32-2,54386944,-136
32-3,54390850,-55
32-4,54394756,-35
32-5,54398662,-95
32-6,54402568,-118
32-7,54406474,-51
32-8,54410380,13
32-9,54414286,-22
32-10,54418192,-74
32-11,54422098,-29
32-12,54426004,27
32-13,54429910,-18
32-14,54433816,-82
32-15,54437722,-66
32-16,54441628,-4
32-17,54445534,13
32-18,54449440,-48
32-19,54453346,-80
32-20,54457252,-8
32-21,54461158,40
32-22,54465064,-22
32-23,54468970,-52
32-24,54472876,16
32-25,54476782,51
32-26,54480688,0
32-27,54484594,-58
32-28,54488500,-15
32-29,54492406,87
32-30,54496312,57
32-31,54500218,-42
32-32,54504124,-19
32-1,54507975,52
32-2,54511881,32
32-3,54515787,-44
32-4,54519693,-60
32-5,54523599,17
32-6,54527505,55
32-7,54531411,-23
32-8,54535317,-79
32-9,54539223,-22
32-10,54543129,12
32-11,54547035,-60
32-12,54550941,-121
32-13,54554847,-84
32-14,54558753,-2
32-15,54562659,8
32-16,54566565,-53
32-17,54570471,-53
32-18,54574377,5
32-19,54578283,-8
32-20,54582189,-80
32-21,54586095,-94
32-22,54590001,-25
32-23,54593907,15
32-24,54597813,-62
32-25,54601719,-137
32-26,54605625,-77
32-27,54609531,-22
32-28,54613437,-63
32-29,54617343,-62
32-30,54621249,-28
32-31,54625155,-30
32-32,54629061,-48
32-1,54632973,-98
32-2,54636879,-110
32-3,54640785,-23
32-4,54644691,13
32-5,54648597,-79
32-6,54652503,-136
32-7,54656409,-75
32-8,54660315,-40
32-9,54664221,-108
32-10,54668127,-163
32-11,54672033,-108
32-12,54675939,-31
32-13,54679845,-56
32-14,54683751,-113
32-15,54687657,-94
32-16,54691563,-52
32-17,54695469,-89
32-18,54699375,-161
32-19,54703281,-149
32-20,54707187,-64
32-21,54711093,-26
32-22,54714999,-79
32-23,54718905,-118
32-24,54722811,-79
32-25,54726717,-42
32-26,54730623,-73
32-27,54734529,-128
32-28,54738435,-71
32-29,54742341,37
32-30,54746247,-20
32-31,54750153,-138
32-32,54754059,-103
32-1,54757970,-11
32-2,54761876,-8
32-3,54765782,-53
32-4,54769688,-40
32-5,54773594,26
32-6,54777500,28
32-7,54781406,-71
32-8,54785312,-126
32-9,54789218,-60
32-10,54793124,0
32-11,54797030,-53
32-12,54800936,-121
32-13,54804842,-90
32-14,54808748,-27
32-15,54812654,-62
32-16,54816560,-138
32-17,54820466,-96
32-18,54824372,15
32-19,54828278,17
32-20,54832184,-57
32-21,54836090,-59
32-22,54839996,18
32-23,54843902,59
32-24,54847808,-24
32-25,54851714,-89
32-26,54855620,3
32-27,54859526,77
32-28,54863432,15
32-29,54867338,-30
32-30,54871244,1
32-31,54875150,40
32-32,54879056,25
32-1,54883090,-49
32-2,54886996,-69
32-3,54890902,-6
32-4,54894808,-9
32-5,54898714,-90
32-6,54902620,-102
32-7,54906526,-20
32-8,54910432,29
32-9,54914338,-11
32-10,54918244,-50
32-11,54922150,-9
32-12,54926056,32
32-13,54929962,-24
32-14,54933868,-107
32-15,54937774,-85
32-16,54941680,0
32-17,54945586,-9
32-18,54949492,-81
32-19,54953398,-79
32-20,54957304,-31
32-21,54961210,-49
32-22,54965116,-113
32-23,54969022,-119
32-24,54972928,-39
32-25,54976834,31
32-26,54980740,-6
32-27,54984646,-70
32-28,54988552,-18
32-29,54992458,64
32-30,54996364,2
32-31,55000270,-100
32-32,55004176,-81
32-1,55007966,-17
32-2,55011872,-39
32-3,55015778,-119
32-4,55019684,-109
32-5,55023590,-9
32-6,55027496,8
32-7,55031402,-73
32-8,55035308,-103
32-9,55039214,-32
32-10,55043120,29
32-11,55047026,-1
32-12,55050932,-52
32-13,55054838,-23
32-14,55058744,34
32-15,55062650,-5
32-16,55066556,-90
32-17,55070462,-100
32-18,55074368,-51
32-19,55078274,-60
32-20,55082180,-145
32-21,55086086,-154
32-22,55089992,-62
32-23,55093898,-28
32-24,55097804,-96
32-25,55101710,-121
32-26,55105616,-46
32-27,55109522,-1
32-28,55113428,-40
32-29,55117334,-62
32-30,55121240,-48
32-31,55125146,-11
32-32,55129052,-5
32-1,55133055,-70
32-2,55136961,-90
32-3,55140867,-39
32-4,55144773,-47
32-5,55148679,-126
32-6,55152585,-167
32-7,55156491,-114
32-8,55160397,-60
32-9,55164303,-108
32-10,55168209,-168
32-11,55172115,-115
32-12,55176021,-35
32-13,55179927,-57
32-14,55183833,-105
32-15,55187739,-48
32-16,55191645,49
32-17,55195551,26
32-18,55199457,-61
32-19,55203363,-61
32-20,55207269,8
32-21,55211175,22
32-22,55215081,-48
32-23,55218987,-81
32-24,55222893,-36
32-25,55226799,-38
32-26,55230705,-105
32-27,55234611,-136
32-28,55238517,-55
32-29,55242423,39
32-30,55246329,-20
32-31,55250235,-132
32-32,55254141,-121
32-1,55257961,-47
32-2,55261867,-21
32-3,55265773,-63
32-4,55269679,-78
32-5,55273585,-25
32-6,55277491,-13
32-7,55281397,-74
32-8,55285303,-93
32-9,55289209,-30
32-10,55293115,5
32-11,55297021,-58
32-12,55300927,-129
32-13,55304833,-90
32-14,55308739,-4
32-15,55312645,-21
32-16,55316551,-97
32-17,55320457,-88
32-18,55324363,-19
32-19,55328269,-21
32-20,55332175,-96
32-21,55336081,-107
32-22,55339987,-26
32-23,55343893,-2
32-24,55347799,-94
32-25,55351705,-156
32-26,55355611,-102
32-27,55359517,-57
32-28,55363423,-84
32-29,55367329,-94
32-30,55371235,-85
32-31,55375141,-68
32-32,55379047,-78
32-1,55382958,-151
32-2,55386864,-148
32-3,55390770,-58
32-4,55394676,-48
32-5,55398582,-106
32-6,55402488,-101
32-7,55406394,-14
32-8,55410300,18
32-9,55414206,-54
32-10,55418112,-79
32-11,55422018,11
32-12,55425924,63
32-13,55429830,-20
32-14,55433736,-119
32-15,55437642,-111
32-16,55441548,-63
32-17,55445454,-79
32-18,55449360,-126
32-19,55453266,-110
32-20,55457172,-26
32-21,55461078,4
32-22,55464984,-74
32-23,55468890,-99
32-24,55472796,-6
32-25,55476702,48
32-26,55480608,4
32-27,55484514,-46
32-28,55488420,0
32-29,55492326,88
32-30,55496232,43
32-31,55500138,-71
32-32,55504044,-72
32-1,55508078,-18
32-2,55511984,-46
32-3,55515890,-128
32-4,55519796,-134
32-5,55523702,-47
32-6,55527608,-23
32-7,55531514,-95
32-8,55535420,-116
32-9,55539326,-39
32-10,55543232,20
32-11,55547138,-22
32-12,55551044,-78
32-13,55554950,-19
32-14,55558856,64
32-15,55562762,19
32-16,55566668,-53
32-17,55570574,-41
32-18,55574480,10
32-19,55578386,12
32-20,55582292,-73
32-21,55586198,-129
32-22,55590104,-68
32-23,55594010,-32
32-24,55597916,-101
32-25,55601822,-132
32-26,55605728,-41
32-27,55609634,13
32-28,55613540,-39
32-29,55617446,-59
32-30,55621352,-21
32-31,55625258,13
32-32,55629164,12
32-1,55632954,-36
32-2,55636860,-42
32-3,55640766,31
32-4,55644672,57
32-5,55648578,-2
32-6,55652484,-14
32-7,55656390,55
32-8,55660296,59
32-9,55664202,-30
32-10,55668108,-72
32-11,55672014,-17
32-12,55675920,27
32-13,55679826,-24
32-14,55683732,-89
32-15,55687638,-66
32-16,55691544,1
32-17,55695450,-7
32-18,55699356,-70
32-19,55703262,-67
32-20,55707168,8
32-21,55711074,11
32-22,55714980,-82
32-23,55718886,-100
32-24,55722792,-11
32-25,55726698,38
32-26,55730604,14
32-27,55734510,-18
32-28,55738416,32
32-29,55742322,118
32-30,55746228,37
32-31,55750134,-89
32-32,55754040,-38
32-1,55757951,39
32-2,55761857,-1
32-3,55765763,-67
32-4,55769669,-61
32-5,55773575,11
32-6,55777481,30
32-7,55781387,-41
32-8,55785293,-73
32-9,55789199,-8
32-10,55793105,44
32-11,55797011,19
32-12,55800917,-15
32-13,55804823,19
32-14,55808729,70
32-15,55812635,30
32-16,55816541,-45
32-17,55820447,-36
32-18,55824353,22
32-19,55828259,18
32-20,55832165,-53
32-21,55836071,-65
32-22,55839977,15
32-23,55843883,36
32-24,55847789,-53
32-25,55851695,-102
32-26,55855601,-35
32-27,55859507,13
32-28,55863413,-15
32-29,55867319,-16
32-30,55871225,-1
32-31,55875131,-9
32-32,55879037,-47
32-1,55883041,-114
32-2,55886947,-126
32-3,55890853,-75
32-4,55894759,-75
32-5,55898665,-126
32-6,55902571,-119
32-7,55906477,-46
32-8,55910383,-34
32-9,55914289,-94
32-10,55918195,-104
32-11,55922101,-48
32-12,55926007,-20
32-13,55929913,-65
32-14,55933819,-102
32-15,55937725,-74
32-16,55941631,-37
32-17,55945537,-49
32-18,55949443,-78
32-19,55953349,-54
32-20,55957255,5
32-21,55961161,-9
32-22,55965067,-90
32-23,55968973,-106
32-24,55972879,-24
32-25,55976785,35
32-26,55980691,-6
32-27,55984597,-63
32-28,55988503,8
32-29,55992409,100
32-30,55996315,33
32-31,56000221,-43
32-32,56004127,-11
32-1,56008069,11
32-2,56011975,-12
32-3,56015881,-52
32-4,56019787,-55
32-5,56023693,9
32-6,56027599,41
32-7,56031505,-20
32-8,56035411,-66
32-9,56039317,-13
32-10,56043223,39
32-11,56047129,-10
32-12,56051035,-71
32-13,56054941,-43
32-14,56058847,6
32-15,56062753,-22
32-16,56066659,-59
32-17,56070565,-24
32-18,56074471,26
32-19,56078377,18
32-20,56082283,-33
32-21,56086189,-41
32-22,56090095,26
32-23,56094001,55
32-24,56097907,-8
32-25,56101813,-38
32-26,56105719,28
32-27,56109625,49
32-28,56113531,4
32-29,56117437,22
32-30,56121343,49
32-31,56125249,33
32-32,56129155,1
32-1,56132944,-47
32-2,56136850,-36
32-3,56140756,33
32-4,56144662,26
32-5,56148568,-47
32-6,56152474,-71
32-7,56156380,-12
32-8,56160286,8
32-9,56164192,-52
32-10,56168098,-69
32-11,56172004,-4
32-12,56175910,38
32-13,56179816,3
32-14,56183722,-24
32-15,56187628,13
32-16,56191534,56
32-17,56195440,28
32-18,56199346,-49
32-19,56203252,-59
32-20,56207158,2
32-21,56211064,-3
32-22,56214970,-84
32-23,56218876,-90
32-24,56222782,-10
32-25,56226688,14
32-26,56230594,-52
32-27,56234500,-108
32-28,56238406,-47
32-29,56242312,57
32-30,56246218,8
32-31,56250124,-99
32-32,56254030,-62
32-1,56257942,30
32-2,56261848,38
32-3,56265754,-15
32-4,56269660,-9
32-5,56273566,63
32-6,56277472,57
32-7,56281378,-26
32-8,56285284,-52
32-9,56289190,10
32-10,56293096,48
32-11,56297002,-11
32-12,56300908,-65
32-13,56304814,-32
32-14,56308720,4
32-15,56312626,-36
32-16,56316532,-96
32-17,56320438,-87
32-18,56324344,-18
32-19,56328250,-14
32-20,56332156,-97
32-21,56336062,-108
32-22,56339968,-8
32-23,56343874,31
32-24,56347780,-31
32-25,56351686,-41
32-26,56355592,37
32-27,56359498,56
32-28,56363404,-4
32-29,56367310,-22
32-30,56371216,-6
32-31,56375122,-4
32-32,56379028,-42
32-1,56382940,-102
32-2,56386846,-87
32-3,56390752,-11
32-4,56394658,-4
32-5,56398564,-53
32-6,56402470,-45
32-7,56406376,28
32-8,56410282,37
32-9,56414188,-53
32-10,56418094,-86
32-11,56422000,-18
32-12,56425906,11
32-13,56429812,-52
32-14,56433718,-103
32-15,56437624,-62
32-16,56441530,11
32-17,56445436,-19
32-18,56449342,-108
32-19,56453248,-87
32-20,56457154,-1
32-21,56461060,-2
32-22,56464966,-63
32-23,56468872,-59
32-24,56472778,10
32-25,56476684,35
32-26,56480590,-23
32-27,56484496,-82
32-28,56488402,-28
32-29,56492308,65
32-30,56496214,0
32-31,56500120,-97
32-32,56504026,-42
32-1,56507937,34
32-2,56511843,-2
32-3,56515749,-64
32-4,56519655,-18
32-5,56523561,70
32-6,56527467,32
32-7,56531373,-71
32-8,56535279,-73
32-9,56539185,3
32-10,56543091,15
32-11,56546997,-55
32-12,56550903,-97
32-13,56554809,-48
32-14,56558715,12
32-15,56562621,-31
32-16,56566527,-96
32-17,56570433,-60
32-18,56574339,6
32-19,56578245,-6
32-20,56582151,-69
32-21,56586057,-53
32-22,56589963,47
32-23,56593869,57
32-24,56597775,-52
32-25,56601681,-95
32-26,56605587,-21
32-27,56609493,9
32-28,56613399,-43
32-29,56617305,-50
32-30,56621211,-20
32-31,56625117,3
32-32,56629023,-7
32-1,56633057,-60
32-2,56636963,-57
32-3,56640869,13
32-4,56644775,23
32-5,56648681,-44
32-6,56652587,-65
32-7,56656493,5
32-8,56660399,36
32-9,56664305,-28
32-10,56668211,-70
32-11,56672117,-25
32-12,56676023,6
32-13,56679929,-52
32-14,56683835,-104
32-15,56687741,-41
32-16,56691647,59
32-17,56695553,41
32-18,56699459,-44
32-19,56703365,-51
32-20,56707271,9
32-21,56711177,0
32-22,56715083,-90
32-23,56718989,-105
32-24,56722895,-20
32-25,56726801,6
32-26,56730707,-55
32-27,56734613,-89
32-28,56738519,-16
32-29,56742425,61
32-30,56746331,-1
32-31,56750237,-110
32-32,56754143,-97
32-1,56757932,-36
32-2,56761838,-74
32-3,56765744,-142
32-4,56769650,-115
32-5,56773556,-49
32-6,56777462,-50
32-7,56781368,-98
32-8,56785274,-102
32-9,56789180,-51
32-10,56793086,-31
32-11,56796992,-83
32-12,56800898,-126
32-13,56804804,-85
32-14,56808710,-35
32-15,56812616,-76
32-16,56816522,-114
32-17,56820428,-51
32-18,56824334,30
32-19,56828240,22
32-20,56832146,-58
32-21,56836052,-70
32-22,56839958,11
32-23,56843864,12
32-24,56847770,-60
32-25,56851676,-62
32-26,56855582,3
32-27,56859488,18
32-28,56863394,-17
32-29,56867300,-14
32-30,56871206,-9
32-31,56875112,-27
32-32,56879018,-65
32-1,56882930,-126
32-2,56886836,-108
32-3,56890742,-31
32-4,56894648,-36
32-5,56898554,-83
32-6,56902460,-62
32-7,56906366,2
32-8,56910272,5
32-9,56914178,-62
32-10,56918084,-95
32-11,56921990,-44
32-12,56925896,-2
32-13,56929802,-41
32-14,56933708,-87
32-15,56937614,-50
32-16,56941520,24
32-17,56945426,20
32-18,56949332,-58
32-19,56953238,-68
32-20,56957144,17
32-21,56961050,37
32-22,56964956,-46
32-23,56968862,-65
32-24,56972768,3
32-25,56976674,15
32-26,56980580,-47
32-27,56984486,-86
32-28,56988392,-6
32-29,56992298,100
32-30,56996204,35
32-31,57000110,-86
32-32,57004016,-56
32-1,57007928,22
32-2,57011834,-2
32-3,57015740,-76
32-4,57019646,-61
32-5,57023552,21
32-6,57027458,16
32-7,57031364,-55
32-8,57035270,-56
32-9,57039176,7
32-10,57043082,22
32-11,57046988,-40
32-12,57050894,-72
32-13,57054800,-14
32-14,57058706,45
32-15,57062612,5
32-16,57066518,-58
32-17,57070424,-16
32-18,57074330,53
32-19,57078236,28
32-20,57082142,-17
32-21,57086048,14
32-22,57089954,70
32-23,57093860,60
32-24,57097766,-5
32-25,57101672,-41
32-26,57105578,-14
32-27,57109484,-18
32-28,57113390,-76
32-29,57117296,-74
32-30,57121202,-21
32-31,57125108,6
32-32,57129014,-23
32-1,57132925,-89
32-2,57136831,-75
32-3,57140737,5
32-4,57144643,4
32-5,57148549,-48
32-6,57152455,-36
32-7,57156361,25
32-8,57160267,36
32-9,57164173,-23
32-10,57168079,-39
32-11,57171985,45
32-12,57175891,105
32-13,57179797,57
32-14,57183703,-18
32-15,57187609,-8
32-16,57191515,46
32-17,57195421,20
32-18,57199327,-48
32-19,57203233,-20
32-20,57207139,50
32-21,57211045,27
32-22,57214951,-61
32-23,57218857,-76
32-24,57222763,-8
32-25,57226669,12
32-26,57230575,-44
32-27,57234481,-81
32-28,57238387,-25
32-29,57242293,35
32-30,57246199,-47
32-31,57250105,-135
32-32,57254011,-64
32-1,57257923,19
32-2,57261829,-10
32-3,57265735,-71
32-4,57269641,-51
32-5,57273547,25
32-6,57277453,6
32-7,57281359,-78
32-8,57285265,-71
32-9,57289171,7
32-10,57293077,36
32-11,57296983,-25
32-12,57300889,-82
32-13,57304795,-44
32-14,57308701,0
32-15,57312607,-61
32-16,57316513,-120
32-17,57320419,-68
32-18,57324325,-2
32-19,57328231,-29
32-20,57332137,-97
32-21,57336043,-99
32-22,57339949,-24
32-23,57343855,19
32-24,57347761,-30
32-25,57351667,-54
32-26,57355573,5
32-27,57359479,19
32-28,57363385,-42
32-29,57367291,-58
32-30,57371197,-14
32-31,57375103,19
32-32,57379009,-15
32-1,57383073,-94
32-2,57386979,-102
32-3,57390885,-60
32-4,57394791,-93
32-5,57398697,-173
32-6,57402603,-173
32-7,57406509,-100
32-8,57410415,-94
32-9,57414321,-151
32-10,57418227,-145
32-11,57422133,-73
32-12,57426039,-21
32-13,57429945,-48
32-14,57433851,-103
32-15,57437757,-61
32-16,57441663,34
32-17,57445569,8
32-18,57449475,-80
32-19,57453381,-70
32-20,57457287,-23
32-21,57461193,-47
32-22,57465099,-103
32-23,57469005,-74
32-24,57472911,17
32-25,57476817,22
32-26,57480723,-62
32-27,57484629,-103
32-28,57488535,-44
32-29,57492441,10
32-30,57496347,-54
32-31,57500253,-117
32-32,57504159,-65
32-1,57507918,-4
32-2,57511824,-34
32-3,57515730,-94
32-4,57519636,-71
32-5,57523542,-7
32-6,57527448,-24
32-7,57531354,-79
32-8,57535260,-76
32-9,57539166,-3
32-10,57543072,40
32-11,57546978,-31
32-12,57550884,-85
32-13,57554790,-8
32-14,57558696,48
32-15,57562602,-15
32-16,57566508,-64
32-17,57570414,-6
32-18,57574320,70
32-19,57578226,54
32-20,57582132,-12
32-21,57586038,-6
32-22,57589944,56
32-23,57593850,49
32-24,57597756,-40
32-25,57601662,-86
32-26,57605568,-5
32-27,57609474,58
32-28,57613380,13
32-29,57617286,10
32-30,57621192,38
32-31,57625098,11
32-32,57629004,-23
32-1,57632916,-51
32-2,57636822,-28
32-3,57640728,60
32-4,57644634,69
32-5,57648540,-8
32-6,57652446,-14
32-7,57656352,49
32-8,57660258,43
32-9,57664164,-34
32-10,57668070,-56
32-11,57671976,10
32-12,57675882,36
32-13,57679788,-58
32-14,57683694,-123
32-15,57687600,-62
32-16,57691506,7
32-17,57695412,-20
32-18,57699318,-83
32-19,57703224,-84
32-20,57707130,-24
32-21,57711036,-11
32-22,57714942,-82
32-23,57718848,-102
32-24,57722754,-30
32-25,57726660,-10
32-26,57730566,-60
32-27,57734472,-80
32-28,57738378,-8
32-29,57742284,54
32-30,57746190,-20
32-31,57750096,-84
32-32,57754002,-12
32-1,57757913,55
32-2,57761819,24
32-3,57765725,-43
32-4,57769631,-28
32-5,57773537,45
32-6,57777443,19
32-7,57781349,-74
32-8,57785255,-75
32-9,57789161,2
32-10,57793067,11
32-11,57796973,-61
32-12,57800879,-86
32-13,57804785,-25
32-14,57808691,13
32-15,57812597,-39
32-16,57816503,-93
32-17,57820409,-55
32-18,57824315,6
32-19,57828221,-30
32-20,57832127,-119
32-21,57836033,-109
32-22,57839939,-12
32-23,57843845,3
32-24,57847751,-92
32-25,57851657,-115
32-26,57855563,-18
32-27,57859469,1
32-28,57863375,-48
32-29,57867281,-18
32-30,57871187,20
32-31,57875093,21
32-32,57878999,7
32-1,57882911,-18
32-2,57886817,14
32-3,57890723,63
32-4,57894629,23
32-5,57898535,-46
32-6,57902441,-42
32-7,57906347,13
32-8,57910253,7
32-9,57914159,-72
32-10,57918065,-89
32-11,57921971,-15
32-12,57925877,25
32-13,57929783,-21
32-14,57933689,-65
32-15,57937595,-39
32-16,57941501,2
32-17,57945407,-21
32-18,57949313,-81
32-19,57953219,-75
32-20,57957125,-3
32-21,57961031,-12
32-22,57964937,-86
32-23,57968843,-49
32-24,57972749,57
32-25,57976655,58
32-26,57980561,-32
32-27,57984467,-74
32-28,57988373,8
32-29,57992279,99
32-30,57996185,51
32-31,58000091,-14
32-32,58003997,44
32-1,58007909,116
32-2,58011815,70
32-3,58015721,-39
32-4,58019627,-56
32-5,58023533,12
32-6,58027439,18
32-7,58031345,-51
32-8,58035251,-69
32-9,58039157,22
32-10,58043063,79
32-11,58046969,12
32-12,58050875,-21
32-13,58054781,48
32-14,58058687,75
32-15,58062593,14
32-16,58066499,-30
32-17,58070405,11
32-18,58074311,65
32-19,58078217,14
32-20,58082123,-87
32-21,58086029,-93
32-22,58089935,-30
32-23,58093841,-44
32-24,58097747,-135
32-25,58101653,-170
32-26,58105559,-122
32-27,58109465,-108
32-28,58113371,-123
32-29,58117277,-89
32-30,58121183,-42
32-31,58125089,-27
32-32,58128995,-63
32-1,58133089,-106
32-2,58136995,-66
32-3,58140901,-2
32-4,58144807,-34
32-5,58148713,-121
32-6,58152619,-126
32-7,58156525,-54
32-8,58160431,-40
32-9,58164337,-100
32-10,58168243,-118
32-11,58172149,-55
32-12,58176055,-16
32-13,58179961,-74
32-14,58183867,-124
32-15,58187773,-75
32-16,58191679,-19
32-17,58195585,-57
32-18,58199491,-108
32-19,58203397,-57
32-20,58207303,32
32-21,58211209,17
32-22,58215115,-58
32-23,58219021,-58
32-24,58222927,-5
32-25,58226833,-8
32-26,58230739,-77
32-27,58234645,-114
32-28,58238551,-28
32-29,58242457,57
32-30,58246363,-16
32-31,58250269,-93
32-32,58254175,-50
32-1,58257904,-14
32-2,58261810,-61
32-3,58265716,-122
32-4,58269622,-91
32-5,58273528,7
32-6,58277434,21
32-7,58281340,-41
32-8,58285246,-47
32-9,58289152,1
32-10,58293058,-13
32-11,58296964,-93
32-12,58300870,-124
32-13,58304776,-62
32-14,58308682,-10
32-15,58312588,-47
32-16,58316494,-91
32-17,58320400,-43
32-18,58324306,34
32-19,58328212,-2
32-20,58332118,-85
32-21,58336024,-45
32-22,58339930,44
32-23,58343836,41
32-24,58347742,-29
32-25,58351648,-58
32-26,58355554,10
32-27,58359460,19
32-28,58363366,-66
32-29,58367272,-63
32-30,58371178,-17
32-31,58375084,-26
32-32,58378990,-56
32-1,58382902,-95
32-2,58386808,-67
32-3,58390714,15
32-4,58394620,24
32-5,58398526,-11
32-6,58402432,2
32-7,58406338,40
32-8,58410244,26
32-9,58414150,-45
32-10,58418056,-86
32-11,58421962,-32
32-12,58425868,12
32-13,58429774,-49
32-14,58433680,-79
32-15,58437586,-4
32-16,58441492,55
32-17,58445398,23
32-18,58449304,-37
32-19,58453210,-21
32-20,58457116,55
32-21,58461022,45
32-22,58464928,-41
32-23,58468834,-43
32-24,58472740,39
32-25,58476646,59
32-26,58480552,-7
32-27,58484458,-42
32-28,58488364,39
32-29,58492270,115
32-30,58496176,35
32-31,58500082,-71
32-32,58503988,-48
32-1,58507899,-16
32-2,58511805,-75
32-3,58515711,-139
32-4,58519617,-105
32-5,58523523,-30
32-6,58527429,-31
32-7,58531335,-79
32-8,58535241,-66
32-9,58539147,-1
32-10,58543053,8
32-11,58546959,-65
32-12,58550865,-80
32-13,58554771,23
32-14,58558677,69
32-15,58562583,-28
32-16,58566489,-97
32-17,58570395,-47
32-18,58574301,17
32-19,58578207,-6
32-20,58582113,-66
32-21,58586019,-33
32-22,58589925,40
32-23,58593831,11
32-24,58597737,-67
32-25,58601643,-72
32-26,58605549,-10
32-27,58609455,3
32-28,58613361,-53
32-29,58617267,-70
32-30,58621173,-30
32-31,58625079,-3
32-32,58628985,-47
32-1,58632897,-107
32-2,58636803,-71
32-3,58640709,-5
32-4,58644615,-31
32-5,58648521,-90
32-6,58652427,-78
32-7,58656333,-24
32-8,58660239,-32
32-9,58664145,-101
32-10,58668051,-111
32-11,58671957,-31
32-12,58675863,-2
32-13,58679769,-75
32-14,58683675,-119
32-15,58687581,-88
32-16,58691487,-64
32-17,58695393,-103
32-18,58699299,-151
32-19,58703205,-120
32-20,58707111,-47
32-21,58711017,-55
32-22,58714923,-113
32-23,58718829,-91
32-24,58722735,-7
32-25,58726641,1
32-26,58730547,-62
32-27,58734453,-74
32-28,58738359,3
32-29,58742265,51
32-30,58746171,-25
32-31,58750077,-95
32-32,58753983,-50
32-1,58757895,2
32-2,58761801,-38
32-3,58765707,-86
32-4,58769613,-49
32-5,58773519,11
32-6,58777425,-7
32-7,58781331,-72
32-8,58785237,-86
32-9,58789143,-33
32-10,58793049,-17
32-11,58796955,-69
32-12,58800861,-78
32-13,58804767,2
32-14,58808673,40
32-15,58812579,-33
32-16,58816485,-68
32-17,58820391,12
32-18,58824297,52
32-19,58828203,-10
32-20,58832109,-61
32-21,58836015,-32
32-22,58839921,33
32-23,58843827,9
32-24,58847733,-93
32-25,58851639,-96
32-26,58855545,-9
32-27,58859451,-5
32-28,58863357,-64
32-29,58867263,-74
32-30,58871169,-45
32-31,58875075,-51
32-32,58878981,-119
32-1,58883075,-168
32-2,58886981,-108
32-3,58890887,-48
32-4,58894793,-102
32-5,58898699,-174
32-6,58902605,-156
32-7,58906511,-79
32-8,58910417,-59
32-9,58914323,-126
32-10,58918229,-135
32-11,58922135,-26
32-12,58926041,62
32-13,58929947,46
32-14,58933853,19
32-15,58937759,50
32-16,58941665,77
32-17,58945571,31
32-18,58949477,-18
32-19,58953383,24
32-20,58957289,79
32-21,58961195,18
32-22,58965101,-65
32-23,58969007,-43
32-24,58972913,5
32-25,58976819,-2
32-26,58980725,-49
32-27,58984631,-72
32-28,58988537,17
32-29,58992443,94
32-30,58996349,-5
32-31,59000255,-75
32-32,59004161,33
32-1,59007890,105
32-2,59011796,55
32-3,59015702,-6
32-4,59019608,-14
32-5,59023514,16
32-6,59027420,-15
32-7,59031326,-95
32-8,59035232,-94
32-9,59039138,-35
32-10,59043044,-18
32-11,59046950,-57
32-12,59050856,-68
32-13,59054762,10
32-14,59058668,58
32-15,59062574,-3
32-16,59066480,-54
32-17,59070386,-26
32-18,59074292,3
32-19,59078198,-37
32-20,59082104,-73
32-21,59086010,-26
32-22,59089916,42
32-23,59093822,47
32-24,59097728,3
32-25,59101634,13
32-26,59105540,88
32-27,59109446,76
32-28,59113352,-2
32-29,59117258,18
32-30,59121164,61
32-31,59125070,33
32-32,59128976,-23
32-1,59132857,-66
32-2,59136763,-34
32-3,59140669,27
32-4,59144575,-10
32-5,59148481,-80
32-6,59152387,-57
32-7,59156293,5
32-8,59160199,-7
32-9,59164105,-62
32-10,59168011,-71
32-11,59171917,-16
32-12,59175823,9
32-13,59179729,-46
32-14,59183635,-78
32-15,59187541,-18
32-16,59191447,38
32-17,59195353,-7
32-18,59199259,-65
32-19,59203165,-33
32-20,59207071,6
32-21,59210977,-34
32-22,59214883,-90
32-23,59218789,-81
32-24,59222695,-29
32-25,59226601,-22
32-26,59230507,-73
32-27,59234413,-87
32-28,59238319,4
32-29,59242225,61
32-30,59246131,-48
32-31,59250037,-144
32-32,59253943,-89
32-1,59257885,-36
32-2,59261791,-86
32-3,59265697,-127
32-4,59269603,-83
32-5,59273509,-30
32-6,59277415,-65
32-7,59281321,-143
32-8,59285227,-143
32-9,59289133,-86
32-10,59293039,-93
32-11,59296945,-163
32-12,59300851,-178
32-13,59304757,-108
32-14,59308663,-55
32-15,59312569,-92
32-16,59316475,-113
32-17,59320381,-40
32-18,59324287,28
32-19,59328193,-9
32-20,59332099,-80
32-21,59336005,-64
32-22,59339911,2
32-23,59343817,-7
32-24,59347723,-91
32-25,59351629,-106
32-26,59355535,-10
32-27,59359441,22
32-28,59363347,-28
32-29,59367253,-15
32-30,59371159,27
32-31,59375065,8
32-32,59378971,-60
32-1,59382883,-93
32-2,59386789,-38
32-3,59390695,23
32-4,59394601,-1
32-5,59398507,-41
32-6,59402413,-7
32-7,59406319,51
32-8,59410225,38
32-9,59414131,-31
32-10,59418037,-52
32-11,59421943,12
32-12,59425849,43
32-13,59429755,-10
32-14,59433661,-44
32-15,59437567,-3
32-16,59441473,18
32-17,59445379,-58
32-18,59449285,-137
32-19,59453191,-92
32-20,59457097,-4
32-21,59461003,-14
32-22,59464909,-69
32-23,59468815,-34
32-24,59472721,36
32-25,59476627,23
32-26,59480533,-37
32-27,59484439,-56
32-28,59488345,16
32-29,59492251,74
32-30,59496157,-3
32-31,59500063,-73
32-32,59503969,-19
32-1,59507880,34
32-2,59511786,-2
32-3,59515692,-52
32-4,59519598,-14
32-5,59523504,36
32-6,59527410,-14
32-7,59531316,-82
32-8,59535222,-61
32-9,59539128,-2
32-10,59543034,-15
32-11,59546940,-102
32-12,59550846,-116
32-13,59554752,-23
32-14,59558658,10
32-15,59562564,-77
32-16,59566470,-119
32-17,59570376,-31
32-18,59574282,44
32-19,59578188,-4
32-20,59582094,-68
32-21,59586000,-25
32-22,59589906,32
32-23,59593812,-17
32-24,59597718,-88
32-25,59601624,-47
32-26,59605530,47
32-27,59609436,46
32-28,59613342,-8
32-29,59617248,-11
32-30,59621154,-4
32-31,59625060,-4
32-32,59628966,-28
32-1,59633061,-56
32-2,59636967,2
32-3,59640873,45
32-4,59644779,-41
32-5,59648685,-126
32-6,59652591,-84
32-7,59656497,12
32-8,59660403,15
32-9,59664309,-50
32-10,59668215,-45
32-11,59672121,27
32-12,59676027,21
32-13,59679933,-66
32-14,59683839,-82
32-15,59687745,-7
32-16,59691651,36
32-17,59695557,-14
32-18,59699463,-73
32-19,59703369,-44
32-20,59707275,6
32-21,59711181,-29
32-22,59715087,-84
32-23,59718993,-53
32-24,59722899,20
32-25,59726805,20
32-26,59730711,-31
32-27,59734617,-42
32-28,59738523,28
32-29,59742429,81
32-30,59746335,-5
32-31,59750241,-82
32-32,59754147,-14
32-1,59757906,43
32-2,59761812,-4
32-3,59765718,-46
32-4,59769624,-15
32-5,59773530,35
32-6,59777436,21
32-7,59781342,-38
32-8,59785248,-31
32-9,59789154,46
32-10,59793060,29
32-11,59796966,-70
32-12,59800872,-54
32-13,59804778,46
32-14,59808684,43
32-15,59812590,-56
32-16,59816496,-94
32-17,59820402,-39
32-18,59824308,8
32-19,59828214,-26
32-20,59832120,-77
32-21,59836026,-39
32-22,59839932,28
32-23,59843838,12
32-24,59847744,-43
32-25,59851650,-39
32-26,59855556,22
32-27,59859462,7
32-28,59863368,-72
32-29,59867274,-36
32-30,59871180,40
32-31,59875086,12
32-32,59878992,-49
32-1,59882873,-67
32-2,59886779,-14
32-3,59890685,40
32-4,59894591,2
32-5,59898497,-46
32-6,59902403,-4
32-7,59906309,63
32-8,59910215,33
32-9,59914121,-51
32-10,59918027,-52
32-11,59921933,16
32-12,59925839,20
32-13,59929745,-51
32-14,59933651,-78
32-15,59937557,-22
32-16,59941463,14
32-17,59945369,-29
32-18,59949275,-75
32-19,59953181,-44
32-20,59957087,14
32-21,59960993,-16
32-22,59964899,-98
32-23,59968805,-72
32-24,59972711,29
32-25,59976617,36
32-26,59980523,-32
32-27,59984429,-39
32-28,59988335,56
32-29,59992241,120
32-30,59996147,24
32-31,60000053,-54
32-32,60003959,22
32-1,60007871,75
32-2,60011777,15
32-3,60015683,-41
32-4,60019589,-5
32-5,60023495,52
32-6,60027401,10
32-7,60031307,-66
32-8,60035213,-25
32-9,60039119,77
32-10,60043025,75
32-11,60046931,-7
32-12,60050837,-31
32-13,60054743,15
32-14,60058649,39
32-15,60062555,-14
32-16,60066461,-53
32-17,60070367,5
32-18,60074273,46
32-19,60078179,-21
32-20,60082085,-87
32-21,60085991,-53
32-22,60089897,17
32-23,60093803,5
32-24,60097709,-87
32-25,60101615,-99
32-26,60105521,-25
32-27,60109427,-37
32-28,60113333,-89
32-29,60117239,-68
32-30,60121145,-26
32-31,60125051,1
32-32,60128957,-38
32-1,60132868,-64
32-2,60136774,21
32-3,60140680,59
32-4,60144586,-10
32-5,60148492,-55
32-6,60152398,-18
32-7,60156304,39
32-8,60160210,-5
32-9,60164116,-84
32-10,60168022,-52
32-11,60171928,35
32-12,60175834,46
32-13,60179740,-21
32-14,60183646,-56
32-15,60187552,-14
32-16,60191458,0
32-17,60195364,-69
32-18,60199270,-112
32-19,60203176,-46
32-20,60207082,15
32-21,60210988,-30
32-22,60214894,-91
32-23,60218800,-67
32-24,60222706,0
32-25,60226612,15
32-26,60230518,-39
32-27,60234424,-64
32-28,60238330,34
32-29,60242236,102
32-30,60246142,0
32-31,60250048,-100
32-32,60253954,-67
32-1,60257866,-26
32-2,60261772,-69
32-3,60265678,-122
32-4,60269584,-83
32-5,60273490,-5
32-6,60277396,-23
32-7,60281302,-85
32-8,60285208,-51
32-9,60289114,30
32-10,60293020,11
32-11,60296926,-77
32-12,60300832,-107
32-13,60304738,-59
32-14,60308644,-25
32-15,60312550,-64
32-16,60316456,-90
32-17,60320362,-25
32-18,60324268,28
32-19,60328174,-26
32-20,60332080,-97
32-21,60335986,-62
32-22,60339892,16
32-23,60343798,-10
32-24,60347704,-84
32-25,60351610,-50
32-26,60355516,62
32-27,60359422,72
32-28,60363328,-1
32-29,60367234,30
32-30,60371140,124
32-31,60375046,116
32-32,60378952,33
32-1,60383169,-1
32-2,60387075,38
32-3,60390981,67
32-4,60394887,14
32-5,60398793,-46
32-6,60402699,-24
32-7,60406605,26
32-8,60410511,4
32-9,60414417,-56
32-10,60418323,-63
32-11,60422229,-19
32-12,60426135,-22
32-13,60430041,-79
32-14,60433947,-83
32-15,60437853,-11
32-16,60441759,22
32-17,60445665,-43
32-18,60449571,-80
32-19,60453477,1
32-20,60457383,59
32-21,60461289,-4
32-22,60465195,-69
32-23,60469101,-40
32-24,60473007,11
32-25,60476913,-14
32-26,60480819,-75
32-27,60484725,-88
32-28,60488631,-14
32-29,60492537,50
32-30,60496443,-37
32-31,60500349,-105
32-32,60504255,-12
32-1,60507861,36
32-2,60511767,-39
32-3,60515673,-89
32-4,60519579,-31
32-5,60523485,44
32-6,60527391,-3
32-7,60531297,-71
32-8,60535203,2
32-9,60539109,112
32-10,60543015,84
32-11,60546921,-17
32-12,60550827,-25
32-13,60554733,46
32-14,60558639,45
32-15,60562545,-48
32-16,60566451,-91
32-17,60570357,-31
32-18,60574263,13
32-19,60578169,-20
32-20,60582075,-50
32-21,60585981,-7
32-22,60589887,59
32-23,60593793,25
32-24,60597699,-66
32-25,60601605,-57
32-26,60605511,30
32-27,60609417,13
32-28,60613323,-71
32-29,60617229,-24
32-30,60621135,70
32-31,60625041,41
32-32,60628947,-40
32-1,60632859,-60
32-2,60636765,7
32-3,60640671,58
32-4,60644577,-11
32-5,60648483,-86
32-6,60652389,-50
32-7,60656295,3
32-8,60660201,-46
32-9,60664107,-118
32-10,60668013,-88
32-11,60671919,-16
32-12,60675825,-30
32-13,60679731,-99
32-14,60683637,-94
32-15,60687543,-9
32-16,60691449,26
32-17,60695355,-41
32-18,60699261,-98
32-19,60703167,-72
32-20,60707073,-37
32-21,60710979,-80
32-22,60714885,-135
32-23,60718791,-83
32-24,60722697,-1
32-25,60726603,-11
32-26,60730509,-68
32-27,60734415,-83
32-28,60738321,-3
32-29,60742227,66
32-30,60746133,-25
32-31,60750039,-111
32-32,60753945,-32
32-1,60757857,48
32-2,60761763,-8
32-3,60765669,-80
32-4,60769575,-34
32-5,60773481,23
32-6,60777387,-36
32-7,60781293,-92
32-8,60785199,-44
32-9,60789105,13
32-10,60793011,-5
32-11,60796917,-61
32-12,60800823,-85
32-13,60804729,-44
32-14,60808635,-22
32-15,60812541,-100
32-16,60816447,-148
32-17,60820353,-73
32-18,60824259,-27
32-19,60828165,-82
32-20,60832071,-127
32-21,60835977,-84
32-22,60839883,-15
32-23,60843789,-41
32-24,60847695,-113
32-25,60851601,-96
32-26,60855507,-31
32-27,60859413,-42
32-28,60863319,-90
32-29,60867225,-63
32-30,60871131,-11
32-31,60875037,-30
32-32,60878943,-106
32-1,60882854,-161
32-2,60886760,-135
32-3,60890666,-99
32-4,60894572,-131
32-5,60898478,-169
32-6,60902384,-135
32-7,60906290,-62
32-8,60910196,-66
32-9,60914102,-125
32-10,60918008,-94
32-11,60921914,-17
32-12,60925820,-26
32-13,60929726,-91
32-14,60933632,-97
32-15,60937538,-25
32-16,60941444,8
32-17,60945350,-50
32-18,60949256,-80
32-19,60953162,-18
32-20,60957068,34
32-21,60960974,-8
32-22,60964880,-74
32-23,60968786,-44
32-24,60972692,22
32-25,60976598,-6
32-26,60980504,-82
32-27,60984410,-86
32-28,60988316,1
32-29,60992222,47
32-30,60996128,-39
32-31,61000034,-88
32-32,61003940,-16
32-1,61007974,-3
32-2,61011880,-97
32-3,61015786,-162
32-4,61019692,-121
32-5,61023598,-71
32-6,61027504,-120
32-7,61031410,-191
32-8,61035316,-186
32-9,61039222,-136
32-10,61043128,-137
32-11,61047034,-185
32-12,61050940,-158
32-13,61054846,-68
32-14,61058752,-56
32-15,61062658,-119
32-16,61066564,-118
32-17,61070470,-36
32-18,61074376,-5
32-19,61078282,-56
32-20,61082188,-91
32-21,61086094,-53
32-22,61090000,1
32-23,61093906,-24
32-24,61097812,-74
32-25,61101718,-53
32-26,61105624,-4
32-27,61109530,-31
32-28,61113436,-94
32-29,61117342,-65
32-30,61121248,0
32-31,61125154,-16
32-32,61129060,-70
32-1,61133033,-97
32-2,61136939,-52
32-3,61140845,18
32-4,61144751,-21
32-5,61148657,-100
32-6,61152563,-76
32-7,61156469,-8
32-8,61160375,-36
32-9,61164281,-113
32-10,61168187,-90
32-11,61172093,9
32-12,61175999,5
32-13,61179905,-89
32-14,61183811,-120
32-15,61187717,-56
32-16,61191623,-26
32-17,61195529,-88
32-18,61199435,-123
32-19,61203341,-58
32-20,61207247,-6
32-21,61211153,-48
32-22,61215059,-93
32-23,61218965,-32
32-24,61222871,64
32-25,61226777,51
32-26,61230683,-38
32-27,61234589,-68
32-28,61238495,-11
32-29,61242401,3
32-30,61246307,-92
32-31,61250213,-131
32-32,61254119,-43
32-1,61257847,23
32-2,61261753,-12
32-3,61265659,-59
32-4,61269565,-17
32-5,61273471,38
32-6,61277377,-5
32-7,61281283,-71
32-8,61285189,-71
32-9,61289095,-35
32-10,61293001,-40
32-11,61296907,-90
32-12,61300813,-80
32-13,61304719,6
32-14,61308625,26
32-15,61312531,-53
32-16,61316437,-93
32-17,61320343,-60
32-18,61324249,-45
32-19,61328155,-78
32-20,61332061,-92
32-21,61335967,-48
32-22,61339873,-16
32-23,61343779,-58
32-24,61347685,-102
32-25,61351591,-66
32-26,61355497,22
32-27,61359403,11
32-28,61363309,-38
32-29,61367215,52
32-30,61371121,135
32-31,61375027,79
32-32,61378933,-8
32-1,61382845,-55
32-2,61386751,-23
32-3,61390657,32
32-4,61394563,-7
32-5,61398469,-63
32-6,61402375,-38
32-7,61406281,8
32-8,61410187,-19
32-9,61414093,-83
32-10,61417999,-80
32-11,61421905,-38
32-12,61425811,-55
32-13,61429717,-121
32-14,61433623,-140
32-15,61437529,-74
32-16,61441435,-30
32-17,61445341,-90
32-18,61449247,-118
32-19,61453153,-55
32-20,61457059,-31
32-21,61460965,-73
32-22,61464871,-85
32-23,61468777,-23
32-24,61472683,43
32-25,61476589,25
32-26,61480495,-31
32-27,61484401,-40
32-28,61488307,23
32-29,61492213,63
32-30,61496119,-17
32-31,61500025,-56
32-32,61503931,44
32-1,61507842,88
32-2,61511748,1
32-3,61515654,-48
32-4,61519560,20
32-5,61523466,66
32-6,61527372,6
32-7,61531278,-54
32-8,61535184,-28
32-9,61539090,32
32-10,61542996,15
32-11,61546902,-79
32-12,61550808,-102
32-13,61554714,-20
32-14,61558620,4
32-15,61562526,-62
32-16,61566432,-79
32-17,61570338,-15
32-18,61574244,27
32-19,61578150,-23
32-20,61582056,-84
32-21,61585962,-50
32-22,61589868,17
32-23,61593774,-9
32-24,61597680,-84
32-25,61601586,-58
32-26,61605492,36
32-27,61609398,12
32-28,61613304,-55
32-29,61617210,-18
32-30,61621116,22
32-31,61625022,-9
32-32,61628928,-62
32-1,61632962,-70
32-2,61636868,13
32-3,61640774,50
32-4,61644680,-26
32-5,61648586,-72
32-6,61652492,-18
32-7,61656398,32
32-8,61660304,-27
32-9,61664210,-102
32-10,61668116,-63
32-11,61672022,21
32-12,61675928,21
32-13,61679834,-42
32-14,61683740,-44
32-15,61687646,32
32-16,61691552,60
32-17,61695458,3
32-18,61699364,-24
32-19,61703270,46
32-20,61707176,83
32-21,61711082,-4
32-22,61714988,-74
32-23,61718894,-17
32-24,61722800,30
32-25,61726706,-22
32-26,61730612,-72
32-27,61734518,-55
32-28,61738424,28
32-29,61742330,78
32-30,61746236,10
32-31,61750142,-18
32-32,61754048,77
32-1,61757838,120
32-2,61761744,46
32-3,61765650,3
32-4,61769556,66
32-5,61773462,102
32-6,61777368,22
32-7,61781274,-51
32-8,61785180,-22
32-9,61789086,31
32-10,61792992,-2
32-11,61796898,-72
32-12,61800804,-62
32-13,61804710,6
32-14,61808616,22
32-15,61812522,-28
32-16,61816428,-45
32-17,61820334,9
32-18,61824240,25
32-19,61828146,-36
32-20,61832052,-66
32-21,61835958,-19
32-22,61839864,24
32-23,61843770,-2
32-24,61847676,-46
32-25,61851582,-13
32-26,61855488,45
32-27,61859394,-16
32-28,61863300,-86
32-29,61867206,-29
32-30,61871112,28
32-31,61875018,10
32-32,61878924,-32
32-1,61882835,-56
32-2,61886741,-27
32-3,61890647,-2
32-4,61894553,-23
32-5,61898459,-25
32-6,61902365,23
32-7,61906271,60
32-8,61910177,8
32-9,61914083,-56
32-10,61917989,-19
32-11,61921895,55
32-12,61925801,42
32-13,61929707,-32
32-14,61933613,-24
32-15,61937519,69
32-16,61941425,76
32-17,61945331,-24
32-18,61949237,-53
32-19,61953143,8
32-20,61957049,19
32-21,61960955,-50
32-22,61964861,-90
32-23,61968767,-28
32-24,61972673,35
32-25,61976579,-10
32-26,61980485,-74
32-27,61984391,-59
32-28,61988297,32
32-29,61992203,83
32-30,61996109,14
32-31,62000015,-29
32-32,62003921,38
32-1,62007833,66
32-2,62011739,-7
32-3,62015645,-46
32-4,62019551,1
32-5,62023457,18
32-6,62027363,-44
32-7,62031269,-79
32-8,62035175,-20
32-9,62039081,61
32-10,62042987,49
32-11,62046893,-22
32-12,62050799,-4
32-13,62054705,80
32-14,62058611,71
32-15,62062517,-17
32-16,62066423,-38
32-17,62070329,28
32-18,62074235,47
32-19,62078141,-23
32-20,62082047,-45
32-21,62085953,38
32-22,62089859,90
32-23,62093765,35
32-24,62097671,-23
32-25,62101577,17
32-26,62105483,78
32-27,62109389,14
32-28,62113295,-59
32-29,62117201,7
32-30,62121107,60
32-31,62125013,6
32-32,62128919,-65
32-1,62132831,-92
32-2,62136737,-32
32-3,62140643,12
32-4,62144549,-50
32-5,62148455,-85
32-6,62152361,-23
32-7,62156267,36
32-8,62160173,-9
32-9,62164079,-98
32-10,62167985,-77
32-11,62171891,22
32-12,62175797,27
32-13,62179703,-51
32-14,62183609,-83
32-15,62187515,-46
32-16,62191421,-35
32-17,62195327,-94
32-18,62199233,-129
32-19,62203139,-42
32-20,62207045,42
32-21,62210951,-10
32-22,62214857,-87
32-23,62218763,-64
32-24,62222669,-11
32-25,62226575,-47
32-26,62230481,-127
32-27,62234387,-138
32-28,62238293,-83
32-29,62242199,-63
32-30,62246105,-119
32-31,62250011,-135
32-32,62253917,-60
32-1,62257828,-46
32-2,62261734,-139
32-3,62265640,-182
32-4,62269546,-117
32-5,62273452,-66
32-6,62277358,-94
32-7,62281264,-101
32-8,62285170,-26
32-9,62289076,48
32-10,62292982,33
32-11,62296888,-40
32-12,62300794,-56
32-13,62304700,14
32-14,62308606,41
32-15,62312512,-30
32-16,62316418,-66
32-17,62320324,-7
32-18,62324230,38
32-19,62328136,-17
32-20,62332042,-81
32-21,62335948,-17
32-22,62339854,65
32-23,62343760,22
32-24,62347666,-50
32-25,62351572,-14
32-26,62355478,83
32-27,62359384,66
32-28,62363290,-9
32-29,62367196,21
32-30,62371102,83
32-31,62375008,61
32-32,62378914,-29
32-1,62382826,-69
32-2,62386732,10
32-3,62390638,60
32-4,62394544,-21
32-5,62398450,-108
32-6,62402356,-78
32-7,62406262,-8
32-8,62410168,-45
32-9,62414074,-101
32-10,62417980,-43
32-11,62421886,23
32-12,62425792,-13
32-13,62429698,-88
32-14,62433604,-101
32-15,62437510,-44
32-16,62441416,-23
32-17,62445322,-71
32-18,62449228,-63
32-19,62453134,27
32-20,62457040,64
32-21,62460946,9
32-22,62464852,-32
32-23,62468758,16
32-24,62472664,73
32-25,62476570,28
32-26,62480476,-49
32-27,62484382,-41
32-28,62488288,51
32-29,62492194,79
32-30,62496100,-22
32-31,62500006,-58
32-32,62503912,10
32-1,62507823,5
32-2,62511729,-60
32-3,62515635,-77
32-4,62519541,-26
32-5,62523447,0
32-6,62527353,-79
32-7,62531259,-149
32-8,62535165,-100
32-9,62539071,-15
32-10,62542977,-4
32-11,62546883,-52
32-12,62550789,-54
32-13,62554695,-7
32-14,62558601,-9
32-15,62562507,-59
32-16,62566413,-58
32-17,62570319,-3
32-18,62574225,-1
32-19,62578131,-84
32-20,62582037,-127
32-21,62585943,-66
32-22,62589849,-27
32-23,62593755,-88
32-24,62597661,-137
32-25,62601567,-81
32-26,62605473,-12
32-27,62609379,-49
32-28,62613285,-97
32-29,62617191,-60
32-30,62621097,-31
32-31,62625003,-45
32-32,62628909,-92
32-1,62632821,-128
32-2,62636727,-69
32-3,62640633,-26
32-4,62644539,-92
32-5,62648445,-136
32-6,62652351,-77
32-7,62656257,-15
32-8,62660163,-67
32-9,62664069,-128
32-10,62667975,-55
32-11,62671881,25
32-12,62675787,-30
32-13,62679693,-112
32-14,62683599,-92
32-15,62687505,-23
32-16,62691411,-26
32-17,62695317,-96
32-18,62699223,-106
32-19,62703129,-47
32-20,62707035,-37
32-21,62710941,-91
32-22,62714847,-116
32-23,62718753,-70
32-24,62722659,-28
32-25,62726565,-59
32-26,62730471,-117
32-27,62734377,-121
32-28,62738283,-37
32-29,62742189,7
32-30,62746095,-86
32-31,62750001,-131
32-32,62753907,-52
32-1,62757819,-45
32-2,62761725,-120
32-3,62765631,-124
32-4,62769537,-46
32-5,62773443,2
32-6,62777349,-54
32-7,62781255,-105
32-8,62785161,-54
32-9,62789067,8
32-10,62792973,-25
32-11,62796879,-96
32-12,62800785,-64
32-13,62804691,25
32-14,62808597,5
32-15,62812503,-84
32-16,62816409,-91
32-17,62820315,-15
32-18,62824221,5
32-19,62828127,-75
32-20,62832033,-115
32-21,62835939,-47
32-22,62839845,10
32-23,62843751,-40
32-24,62847657,-99
32-25,62851563,-63
32-26,62855469,1
32-27,62859375,-31
32-28,62863281,-66
32-29,62867187,1
32-30,62871093,18
32-31,62874999,-66
32-32,62878905,-127
32-1,62882816,-143
32-2,62886722,-102
32-3,62890628,-68
32-4,62894534,-115
32-5,62898440,-126
32-6,62902346,-58
32-7,62906252,-28
32-8,62910158,-87
32-9,62914064,-144
32-10,62917970,-102
32-11,62921876,-26
32-12,62925782,-37
32-13,62929688,-108
32-14,62933594,-109
32-15,62937500,-28
32-16,62941406,0
32-17,62945312,-53
32-18,62949218,-60
32-19,62953124,12
32-20,62957030,45
32-21,62960936,-17
32-22,62964842,-82
32-23,62968748,-67
32-24,62972654,-53
32-25,62976560,-112
32-26,62980466,-175
32-27,62984372,-155
32-28,62988278,-52
32-29,62992184,-6
32-30,62996090,-95
32-31,62999996,-129
32-32,63003902,-48
32-1,63007814,-32
32-2,63011720,-85
32-3,63015626,-68
32-4,63019532,12
32-5,63023438,36
32-6,63027344,-15
32-7,63031250,-49
32-8,63035156,-9
32-9,63039062,30
32-10,63042968,-24
32-11,63046874,-95
32-12,63050780,-87
32-13,63054686,-41
32-14,63058592,-49
32-15,63062498,-106
32-16,63066404,-113
32-17,63070310,-64
32-18,63074216,-56
32-19,63078122,-105
32-20,63082028,-133
32-21,63085934,-85
32-22,63089840,-32
32-23,63093746,-66
32-24,63097652,-136
32-25,63101558,-102
32-26,63105464,-5
32-27,63109370,-30
32-28,63113276,-84
32-29,63117182,-26
32-30,63121088,6
32-31,63124994,-44
32-32,63128900,-94
32-1,63132812,-97
32-2,63136718,-21
32-3,63140624,30
32-4,63144530,-13
32-5,63148436,-33
32-6,63152342,11
32-7,63156248,25
32-8,63160154,-20
32-9,63164060,-53
32-10,63167966,-21
32-11,63171872,30
32-12,63175778,-4
32-13,63179684,-86
32-14,63183590,-70
32-15,63187496,16
32-16,63191402,12
32-17,63195308,-71
32-18,63199214,-87
32-19,63203120,-7
32-20,63207026,50
32-21,63210932,26
32-22,63214838,1
32-23,63218744,54
32-24,63222650,105
32-25,63226556,60
32-26,63230462,-14
32-27,63234368,-33
32-28,63238274,6
32-29,63242180,21
32-30,63246086,-59
32-31,63249992,-98
32-32,63253898,-27
32-1,63257809,-10
32-2,63261715,-82
32-3,63265621,-99
32-4,63269527,-24
32-5,63273433,22
32-6,63277339,-22
32-7,63281245,-47
32-8,63285151,14
32-9,63289057,62
32-10,63292963,21
32-11,63296869,-26
32-12,63300775,3
32-13,63304681,49
32-14,63308587,21
32-15,63312493,-59
32-16,63316399,-65
32-17,63320305,7
32-18,63324211,35
32-19,63328117,-23
32-20,63332023,-77
32-21,63335929,-44
32-22,63339835,-5
32-23,63343741,-44
32-24,63347647,-64
32-25,63351553,0
32-26,63355459,63
32-27,63359365,26
32-28,63363271,-29
32-29,63367177,3
32-30,63371083,41
32-31,63374989,-2
32-32,63378895,-76
32-1,63382837,-68
32-2,63386743,38
32-3,63390649,65
32-4,63394555,-30
32-5,63398461,-68
32-6,63402367,11
32-7,63406273,92
32-8,63410179,75
32-9,63414085,25
32-10,63417991,70
32-11,63421897,156
32-12,63425803,112
32-13,63429709,7
32-14,63433615,14
32-15,63437521,73
32-16,63441427,50
32-17,63445333,-15
32-18,63449239,-14
32-19,63453145,48
32-20,63457051,67
32-21,63460957,-11
32-22,63464863,-75
32-23,63468769,-28
32-24,63472675,28
32-25,63476581,-5
32-26,63480487,-53
32-27,63484393,-27
32-28,63488299,44
32-29,63492205,41
32-30,63496111,-44
32-31,63500017,-47
32-32,63503923,22
32-1,63507805,16
32-2,63511711,-43
32-3,63515617,-55
32-4,63519523,15
32-5,63523429,50
32-6,63527335,-46
32-7,63531241,-105
32-8,63535147,-37
32-9,63539053,18
32-10,63542959,-21
32-11,63546865,-78
32-12,63550771,-65
32-13,63554677,4
32-14,63558583,4
32-15,63562489,-81
32-16,63566395,-76
32-17,63570301,26
32-18,63574207,40
32-19,63578113,-30
32-20,63582019,-45
32-21,63585925,32
32-22,63589831,90
32-23,63593737,25
32-24,63597643,-47
32-25,63601549,2
32-26,63605455,75
32-27,63609361,24
32-28,63613267,-32
32-29,63617173,60
32-30,63621079,112
32-31,63624985,9
32-32,63628891,-56
32-1,63632802,-11
32-2,63636708,59
32-3,63640614,59
32-4,63644520,-24
32-5,63648426,-53
32-6,63652332,9
32-7,63656238,41
32-8,63660144,-21
32-9,63664050,-74
32-10,63667956,-15
32-11,63671862,57
32-12,63675768,25
32-13,63679674,-30
32-14,63683580,-21
32-15,63687486,17
32-16,63691392,5
32-17,63695298,-51
32-18,63699204,-56
32-19,63703110,8
32-20,63707016,30
32-21,63710922,-15
32-22,63714828,-40
32-23,63718734,-9
32-24,63722640,11
32-25,63726546,-32
32-26,63730452,-76
32-27,63734358,-55
32-28,63738264,12
32-29,63742170,27
32-30,63746076,-64
32-31,63749982,-93
32-32,63753888,1
32-1,63757800,9
32-2,63761706,-73
32-3,63765612,-62
32-4,63769518,28
32-5,63773424,42
32-6,63777330,-25
32-7,63781236,-59
32-8,63785142,-33
32-9,63789048,-9
32-10,63792954,-36
32-11,63796860,-71
32-12,63800766,-36
32-13,63804672,18
32-14,63808578,-1
32-15,63812484,-57
32-16,63816390,-63
32-17,63820296,-11
32-18,63824202,-4
32-19,63828108,-69
32-20,63832014,-88
32-21,63835920,-28
32-22,63839826,2
32-23,63843732,-61
32-24,63847638,-133
32-25,63851544,-88
32-26,63855450,4
32-27,63859356,-24
32-28,63863262,-71
32-29,63867168,10
32-30,63871074,82
32-31,63874980,7
32-32,63878886,-87
32-1,63882797,-47
32-2,63886703,49
32-3,63890609,46
32-4,63894515,-33
32-5,63898421,-68
32-6,63902327,-23
32-7,63906233,11
32-8,63910139,-61
32-9,63914045,-136
32-10,63917951,-69
32-11,63921857,51
32-12,63925763,48
32-13,63929669,-28
32-14,63933575,-24
32-15,63937481,51
32-16,63941387,56
32-17,63945293,-49
32-18,63949199,-97
32-19,63953105,-16
32-20,63957011,8
32-21,63960917,-82
32-22,63964823,-126
32-23,63968729,-58
32-24,63972635,5
32-25,63976541,-57
32-26,63980447,-135
32-27,63984353,-105
32-28,63988259,-14
32-29,63992165,7
32-30,63996071,-74
32-31,63999977,-100
32-32,64003883,-33
32-1,64007795,-43
32-2,64011701,-135
32-3,64015607,-148
32-4,64019513,-63
32-5,64023419,-29
32-6,64027325,-85
32-7,64031231,-119
32-8,64035137,-80
32-9,64039043,-31
32-10,64042949,-62
32-11,64046855,-108
32-12,64050761,-51
32-13,64054667,22
32-14,64058573,-22
32-15,64062479,-93
32-16,64066385,-52
32-17,64070291,32
32-18,64074197,17
32-19,64078103,-76
32-20,64082009,-131
32-21,64085915,-93
32-22,64089821,-62
32-23,64093727,-117
32-24,64097633,-150
32-25,64101539,-62
32-26,64105445,17
32-27,64109351,-37
32-28,64113257,-84
32-29,64117163,-29
32-30,64121069,10
32-31,64124975,-36
32-32,64128881,-109
32-1,64132793,-103
32-2,64136699,-3
32-3,64140605,26
32-4,64144511,-76
32-5,64148417,-127
32-6,64152323,-54
32-7,64156229,3
32-8,64160135,-54
32-9,64164041,-118
32-10,64167947,-69
32-11,64171853,0
32-12,64175759,-32
32-13,64179665,-87
32-14,64183571,-61
32-15,64187477,8
32-16,64191383,-5
32-17,64195289,-83
32-18,64199195,-83
32-19,64203101,-19
32-20,64207007,-19
32-21,64210913,-77
32-22,64214819,-104
32-23,64218725,-49
32-24,64222631,21
32-25,64226537,-18
32-26,64230443,-84
32-27,64234349,-48
32-28,64238255,34
32-29,64242161,38
32-30,64246067,-40
32-31,64249973,-53
32-32,64253879,39
32-1,64257790,50
32-2,64261696,-50
32-3,64265602,-67
32-4,64269508,10
32-5,64273414,19
32-6,64277320,-56
32-7,64281226,-104
32-8,64285132,-60
32-9,64289038,0
32-10,64292944,-45
32-11,64296850,-123
32-12,64300756,-99
32-13,64304662,-31
32-14,64308568,-47
32-15,64312474,-119
32-16,64316380,-97
32-17,64320286,11
32-18,64324192,27
32-19,64328098,-63
32-20,64332004,-88
32-21,64335910,6
32-22,64339816,51
32-23,64343722,-41
32-24,64347628,-105
32-25,64351534,-40
32-26,64355440,28
32-27,64359346,-34
32-28,64363252,-98
32-29,64367158,-12
32-30,64371064,24
32-31,64374970,-74
32-32,64378876,-120
32-1,64382788,-84
32-2,64386694,-31
32-3,64390600,-30
32-4,64394506,-109
32-5,64398412,-140
32-6,64402318,-73
32-7,64406224,-36
32-8,64410130,-95
32-9,64414036,-136
32-10,64417942,-73
32-11,64421848,5
32-12,64425754,-24
32-13,64429660,-102
32-14,64433566,-79
32-15,64437472,-1
32-16,64441378,-18
32-17,64445284,-86
32-18,64449190,-62
32-19,64453096,6
32-20,64457002,3
32-21,64460908,-51
32-22,64464814,-82
32-23,64468720,-40
32-24,64472626,2
32-25,64476532,-48
32-26,64480438,-90
32-27,64484344,-36
32-28,64488250,40
32-29,64492156,32
32-30,64496062,-48
32-31,64499968,-54
32-32,64503874,26
32-1,64507786,33
32-2,64511692,-43
32-3,64515598,-70
32-4,64519504,-17
32-5,64523410,0
32-6,64527316,-71
32-7,64531222,-98
32-8,64535128,-13
32-9,64539034,28
32-10,64542940,-65
32-11,64546846,-128
32-12,64550752,-47
32-13,64554658,31
32-14,64558564,-13
32-15,64562470,-70
32-16,64566376,-33
32-17,64570282,54
32-18,64574188,84
32-19,64578094,20
32-20,64582000,-25
32-21,64585906,39
32-22,64589812,90
32-23,64593718,25
32-24,64597624,-39
32-25,64601530,11
32-26,64605436,75
32-27,64609342,26
32-28,64613248,-24
32-29,64617154,39
32-30,64621060,85
32-31,64624966,31
32-32,64628872,-27
32-1,64632783,-23
32-2,64636689,23
32-3,64640595,25
32-4,64644501,-46
32-5,64648407,-64
32-6,64652313,25
32-7,64656219,73
32-8,64660125,-9
32-9,64664031,-73
32-10,64667937,-24
32-11,64671843,11
32-12,64675749,-40
32-13,64679655,-64
32-14,64683561,-10
32-15,64687467,38
32-16,64691373,-3
32-17,64695279,-86
32-18,64699185,-86
32-19,64703091,-18
32-20,64706997,-1
32-21,64710903,-53
32-22,64714809,-93
32-23,64718715,-31
32-24,64722621,25
32-25,64726527,-54
32-26,64730433,-119
32-27,64734339,-79
32-28,64738245,-24
32-29,64742151,-13
32-30,64746057,-49
32-31,64749963,-52
32-32,64753869,-3
32-1,64757781,-2
32-2,64761687,-41
32-3,64765593,-27
32-4,64769499,29
32-5,64773405,24
32-6,64777311,-63
32-7,64781217,-101
32-8,64785123,-31
32-9,64789029,17
32-10,64792935,-41
32-11,64796841,-93
32-12,64800747,-63
32-13,64804653,-34
32-14,64808559,-77
32-15,64812465,-137
32-16,64816371,-111
32-17,64820277,-18
32-18,64824183,2
32-19,64828089,-71
32-20,64831995,-99
32-21,64835901,-42
32-22,64839807,-22
32-23,64843713,-77
32-24,64847619,-102
32-25,64851525,-44
32-26,64855431,10
32-27,64859337,-50
32-28,64863243,-117
32-29,64867149,-56
32-30,64871055,-11
32-31,64874961,-56
32-32,64878867,-61
32-1,64882809,-7
32-2,64886715,45
32-3,64890621,29
32-4,64894527,-48
32-5,64898433,-65
32-6,64902339,-11
32-7,64906245,1
32-8,64910151,-60
32-9,64914057,-103
32-10,64917963,-53
32-11,64921869,6
32-12,64925775,-36
32-13,64929681,-95
32-14,64933587,-64
32-15,64937493,-6
32-16,64941399,-19
32-17,64945305,-82
32-18,64949211,-81
32-19,64953117,-1
32-20,64957023,29
32-21,64960929,-39
32-22,64964835,-64
32-23,64968741,13
32-24,64972647,56
32-25,64976553,7
32-26,64980459,-21
32-27,64984365,24
32-28,64988271,100
32-29,64992177,102
32-30,64996083,5
32-31,64999989,-20
32-32,65003895,58
32-1,65007776,35
32-2,65011682,-67
32-3,65015588,-71
32-4,65019494,13
32-5,65023400,46
32-6,65027306,-26
32-7,65031212,-75
32-8,65035118,-16
32-9,65039024,23
32-10,65042930,-36
32-11,65046836,-85
32-12,65050742,-21
32-13,65054648,60
32-14,65058554,13
32-15,65062460,-70
32-16,65066366,-51
32-17,65070272,3
32-18,65074178,-21
32-19,65078084,-96
32-20,65081990,-104
32-21,65085896,-12
32-22,65089802,37
32-23,65093708,-35
32-24,65097614,-76
32-25,65101520,1
32-26,65105426,58
32-27,65109332,-21
32-28,65113238,-77
32-29,65117144,13
32-30,65121050,55
32-31,65124956,-27
32-32,65128862,-78
32-1,65132774,-73
32-2,65136680,-32
32-3,65140586,-7
32-4,65144492,-72
32-5,65148398,-114
32-6,65152304,-53
32-7,65156210,-5
32-8,65160116,-61
32-9,65164022,-114
32-10,65167928,-56
32-11,65171834,1
32-12,65175740,-41
32-13,65179646,-87
32-14,65183552,-48
32-15,65187458,28
32-16,65191364,27
32-17,65195270,-53
32-18,65199176,-80
32-19,65203082,-28
32-20,65206988,-23
32-21,65210894,-81
32-22,65214800,-94
32-23,65218706,-51
32-24,65222612,-32
32-25,65226518,-72
32-26,65230424,-103
32-27,65234330,-75
32-28,65238236,-22
32-29,65242142,-11
32-30,65246048,-82
32-31,65249954,-107
32-32,65253860,-27
32-1,65257741,-48
32-2,65261647,-157
32-3,65265553,-145
32-4,65269459,-42
32-5,65273365,-21
32-6,65277271,-104
32-7,65281177,-137
32-8,65285083,-62
32-9,65288989,-9
32-10,65292895,-57
32-11,65296801,-117
32-12,65300707,-67
32-13,65304613,23
32-14,65308519,-4
32-15,65312425,-80
32-16,65316331,-52
32-17,65320237,29
32-18,65324143,40
32-19,65328049,-24
32-20,65331955,-49
32-21,65335861,4
32-22,65339767,35
32-23,65343673,6
32-24,65347579,-9
32-25,65351485,44
32-26,65355391,91
32-27,65359297,26
32-28,65363203,-17
32-29,65367109,67
32-30,65371015,106
32-31,65374921,24
32-32,65378827,-51
32-1,65382769,-38
32-2,65386675,41
32-3,65390581,56
32-4,65394487,-17
32-5,65398393,-34
32-6,65402299,26
32-7,65406205,43
32-8,65410111,-7
32-9,65414017,-41
32-10,65417923,-9
32-11,65421829,32
32-12,65425735,0
32-13,65429641,-64
32-14,65433547,-47
32-15,65437453,16
32-16,65441359,-12
32-17,65445265,-101
32-18,65449171,-90
32-19,65453077,2
32-20,65456983,14
32-21,65460889,-55
32-22,65464795,-68
32-23,65468701,13
32-24,65472607,73
32-25,65476513,27
32-26,65480419,-26
32-27,65484325,8
32-28,65488231,76
32-29,65492137,63
32-30,65496043,-30
32-31,65499949,-44
32-32,65503855,44
32-1,65507767,61
32-2,65511673,-11
32-3,65515579,-18
32-4,65519485,52
32-5,65523391,44
32-6,65527297,-79
32-7,65531203,-137
32-8,65535109,-66
32-9,65539015,-17
32-10,65542921,-45
32-11,65546827,-48
32-12,65550733,22
32-13,65554639,85
32-14,65558545,51
32-15,65562451,-5
32-16,65566357,23
32-17,65570263,77
32-18,65574169,51
32-19,65578075,-26
32-20,65581981,-43
32-21,65585887,18
32-22,65589793,37
32-23,65593699,-28
32-24,65597605,-65
32-25,65601511,-9
32-26,65605417,40
32-27,65609323,-19
32-28,65613229,-58
32-29,65617135,28
32-30,65621041,76
32-31,65624947,6
32-32,65628853,-47
32-1,65632795,-34
32-2,65636701,-1
32-3,65640607,-7
32-4,65644513,-70
32-5,65648419,-107
32-6,65652325,-49
32-7,65656231,-8
32-8,65660137,-78
32-9,65664043,-123
32-10,65667949,-43
32-11,65671855,17
32-12,65675761,-40
32-13,65679667,-81
32-14,65683573,-14
32-15,65687479,49
32-16,65691385,11
32-17,65695291,-68
32-18,65699197,-81
32-19,65703103,-29
32-20,65707009,-34
32-21,65710915,-118
32-22,65714821,-148
32-23,65718727,-92
32-24,65722633,-72
32-25,65726539,-139
32-26,65730445,-182
32-27,65734351,-121
32-28,65738257,-22
32-29,65742163,-10
32-30,65746069,-81
32-31,65749975,-88
32-32,65753881,-17
32-1,65757762,-35
32-2,65761668,-125
32-3,65765574,-111
32-4,65769480,-12
32-5,65773386,2
32-6,65777292,-92
32-7,65781198,-135
32-8,65785104,-76
32-9,65789010,-39
32-10,65792916,-115
32-11,65796822,-176
32-12,65800728,-100
32-13,65804634,-13
32-14,65808540,-31
32-15,65812446,-78
32-16,65816352,-55
32-17,65820258,19
32-18,65824164,24
32-19,65828070,-44
32-20,65831976,-44
32-21,65835882,35
32-22,65839788,49
32-23,65843694,-30
32-24,65847600,-73
32-25,65851506,-21
32-26,65855412,22
32-27,65859318,-63
32-28,65863224,-109
32-29,65867130,31
32-30,65871036,94
32-31,65874942,-28
32-32,65878848,-96
32-1,65882790,-53
32-2,65886696,-5
32-3,65890602,-28
32-4,65894508,-102
32-5,65898414,-109
32-6,65902320,-50
32-7,65906226,-31
32-8,65910132,-74
32-9,65914038,-115
32-10,65917944,-82
32-11,65921850,-25
32-12,65925756,-58
32-13,65929662,-118
32-14,65933568,-74
32-15,65937474,4
32-16,65941380,-26
32-17,65945286,-107
32-18,65949192,-97
32-19,65953098,-12
32-20,65957004,5
32-21,65960910,-49
32-22,65964816,-57
32-23,65968722,10
32-24,65972628,45
32-25,65976534,1
32-26,65980440,-47
32-27,65984346,-42
32-28,65988252,12
32-29,65992158,34
32-30,65996064,-30
32-31,65999970,-48
32-32,66003876,19
32-1,66007757,10
32-2,66011663,-46
32-3,66015569,-4
32-4,66019475,70
32-5,66023381,54
32-6,66027287,-18
32-7,66031193,-45
32-8,66035099,-4
32-9,66039005,21
32-10,66042911,-29
32-11,66046817,-74
32-12,66050723,-13
32-13,66054629,39
32-14,66058535,-37
32-15,66062441,-102
32-16,66066347,-47
32-17,66070253,25
32-18,66074159,21
32-19,66078065,-41
32-20,66081971,-57
32-21,66085877,11
32-22,66089783,45
32-23,66093689,-2
32-24,66097595,-24
32-25,66101501,39
32-26,66105407,70
32-27,66109313,-27
32-28,66113219,-65
32-29,66117125,37
32-30,66121031,72
32-31,66124937,4
32-32,66128843,-43
32-1,66132755,-24
32-2,66136661,33
32-3,66140567,35
32-4,66144473,-25
32-5,66148379,-32
32-6,66152285,23
32-7,66156191,30
32-8,66160097,-27
32-9,66164003,-36
32-10,66167909,37
32-11,66171815,79
32-12,66175721,-1
32-13,66179627,-94
32-14,66183533,-70
32-15,66187439,5
32-16,66191345,-8
32-17,66195251,-82
32-18,66199157,-73
32-19,66203063,7
32-20,66206969,8
32-21,66210875,-47
32-22,66214781,-40
32-23,66218687,38
32-24,66222593,74
32-25,66226499,13
32-26,66230405,-24
32-27,66234311,21
32-28,66238217,67
32-29,66242123,55
32-30,66246029,-10
32-31,66249935,-10
32-32,66253841,69
32-1,66257752,44
32-2,66261658,-55
32-3,66265564,-51
32-4,66269470,31
32-5,66273376,39
32-6,66277282,-40
32-7,66281188,-86
32-8,66285094,-38
32-9,66289000,21
32-10,66292906,-22
32-11,66296812,-91
32-12,66300718,-46
32-13,66304624,16
32-14,66308530,-39
32-15,66312436,-118
32-16,66316342,-81
32-17,66320248,-12
32-18,66324154,-50
32-19,66328060,-129
32-20,66331966,-133
32-21,66335872,-51
32-22,66339778,0
32-23,66343684,-65
32-24,66347590,-109
32-25,66351496,-48
32-26,66355402,-17
32-27,66359308,-91
32-28,66363214,-126
32-29,66367120,-45
32-30,66371026,-5
32-31,66374932,-81
32-32,66378838,-155
32-1,66382781,-136
32-2,66386687,-54
32-3,66390593,-37
32-4,66394499,-106
32-5,66398405,-115
32-6,66402311,-46
32-7,66406217,-31
32-8,66410123,-92
32-9,66414029,-114
32-10,66417935,-50
32-11,66421841,-7
32-12,66425747,-63
32-13,66429653,-114
32-14,66433559,-70
32-15,66437465,2
32-16,66441371,2
32-17,66445277,-56
32-18,66449183,-52
32-19,66453089,25
32-20,66456995,26
32-21,66460901,-63
32-22,66464807,-79
32-23,66468713,8
32-24,66472619,22
32-25,66476525,-68
32-26,66480431,-72
32-27,66484337,-4
32-28,66488243,21
32-29,66492149,10
32-30,66496055,-37
32-31,66499961,-45
32-32,66503867,22
32-1,66507839,19
32-2,66511745,-37
32-3,66515651,-11
32-4,66519557,62
32-5,66523463,42
32-6,66527369,-50
32-7,66531275,-60
32-8,66535181,8
32-9,66539087,17
32-10,66542993,-55
32-11,66546899,-86
32-12,66550805,-8
32-13,66554711,53
32-14,66558617,-13
32-15,66562523,-87
32-16,66566429,-54
32-17,66570335,11
32-18,66574241,-6
32-19,66578147,-75
32-20,66582053,-66
32-21,66585959,31
32-22,66589865,46
32-23,66593771,-44
32-24,66597677,-66
32-25,66601583,4
32-26,66605489,22
32-27,66609395,-70
32-28,66613301,-93
32-29,66617207,45
32-30,66621113,90
32-31,66625019,-25
32-32,66628925,-98
32-1,66632745,-70
32-2,66636651,-5
32-3,66640557,-14
32-4,66644463,-84
32-5,66648369,-67
32-6,66652275,4
32-7,66656181,10
32-8,66660087,-55
32-9,66663993,-94
32-10,66667899,-42
32-11,66671805,1
32-12,66675711,-43
32-13,66679617,-85
32-14,66683523,-50
32-15,66687429,10
32-16,66691335,-6
32-17,66695241,-68
32-18,66699147,-48
32-19,66703053,30
32-20,66706959,9
32-21,66710865,-111
32-22,66714771,-150
32-23,66718677,-81
32-24,66722583,-78
32-25,66726489,-142
32-26,66730395,-145
32-27,66734301,-100
32-28,66738207,-38
32-29,66742113,-26
32-30,66746019,-118
32-31,66749925,-151
32-32,66753831,-82
32-1,66757743,-87
32-2,66761649,-158
32-3,66765555,-154
32-4,66769461,-81
32-5,66773367,-72
32-6,66777273,-133
32-7,66781179,-129
32-8,66785085,-66
32-9,66788991,-52
32-10,66792897,-106
32-11,66796803,-124
32-12,66800709,-41
32-13,66804615,38
32-14,66808521,15
32-15,66812427,-39
32-16,66816333,-23
32-17,66820239,31
32-18,66824145,32
32-19,66828051,-22
32-20,66831957,-46
32-21,66835863,8
32-22,66839769,39
32-23,66843675,-13
32-24,66847581,-23
32-25,66851487,61
32-26,66855393,110
32-27,66859299,36
32-28,66863205,-10
32-29,66867111,68
32-30,66871017,90
32-31,66874923,-7
32-32,66878829,-64
32-1,66882741,-30
32-2,66886647,40
32-3,66890553,44
32-4,66894459,-45
32-5,66898365,-64
32-6,66902271,27
32-7,66906177,25
32-8,66910083,-56
32-9,66913989,-37
32-10,66917895,52
32-11,66921801,76
32-12,66925707,7
32-13,66929613,-41
32-14,66933519,19
32-15,66937425,82
32-16,66941331,50
32-17,66945237,0
32-18,66949143,26
32-19,66953049,95
32-20,66956955,94
32-21,66960861,1
32-22,66964767,-47
32-23,66968673,12
32-24,66972579,25
32-25,66976485,-79
32-26,66980391,-132
32-27,66984297,-67
32-28,66988203,-1
32-29,66992109,-11
32-30,66996015,-71
32-31,66999921,-68
32-32,67003827,9
32-1,67007738,-11
32-2,67011644,-91
32-3,67015550,-56
32-4,67019456,28
32-5,67023362,29
32-6,67027268,-31
32-7,67031174,-50
32-8,67035080,22
32-9,67038986,76
32-10,67042892,6
32-11,67046798,-60
32-12,67050704,-17
32-13,67054610,37
32-14,67058516,15
32-15,67062422,-32
32-16,67066328,-25
32-17,67070234,23
32-18,67074140,6
32-19,67078046,-64
32-20,67081952,-75
32-21,67085858,-19
32-22,67089764,-13
32-23,67093670,-81
32-24,67097576,-90
32-25,67101482,-10
32-26,67105388,23
32-27,67109294,-51
32-28,67113200,-83
32-29,67117106,3
32-30,67121012,34
32-31,67124918,-38
32-32,67128824,-66
32-1,67132919,-8
32-2,67136825,54
32-3,67140731,33
32-4,67144637,-44
32-5,67148543,-63
32-6,67152449,-5
32-7,67156355,5
32-8,67160261,-86
32-9,67164167,-134
32-10,67168073,-65
32-11,67171979,-36
32-12,67175885,-125
32-13,67179791,-186
32-14,67183697,-113
32-15,67187603,-27
32-16,67191509,-61
32-17,67195415,-127
32-18,67199321,-109
32-19,67203227,-42
32-20,67207133,-32
32-21,67211039,-87
32-22,67214945,-97
32-23,67218851,-35
32-24,67222757,-19
32-25,67226663,-91
32-26,67230569,-141
32-27,67234475,-100
32-28,67238381,-29
32-29,67242287,-34
32-30,67246193,-89
32-31,67250099,-29
32-32,67254005,82
32-1,67257733,41
32-2,67261639,-57
32-3,67265545,-49
32-4,67269451,1
32-5,67273357,-21
32-6,67277263,-88
32-7,67281169,-89
32-8,67285075,-4
32-9,67288981,53
32-10,67292887,11
32-11,67296793,-25
32-12,67300699,26
32-13,67304605,65
32-14,67308511,28
32-15,67312417,-17
32-16,67316323,16
32-17,67320229,78
32-18,67324135,46
32-19,67328041,-34
32-20,67331947,-28
32-21,67335853,46
32-22,67339759,43
32-23,67343665,-32
32-24,67347571,-38
32-25,67351477,19
32-26,67355383,46
32-27,67359289,-7
32-28,67363195,-31
32-29,67367101,83
32-30,67371007,128
32-31,67374913,6
32-32,67378819,-81
32-1,67382731,-63
32-2,67386637,-9
32-3,67390543,-17
32-4,67394449,-90
32-5,67398355,-83
32-6,67402261,9
32-7,67406167,33
32-8,67410073,-37
32-9,67413979,-35
32-10,67417885,59
32-11,67421791,82
32-12,67425697,-6
32-13,67429603,-72
32-14,67433509,-17
32-15,67437415,52
32-16,67441321,0
32-17,67445227,-92
32-18,67449133,-87
32-19,67453039,-27
32-20,67456945,-48
32-21,67460851,-109
32-22,67464757,-77
32-23,67468663,3
32-24,67472569,-3
32-25,67476475,-90
32-26,67480381,-114
32-27,67484287,-38
32-28,67488193,21
32-29,67492099,-9
32-30,67496005,-84
32-31,67499911,-80
32-32,67503817,3
32-1,67507729,0
32-2,67511635,-72
32-3,67515541,-58
32-4,67519447,8
32-5,67523353,-4
32-6,67527259,-64
32-7,67531165,-56
32-8,67535071,17
32-9,67538977,37
32-10,67542883,-27
32-11,67546789,-47
32-12,67550695,30
32-13,67554601,87
32-14,67558507,36
32-15,67562413,-36
32-16,67566319,7
32-17,67570225,83
32-18,67574131,24
32-19,67578037,-73
32-20,67581943,-49
32-21,67585849,28
32-22,67589755,16
32-23,67593661,-68
32-24,67597567,-73
32-25,67601473,25
32-26,67605379,64
32-27,67609285,-33
32-28,67613191,-83
32-29,67617097,8
32-30,67621003,50
32-31,67624909,-30
32-32,67628815,-90
32-1,67632726,-51
32-2,67636632,33
32-3,67640538,39
32-4,67644444,-28
32-5,67648350,-34
32-6,67652256,20
32-7,67656162,6
32-8,67660068,-98
32-9,67663974,-138
32-10,67667880,-44
32-11,67671786,3
32-12,67675692,-58
32-13,67679598,-71
32-14,67683504,-3
32-15,67687410,38
32-16,67691316,-6
32-17,67695222,-71
32-18,67699128,-28
32-19,67703034,64
32-20,67706940,44
32-21,67710846,-45
32-22,67714752,-53
32-23,67718658,21
32-24,67722564,40
32-25,67726470,-20
32-26,67730376,-33
32-27,67734282,20
32-28,67738188,60
32-29,67742094,25
32-30,67746000,-46
32-31,67749906,-8
32-32,67753812,69
32-1,67757846,21
32-2,67761752,-42
32-3,67765658,-20
32-4,67769564,31
32-5,67773470,29
32-6,67777376,-52
32-7,67781282,-71
32-8,67785188,18
32-9,67789094,48
32-10,67793000,-13
32-11,67796906,-43
32-12,67800812,15
32-13,67804718,83
32-14,67808624,46
32-15,67812530,-33
32-16,67816436,-3
32-17,67820342,78
32-18,67824248,48
32-19,67828154,-36
32-20,67832060,-21
32-21,67835966,40
32-22,67839872,15
32-23,67843778,-53
32-24,67847684,-50
32-25,67851590,20
32-26,67855496,44
32-27,67859402,-38
32-28,67863308,-68
32-29,67867214,40
32-30,67871120,82
32-31,67875026,6
32-32,67878932,-21
32-1,67882691,34
32-2,67886597,91
32-3,67890503,54
32-4,67894409,-34
32-5,67898315,-35
32-6,67902221,16
32-7,67906127,10
32-8,67910033,-70
32-9,67913939,-112
32-10,67917845,-38
32-11,67921751,14
32-12,67925657,-49
32-13,67929563,-93
32-14,67933469,-38
32-15,67937375,2
32-16,67941281,-54
32-17,67945187,-119
32-18,67949093,-74
32-19,67952999,17
32-20,67956905,13
32-21,67960811,-51
32-22,67964717,-62
32-23,67968623,-20
32-24,67972529,-30
32-25,67976435,-112
32-26,67980341,-111
32-27,67984247,-11
32-28,67988153,48
32-29,67992059,15
32-30,67995965,-59
32-31,67999871,-42
32-32,68003777,40
32-1,68007719,9
32-2,68011625,-71
32-3,68015531,-38
32-4,68019437,52
32-5,68023343,43
32-6,68027249,-54
32-7,68031155,-61
32-8,68035061,37
32-9,68038967,61
32-10,68042873,-10
32-11,68046779,-34
32-12,68050685,27
32-13,68054591,62
32-14,68058497,8
32-15,68062403,-35
32-16,68066309,20
32-17,68070215,79
32-18,68074121,35
32-19,68078027,-59
32-20,68081933,-61
32-21,68085839,26
32-22,68089745,27
32-23,68093651,-48
32-24,68097557,-28
32-25,68101463,50
32-26,68105369,62
32-27,68109275,-16
32-28,68113181,-57
32-29,68117087,51
32-30,68120993,101
32-31,68124899,-15
32-32,68128805,-73
32-1,68132717,-13
32-2,68136623,27
32-3,68140529,-23
32-4,68144435,-108
32-5,68148341,-105
32-6,68152247,-39
32-7,68156153,-34
32-8,68160059,-84
32-9,68163965,-68
32-10,68167871,8
32-11,68171777,18
32-12,68175683,-47
32-13,68179589,-80
32-14,68183495,-29
32-15,68187401,45
32-16,68191307,37
32-17,68195213,-31
32-18,68199119,-23
32-19,68203025,46
32-20,68206931,21
32-21,68210837,-72
32-22,68214743,-74
32-23,68218649,14
32-24,68222555,45
32-25,68226461,-23
32-26,68230367,-27
32-27,68234273,72
32-28,68238179,115
32-29,68242085,55
32-30,68245991,-28
32-31,68249897,-46
32-32,68253803,-23
32-1,68257715,-70
32-2,68261621,-129
32-3,68265527,-73
32-4,68269433,24
32-5,68273339,1
32-6,68277245,-94
32-7,68281151,-87
32-8,68285057,-10
32-9,68288963,-20
32-10,68292869,-84
32-11,68296775,-87
32-12,68300681,-30
32-13,68304587,0
32-14,68308493,-42
32-15,68312399,-86
32-16,68316305,-64
32-17,68320211,-15
32-18,68324117,-38
32-19,68328023,-116
32-20,68331929,-119
32-21,68335835,-66
32-22,68339741,-83
32-23,68343647,-137
32-24,68347553,-124
32-25,68351459,-48
32-26,68355365,-16
32-27,68359271,-82
32-28,68363177,-104
32-29,68367083,-12
32-30,68370989,19
32-31,68374895,-44
32-32,68378801,-72
32-1,68382712,-35
32-2,68386618,16
32-3,68390524,-17
32-4,68394430,-108
32-5,68398336,-100
32-6,68402242,-32
32-7,68406148,-47
32-8,68410054,-119
32-9,68413960,-136
32-10,68417866,-83
32-11,68421772,-61
32-12,68425678,-111
32-13,68429584,-139
32-14,68433490,-78
32-15,68437396,-37
32-16,68441302,-93
32-17,68445208,-133
32-18,68449114,-84
32-19,68453020,-29
32-20,68456926,-67
32-21,68460832,-131
32-22,68464738,-98
32-23,68468644,-17
32-24,68472550,-23
32-25,68476456,-100
32-26,68480362,-103
32-27,68484268,-44
32-28,68488174,-26
32-29,68492080,-54
32-30,68495986,-97
32-31,68499892,-86
32-32,68503798,-39
32-1,68507710,-74
32-2,68511616,-130
32-3,68515522,-82
32-4,68519428,-4
32-5,68523334,-33
32-6,68527240,-114
32-7,68531146,-104
32-8,68535052,-24
32-9,68538958,-11
32-10,68542864,-75
32-11,68546770,-88
32-12,68550676,-9
32-13,68554582,17
32-14,68558488,-57
32-15,68562394,-87
32-16,68566300,-19
32-17,68570206,45
32-18,68574112,15
32-19,68578018,-59
32-20,68581924,-41
32-21,68585830,41
32-22,68589736,21
32-23,68593642,-50
32-24,68597548,-31
32-25,68601454,38
32-26,68605360,41
32-27,68609266,-34
32-28,68613172,-41
32-29,68617078,56
32-30,68620984,64
32-31,68624890,-30
32-32,68628796,-69
32-1,68632707,-28
32-2,68636613,13
32-3,68640519,-38
32-4,68644425,-123
32-5,68648331,-91
32-6,68652237,4
32-7,68656143,-7
32-8,68660049,-99
32-9,68663955,-108
32-10,68667861,-25
32-11,68671767,4
32-12,68675673,-55
32-13,68679579,-73
32-14,68683485,-22
32-15,68687391,-11
32-16,68691297,-81
32-17,68695203,-136
32-18,68699109,-92
32-19,68703015,-10
32-20,68706921,-21
32-21,68710827,-76
32-22,68714733,-46
32-23,68718639,32
32-24,68722545,18
32-25,68726451,-74
