32-1,67498970,-48
32-2,67502876,-68
32-3,67506782,-19
32-4,67510688,-18
32-5,67514594,-71
32-6,67518500,-74
32-7,67522406,-28
32-8,67526312,5
32-9,67530218,-4
32-10,67534124,-23
32-11,67538030,15
32-12,67541936,77
32-13,67545842,82
32-14,67549748,37
32-15,67553654,27
32-16,67557560,69
32-17,67561466,84
32-18,67565372,68
32-19,67569278,73
32-20,67573184,94
32-21,67577090,110
32-22,67580996,66
32-23,67584902,5
32-24,67588808,35
32-25,67592714,83
32-26,67596620,44
32-27,67600526,-2
32-28,67604432,42
32-29,67608338,114
32-30,67612244,80
32-31,67616150,-24
32-32,67620056,-71
32-1,67623968,-50
32-2,67627874,-34
32-3,67631780,-71
32-4,67635686,-96
32-5,67639592,-50
32-6,67643498,9
32-7,67647404,26
32-8,67651310,-1
32-9,67655216,-9
32-10,67659122,18
32-11,67663028,-8
32-12,67666934,-65
32-13,67670840,-54
32-14,67674746,-4
32-15,67678652,12
32-16,67682558,-19
32-17,67686464,-60
32-18,67690370,-33
32-19,67694276,29
32-20,67698182,16
32-21,67702088,-31
32-22,67705994,-15
32-23,67709900,27
32-24,67713806,21
32-25,67717712,-21
32-26,67721618,-45
32-27,67725524,-30
32-28,67729430,10
32-29,67733336,-2
32-30,67737242,-71
32-31,67741148,-76
32-32,67745054,-47
32-1,67748966,-84
32-2,67752872,-108
32-3,67756778,-80
32-4,67760684,-78
32-5,67764590,-120
32-6,67768496,-150
32-7,67772402,-119
32-8,67776308,-58
32-9,67780214,-61
32-10,67784120,-122
32-11,67788026,-158
32-12,67791932,-144
32-13,67795838,-119
32-14,67799744,-126
32-15,67803650,-115
32-16,67807556,-47
32-17,67811462,-17
32-18,67815368,-66
32-19,67819274,-102
32-20,67823180,-70
32-21,67827086,-27
32-22,67830992,-38
32-23,67834898,-56
32-24,67838804,-18
32-25,67842710,32
32-26,67846616,22
32-27,67850522,-56
32-28,67854428,-81
32-29,67858334,-17
32-30,67862240,-28
32-31,67866146,-96
32-32,67870052,-66
32-1,67873963,-6
32-2,67877869,-24
32-3,67881775,-75
32-4,67885681,-76
32-5,67889587,-3
32-6,67893493,50
32-7,67897399,11
32-8,67901305,-22
32-9,67905211,25
32-10,67909117,83
32-11,67913023,60
32-12,67916929,-15
32-13,67920835,-29
32-14,67924741,19
32-15,67928647,20
32-16,67932553,-48
32-17,67936459,-72
32-18,67940365,7
32-19,67944271,50
32-20,67948177,-16
32-21,67952083,-74
32-22,67955989,-62
32-23,67959895,-38
32-24,67963801,-48
32-25,67967707,-99
32-26,67971613,-107
32-27,67975519,-44
32-28,67979425,11
32-29,67983331,13
32-30,67987237,-34
32-31,67991143,-52
32-32,67995049,-37
32-1,67998961,-92
32-2,68002867,-152
32-3,68006773,-123
32-4,68010679,-71
32-5,68014585,-60
32-6,68018491,-72
32-7,68022397,-55
32-8,68026303,-32
32-9,68030209,-31
32-10,68034115,-22
32-11,68038021,12
32-12,68041927,53
32-13,68045833,45
32-14,68049739,-25
32-15,68053645,-49
32-16,68057551,-10
32-17,68061457,1
32-18,68065363,-27
32-19,68069269,-26
32-20,68073175,28
32-21,68077081,64
32-22,68080987,21
32-23,68084893,-37
32-24,68088799,-18
32-25,68092705,45
32-26,68096611,38
32-27,68100517,-18
32-28,68104423,12
32-29,68108329,109
32-30,68112235,101
32-31,68116141,3
32-32,68120047,-28
32-1,68123959,31
32-2,68127865,89
32-3,68131771,65
32-4,68135677,4
32-5,68139583,4
32-6,68143489,19
32-7,68147395,-29
32-8,68151301,-97
32-9,68155207,-87
32-10,68159113,-11
32-11,68163019,0
32-12,68166925,-59
32-13,68170831,-55
32-14,68174737,10
32-15,68178643,20
32-16,68182549,-13
32-17,68186455,-21
32-18,68190361,4
32-19,68194267,33
32-20,68198173,19
32-21,68202079,-31
32-22,68205985,-38
32-23,68209891,-17
32-24,68213797,-39
32-25,68217703,-57
32-26,68221609,-12
32-27,68225515,34
32-28,68229421,45
32-29,68233327,44
32-30,68237233,15
32-31,68241139,8
32-32,68245045,49
32-1,68248956,40
32-2,68252862,8
32-3,68256768,18
32-4,68260674,-4
32-5,68264580,-51
32-6,68268486,-69
32-7,68272392,-61
32-8,68276298,-53
32-9,68280204,-75
32-10,68284110,-102
32-11,68288016,-94
32-12,68291922,-54
32-13,68295828,-26
32-14,68299734,-51
32-15,68303640,-70
32-16,68307546,-41
32-17,68311452,-23
32-18,68315358,-52
32-19,68319264,-96
32-20,68323170,-63
32-21,68327076,8
32-22,68330982,-16
32-23,68334888,-59
32-24,68338794,-17
32-25,68342700,28
32-26,68346606,6
32-27,68350512,-55
32-28,68354418,-53
32-29,68358324,28
32-30,68362230,23
32-31,68366136,-56
32-32,68370042,-65
32-1,68373954,-42
32-2,68377860,-49
32-3,68381766,-69
32-4,68385672,-65
32-5,68389578,-27
32-6,68393484,-1
32-7,68397390,-11
32-8,68401296,-34
32-9,68405202,-23
32-10,68409108,6
32-11,68413014,-22
32-12,68416920,-92
32-13,68420826,-96
32-14,68424732,-46
32-15,68428638,-42
32-16,68432544,-64
32-17,68436450,-42
32-18,68440356,11
32-19,68444262,35
32-20,68448168,14
32-21,68452074,-22
32-22,68455980,-34
32-23,68459886,-13
32-24,68463792,-36
32-25,68467698,-103
32-26,68471604,-108
32-27,68475510,-95
32-28,68479416,-125
32-29,68483322,-128
32-30,68487228,-109
32-31,68491134,-72
32-32,68495040,-20
32-1,68498951,-43
32-2,68502857,-75
32-3,68506763,-27
32-4,68510669,-31
32-5,68514575,-120
32-6,68518481,-158
32-7,68522387,-114
32-8,68526293,-55
32-9,68530199,-37
32-10,68534105,-60
32-11,68538011,-48
32-12,68541917,-4
32-13,68545823,-18
32-14,68549729,-87
32-15,68553635,-112
32-16,68557541,-59
32-17,68561447,-46
32-18,68565353,-108
32-19,68569259,-138
32-20,68573165,-101
32-21,68577071,-50
32-22,68580977,-50
32-23,68584883,-105
32-24,68588789,-119
32-25,68592695,-82
32-26,68596601,-79
32-27,68600507,-106
32-28,68604413,-57
32-29,68608319,36
32-30,68612225,12
32-31,68616131,-74
32-32,68620037,-89
32-1,68623980,-50
32-2,68627886,-3
32-3,68631792,-20
32-4,68635698,-81
32-5,68639604,-85
32-6,68643510,-63
32-7,68647416,-62
32-8,68651322,-68
32-9,68655228,-66
32-10,68659134,-46
32-11,68663040,-43
32-12,68666946,-78
32-13,68670852,-95
32-14,68674758,-33
32-15,68678664,2
32-16,68682570,-68
32-17,68686476,-103
32-18,68690382,-49
32-19,68694288,-2
32-20,68698194,-21
32-21,68702100,-72
32-22,68706006,-65
32-23,68709912,-9
32-24,68713818,-19
32-25,68717724,-64
32-26,68721630,-18
32-27,68725536,31
32-28,68729442,-10
32-29,68733348,-46
32-30,68737254,-57
32-31,68741160,-45
32-32,68745066,-29
32-1,68748947,-62
32-2,68752853,-74
32-3,68756759,-24
32-4,68760665,14
32-5,68764571,-26
32-6,68768477,-87
32-7,68772383,-42
32-8,68776289,20
32-9,68780195,-20
32-10,68784101,-60
32-11,68788007,-45
32-12,68791913,-27
32-13,68795819,-33
32-14,68799725,-64
32-15,68803631,-60
32-16,68807537,-4
32-17,68811443,-3
32-18,68815349,-85
32-19,68819255,-143
32-20,68823161,-112
32-21,68827067,-81
32-22,68830973,-99
32-23,68834879,-89
32-24,68838785,-63
32-25,68842691,-47
32-26,68846597,-13
32-27,68850503,-39
32-28,68854409,-69
32-29,68858315,6
32-30,68862221,16
32-31,68866127,-93
32-32,68870033,-115
32-1,68873944,-47
32-2,68877850,-46
32-3,68881756,-111
32-4,68885662,-127
32-5,68889568,-64
32-6,68893474,-10
32-7,68897380,-35
32-8,68901286,-92
32-9,68905192,-87
32-10,68909098,-55
32-11,68913004,-99
32-12,68916910,-171
32-13,68920816,-143
32-14,68924722,-52
32-15,68928628,-37
32-16,68932534,-96
32-17,68936440,-127
32-18,68940346,-76
32-19,68944252,-29
32-20,68948158,-74
32-21,68952064,-88
32-22,68955970,-23
32-23,68959876,-16
32-24,68963782,-71
32-25,68967688,-98
32-26,68971594,-75
32-27,68975500,-40
32-28,68979406,3
32-29,68983312,28
32-30,68987218,8
32-31,68991124,6
32-32,68995030,6
32-1,68998942,-24
32-2,69002848,-16
32-3,69006754,16
32-4,69010660,30
32-5,69014566,14
32-6,69018472,-11
32-7,69022378,20
32-8,69026284,65
32-9,69030190,50
32-10,69034096,-4
32-11,69038002,-41
32-12,69041908,-1
32-13,69045814,43
32-14,69049720,-6
32-15,69053626,-34
32-16,69057532,25
32-17,69061438,46
32-18,69065344,-8
32-19,69069250,-18
32-20,69073156,77
32-21,69077062,154
32-22,69080968,93
32-23,69084874,4
32-24,69088780,14
32-25,69092686,49
32-26,69096592,17
32-27,69100498,-68
32-28,69104404,-62
32-29,69108310,41
32-30,69112216,17
32-31,69116122,-121
32-32,69120028,-154
32-1,69123940,-96
32-2,69127846,-78
32-3,69131752,-114
32-4,69135658,-137
32-5,69139564,-94
32-6,69143470,-40
32-7,69147376,-51
32-8,69151282,-72
32-9,69155188,-40
32-10,69159094,-34
32-11,69163000,-80
32-12,69166906,-122
32-13,69170812,-129
32-14,69174718,-94
32-15,69178624,-72
32-16,69182530,-87
32-17,69186436,-75
32-18,69190342,-23
32-19,69194248,-9
32-20,69198154,-54
32-21,69202060,-55
32-22,69205966,-2
32-23,69209872,4
32-24,69213778,-44
32-25,69217684,-76
32-26,69221590,-42
32-27,69225496,-19
32-28,69229402,-53
32-29,69233308,-61
32-30,69237214,-63
32-31,69241120,-65
32-32,69245026,-64
32-1,69248937,-120
32-2,69252843,-135
32-3,69256749,-64
32-4,69260655,-40
32-5,69264561,-75
32-6,69268467,-82
32-7,69272373,-39
32-8,69276279,-13
32-9,69280185,-40
32-10,69284091,-55
32-11,69287997,-41
32-12,69291903,-39
32-13,69295809,-49
32-14,69299715,-50
32-15,69303621,-46
32-16,69307527,-32
32-17,69311433,-31
32-18,69315339,-58
32-19,69319245,-46
32-20,69323151,18
32-21,69327057,30
32-22,69330963,-36
32-23,69334869,-79
32-24,69338775,-24
32-25,69342681,66
32-26,69346587,67
32-27,69350493,-3
32-28,69354399,24
32-29,69358305,122
32-30,69362211,82
32-31,69366117,-42
32-32,69370023,-55
32-1,69373996,-11
32-2,69377902,-4
32-3,69381808,-17
32-4,69385714,-18
32-5,69389620,-3
32-6,69393526,-3
32-7,69397432,-23
32-8,69401338,-33
32-9,69405244,-34
32-10,69409150,-32
32-11,69413056,-49
32-12,69416962,-103
32-13,69420868,-111
32-14,69424774,-35
32-15,69428680,-6
32-16,69432586,-71
32-17,69436492,-87
32-18,69440398,-3
32-19,69444304,30
32-20,69448210,-28
32-21,69452116,-59
32-22,69456022,-50
32-23,69459928,-40
32-24,69463834,-53
32-25,69467740,-83
32-26,69471646,-81
32-27,69475552,-66
32-28,69479458,-27
32-29,69483364,11
32-30,69487270,-29
32-31,69491176,-42
32-32,69495082,-15
32-1,69498932,-53
32-2,69502838,-53
32-3,69506744,4
32-4,69510650,-4
32-5,69514556,-65
32-6,69518462,-105
32-7,69522368,-95
32-8,69526274,-68
32-9,69530180,-86
32-10,69534086,-129
32-11,69537992,-109
32-12,69541898,-49
32-13,69545804,-51
32-14,69549710,-93
32-15,69553616,-94
32-16,69557522,-33
32-17,69561428,-8
32-18,69565334,-87
32-19,69569240,-121
32-20,69573146,-61
32-21,69577052,-28
32-22,69580958,-46
32-23,69584864,-69
32-24,69588770,-57
32-25,69592676,-26
32-26,69596582,-42
32-27,69600488,-109
32-28,69604394,-103
32-29,69608300,7
32-30,69612206,13
32-31,69616112,-82
32-32,69620018,-69
32-1,69623930,-13
32-2,69627836,-39
32-3,69631742,-89
32-4,69635648,-113
32-5,69639554,-92
32-6,69643460,-36
32-7,69647366,-29
32-8,69651272,-71
32-9,69655178,-48
32-10,69659084,10
32-11,69662990,3
32-12,69666896,-52
32-13,69670802,-64
32-14,69674708,3
32-15,69678614,26
32-16,69682520,-54
32-17,69686426,-86
32-18,69690332,-13
32-19,69694238,33
32-20,69698144,7
32-21,69702050,-15
32-22,69705956,12
32-23,69709862,24
32-24,69713768,-19
32-25,69717674,-35
32-26,69721580,4
32-27,69725486,28
32-28,69729392,31
32-29,69733298,35
32-30,69737204,37
32-31,69741110,51
32-32,69745016,52
32-1,69748928,-1
32-2,69752834,-47
32-3,69756740,-5
32-4,69760646,50
32-5,69764552,-1
32-6,69768458,-54
32-7,69772364,-4
32-8,69776270,44
32-9,69780176,11
32-10,69784082,-21
32-11,69787988,15
32-12,69791894,63
32-13,69795800,48
32-14,69799706,9
32-15,69803612,-5
32-16,69807518,13
32-17,69811424,32
32-18,69815330,-20
32-19,69819236,-84
32-20,69823142,-26
32-21,69827048,63
32-22,69830954,47
32-23,69834860,2
32-24,69838766,21
32-25,69842672,58
32-26,69846578,34
32-27,69850484,-28
32-28,69854390,22
32-29,69858296,160
32-30,69862202,163
32-31,69866108,64
32-32,69870014,62
32-1,69873925,110
32-2,69877831,97
32-3,69881737,35
32-4,69885643,-1
32-5,69889549,20
32-6,69893455,41
32-7,69897361,4
32-8,69901267,-62
32-9,69905173,-71
32-10,69909079,-15
32-11,69912985,10
32-12,69916891,-18
32-13,69920797,-17
32-14,69924703,23
32-15,69928609,15
32-16,69932515,-32
32-17,69936421,-18
32-18,69940327,42
32-19,69944233,46
32-20,69948139,7
32-21,69952045,1
32-22,69955951,28
32-23,69959857,46
32-24,69963763,6
32-25,69967669,-46
32-26,69971575,-4
32-27,69975481,54
32-28,69979387,35
32-29,69983293,-4
32-30,69987199,-36
32-31,69991105,-37
32-32,69995011,-39
32-1,69998923,-78
32-2,70002829,-66
32-3,70006735,-7
32-4,70010641,18
32-5,70014547,10
32-6,70018453,14
32-7,70022359,46
32-8,70026265,33
32-9,70030171,-35
32-10,70034077,-86
32-11,70037983,-83
32-12,70041889,-62
32-13,70045795,-63
32-14,70049701,-73
32-15,70053607,-54
32-16,70057513,-25
32-17,70061419,-30
32-18,70065325,-57
32-19,70069231,-52
32-20,70073137,4
32-21,70077043,56
32-22,70080949,37
32-23,70084855,-4
32-24,70088761,-11
32-25,70092667,-2
32-26,70096573,-18
32-27,70100479,-68
32-28,70104385,-62
32-29,70108291,-10
32-30,70112197,-47
32-31,70116103,-133
32-32,70120009,-139
32-1,70124104,-87
32-2,70128010,-91
32-3,70131916,-161
32-4,70135822,-166
32-5,70139728,-90
32-6,70143634,-54
32-7,70147540,-91
32-8,70151446,-136
32-9,70155352,-120
32-10,70159258,-77
32-11,70163164,-90
32-12,70167070,-101
32-13,70170976,-47
32-14,70174882,-6
32-15,70178788,-27
32-16,70182694,-76
32-17,70186600,-97
32-18,70190506,-71
32-19,70194412,-59
32-20,70198318,-89
32-21,70202224,-102
32-22,70206130,-70
32-23,70210036,-49
32-24,70213942,-92
32-25,70217848,-125
32-26,70221754,-73
32-27,70225660,-33
32-28,70229566,-31
32-29,70233472,-10
32-30,70237378,-12
32-31,70241284,-6
32-32,70245190,-5
32-1,70248918,-91
32-2,70252824,-131
32-3,70256730,-68
32-4,70260636,-45
32-5,70264542,-93
32-6,70268448,-100
32-7,70272354,-25
32-8,70276260,15
32-9,70280166,-39
32-10,70284072,-75
32-11,70287978,-44
32-12,70291884,-9
32-13,70295790,-40
32-14,70299696,-95
32-15,70303602,-73
32-16,70307508,4
32-17,70311414,22
32-18,70315320,-41
32-19,70319226,-78
32-20,70323132,-17
32-21,70327038,31
32-22,70330944,-14
32-23,70334850,-39
32-24,70338756,15
32-25,70342662,38
32-26,70346568,-16
32-27,70350474,-96
32-28,70354380,-90
32-29,70358286,17
32-30,70362192,4
32-31,70366098,-103
32-32,70370004,-68
32-1,70373916,15
32-2,70377822,2
32-3,70381728,-41
32-4,70385634,-51
32-5,70389540,-15
32-6,70393446,12
32-7,70397352,-13
32-8,70401258,-42
32-9,70405164,-24
32-10,70409070,-6
32-11,70412976,-40
32-12,70416882,-50
32-13,70420788,-21
32-14,70424694,-12
32-15,70428600,-11
32-16,70432506,-30
32-17,70436412,-36
32-18,70440318,26
32-19,70444224,49
32-20,70448130,-17
32-21,70452036,-44
32-22,70455942,21
32-23,70459848,76
32-24,70463754,43
32-25,70467660,-10
32-26,70471566,4
32-27,70475472,25
32-28,70479378,22
32-29,70483284,24
32-30,70487190,29
32-31,70491096,54
32-32,70495002,60
32-1,70498914,11
32-2,70502820,-19
32-3,70506726,18
32-4,70510632,72
32-5,70514538,43
32-6,70518444,1
32-7,70522350,77
32-8,70526256,149
32-9,70530162,87
32-10,70534068,-1
32-11,70537974,-3
32-12,70541880,39
32-13,70545786,38
32-14,70549692,-2
32-15,70553598,8
32-16,70557504,69
32-17,70561410,76
32-18,70565316,8
32-19,70569222,-36
32-20,70573128,-2
32-21,70577034,16
32-22,70580940,-30
32-23,70584846,-50
32-24,70588752,-15
32-25,70592658,-14
32-26,70596564,-89
32-27,70600470,-158
32-28,70604376,-112
32-29,70608282,-11
32-30,70612188,-28
32-31,70616094,-119
32-32,70620000,-121
32-1,70623911,-73
32-2,70627817,-77
32-3,70631723,-115
32-4,70635629,-122
32-5,70639535,-61
32-6,70643441,-7
32-7,70647347,-30
32-8,70651253,-57
32-9,70655159,-30
32-10,70659065,7
32-11,70662971,9
32-12,70666877,-7
32-13,70670783,15
32-14,70674689,49
32-15,70678595,12
32-16,70682501,-53
32-17,70686407,-60
32-18,70690313,-33
32-19,70694219,-50
32-20,70698125,-102
32-21,70702031,-106
32-22,70705937,-64
32-23,70709843,-40
32-24,70713749,-35
32-25,70717655,-15
32-26,70721561,13
32-27,70725467,4
32-28,70729373,-11
32-29,70733279,2
32-30,70737185,-35
32-31,70741091,-72
32-32,70744997,-47
32-1,70748878,-77
32-2,70752784,-119
32-3,70756690,-76
32-4,70760596,-50
32-5,70764502,-74
32-6,70768408,-55
32-7,70772314,16
32-8,70776220,37
32-9,70780126,-8
32-10,70784032,-38
32-11,70787938,-29
32-12,70791844,-10
32-13,70795750,-21
32-14,70799656,-65
32-15,70803562,-70
32-16,70807468,-1
32-17,70811374,57
32-18,70815280,20
32-19,70819186,-19
32-20,70823092,20
32-21,70826998,28
32-22,70830904,-43
32-23,70834810,-53
32-24,70838716,35
32-25,70842622,81
32-26,70846528,33
32-27,70850434,-19
32-28,70854340,12
32-29,70858246,78
32-30,70862152,43
32-31,70866058,-44
32-32,70869964,-44
32-1,70874029,4
32-2,70877935,0
32-3,70881841,-64
32-4,70885747,-106
32-5,70889653,-68
32-6,70893559,-10
32-7,70897465,-17
32-8,70901371,-54
32-9,70905277,-22
32-10,70909183,19
32-11,70913089,-14
32-12,70916995,-43
32-13,70920901,-3
32-14,70924807,36
32-15,70928713,6
32-16,70932619,-36
32-17,70936525,-34
32-18,70940431,-9
32-19,70944337,9
32-20,70948243,-24
32-21,70952149,-65
32-22,70956055,-54
32-23,70959961,-58
32-24,70963867,-91
32-25,70967773,-84
32-26,70971679,-40
32-27,70975585,-16
32-28,70979491,-5
32-29,70983397,7
32-30,70987303,-18
32-31,70991209,-40
32-32,70995115,-53
32-1,70998904,-95
32-2,71002810,-82
32-3,71006716,-19
32-4,71010622,-11
32-5,71014528,-27
32-6,71018434,-16
32-7,71022340,38
32-8,71026246,75
32-9,71030152,25
32-10,71034058,-18
32-11,71037964,27
32-12,71041870,95
32-13,71045776,81
32-14,71049682,2
32-15,71053588,-10
32-16,71057494,12
32-17,71061400,-28
32-18,71065306,-76
32-19,71069212,-73
32-20,71073118,-21
32-21,71077024,12
32-22,71080930,-33
32-23,71084836,-65
32-24,71088742,-40
32-25,71092648,-29
32-26,71096554,-50
32-27,71100460,-101
32-28,71104366,-109
32-29,71108272,-36
32-30,71112178,-40
32-31,71116084,-116
32-32,71119990,-111
32-1,71123902,-70
32-2,71127808,-62
32-3,71131714,-71
32-4,71135620,-80
32-5,71139526,-37
32-6,71143432,16
32-7,71147338,-9
32-8,71151244,-50
32-9,71155150,-13
32-10,71159056,29
32-11,71162962,10
32-12,71166868,11
32-13,71170774,76
32-14,71174680,118
32-15,71178586,71
32-16,71182492,-17
32-17,71186398,-54
32-18,71190304,-27
32-19,71194210,-14
32-20,71198116,-66
32-21,71202022,-97
32-22,71205928,-57
32-23,71209834,-25
32-24,71213740,-46
32-25,71217646,-91
32-26,71221552,-85
32-27,71225458,-51
32-28,71229364,-63
32-29,71233270,-64
32-30,71237176,-36
32-31,71241082,-19
32-32,71244988,-30
32-1,71248899,-71
32-2,71252805,-66
32-3,71256711,-35
32-4,71260617,-83
32-5,71264523,-142
32-6,71268429,-142
32-7,71272335,-107
32-8,71276241,-71
32-9,71280147,-90
32-10,71284053,-134
32-11,71287959,-131
32-12,71291865,-97
32-13,71295771,-106
32-14,71299677,-157
32-15,71303583,-135
32-16,71307489,-54
32-17,71311395,-52
32-18,71315301,-89
32-19,71319207,-70
32-20,71323113,-20
32-21,71327019,9
32-22,71330925,-15
32-23,71334831,-33
32-24,71338737,23
32-25,71342643,87
32-26,71346549,65
32-27,71350455,-2
32-28,71354361,11
32-29,71358267,62
32-30,71362173,11
32-31,71366079,-74
32-32,71369985,-73
32-1,71373927,-24
32-2,71377833,-16
32-3,71381739,-73
32-4,71385645,-94
32-5,71389551,-37
32-6,71393457,-18
32-7,71397363,-81
32-8,71401269,-119
32-9,71405175,-67
32-10,71409081,-19
32-11,71412987,-63
32-12,71416893,-129
32-13,71420799,-108
32-14,71424705,-50
32-15,71428611,-86
32-16,71432517,-153
32-17,71436423,-135
32-18,71440329,-102
32-19,71444235,-121
32-20,71448141,-140
32-21,71452047,-98
32-22,71455953,-13
32-23,71459859,3
32-24,71463765,-80
32-25,71467671,-132
32-26,71471577,-92
32-27,71475483,-47
32-28,71479389,-26
32-29,71483295,-6
32-30,71487201,-1
32-31,71491107,9
32-32,71495013,-19
32-1,71498895,-90
32-2,71502801,-74
32-3,71506707,-10
32-4,71510613,-28
32-5,71514519,-85
32-6,71518425,-82
32-7,71522331,-28
32-8,71526237,0
32-9,71530143,-25
32-10,71534049,-69
32-11,71537955,-48
32-12,71541861,7
32-13,71545767,-20
32-14,71549673,-71
32-15,71553579,-35
32-16,71557485,36
32-17,71561391,35
32-18,71565297,-29
32-19,71569203,-22
32-20,71573109,49
32-21,71577015,55
32-22,71580921,-22
32-23,71584827,-64
32-24,71588733,-18
32-25,71592639,5
32-26,71596545,-48
32-27,71600451,-112
32-28,71604357,-71
32-29,71608263,21
32-30,71612169,-33
32-31,71616075,-128
32-32,71619981,-104
32-1,71624045,-64
32-2,71627951,-84
32-3,71631857,-113
32-4,71635763,-81
32-5,71639669,-7
32-6,71643575,19
32-7,71647481,-30
32-8,71651387,-83
32-9,71655293,-50
32-10,71659199,16
32-11,71663105,2
32-12,71667011,-43
32-13,71670917,-23
32-14,71674823,15
32-15,71678729,-22
32-16,71682635,-80
32-17,71686541,-94
32-18,71690447,-90
32-19,71694353,-95
32-20,71698259,-89
32-21,71702165,-61
32-22,71706071,-44
32-23,71709977,-52
32-24,71713883,-84
32-25,71717789,-86
32-26,71721695,-6
32-27,71725601,31
32-28,71729507,4
32-29,71733413,24
32-30,71737319,24
32-31,71741225,-17
32-32,71745131,-44
32-1,71748890,-84
32-2,71752796,-73
32-3,71756702,-13
32-4,71760608,-22
32-5,71764514,-63
32-6,71768420,-60
32-7,71772326,4
32-8,71776232,53
32-9,71780138,9
32-10,71784044,-18
32-11,71787950,33
32-12,71791856,49
32-13,71795762,7
32-14,71799668,-24
32-15,71803574,3
32-16,71807480,60
32-17,71811386,52
32-18,71815292,-20
32-19,71819198,-50
32-20,71823104,-15
32-21,71827010,3
32-22,71830916,-29
32-23,71834822,-43
32-24,71838728,-5
32-25,71842634,20
32-26,71846540,-19
32-27,71850446,-86
32-28,71854352,-84
32-29,71858258,-28
32-30,71862164,-72
32-31,71866070,-162
32-32,71869976,-151
32-1,71873887,-98
32-2,71877793,-70
32-3,71881699,-70
32-4,71885605,-74
32-5,71889511,-23
32-6,71893417,14
32-7,71897323,-33
32-8,71901229,-50
32-9,71905135,16
32-10,71909041,41
32-11,71912947,-4
32-12,71916853,-23
32-13,71920759,12
32-14,71924665,41
32-15,71928571,13
32-16,71932477,-47
32-17,71936383,-61
32-18,71940289,-33
32-19,71944195,-49
32-20,71948101,-105
32-21,71952007,-102
32-22,71955913,-62
32-23,71959819,-79
32-24,71963725,-118
32-25,71967631,-101
32-26,71971537,-44
32-27,71975443,-25
32-28,71979349,-27
32-29,71983255,-2
32-30,71987161,7
32-31,71991067,11
32-32,71994973,36
32-1,71998977,10
32-2,72002883,-18
32-3,72006789,33
32-4,72010695,46
32-5,72014601,-30
32-6,72018507,-62
32-7,72022413,-13
32-8,72026319,0
32-9,72030225,-47
32-10,72034131,-69
32-11,72038037,-27
32-12,72041943,14
32-13,72045849,-14
32-14,72049755,-42
32-15,72053661,-18
32-16,72057567,15
32-17,72061473,18
32-18,72065379,-20
32-19,72069285,-26
32-20,72073191,34
32-21,72077097,48
32-22,72081003,-17
32-23,72084909,-62
32-24,72088815,-31
32-25,72092721,20
32-26,72096627,2
32-27,72100533,-43
32-28,72104439,15
32-29,72108345,100
32-30,72112251,54
32-31,72116157,-12
32-32,72120063,21
32-1,72123883,46
32-2,72127789,-10
32-3,72131695,-74
32-4,72135601,-61
32-5,72139507,-6
32-6,72143413,-1
32-7,72147319,-42
32-8,72151225,-61
32-9,72155131,-23
32-10,72159037,3
32-11,72162943,-41
32-12,72166849,-86
32-13,72170755,-61
32-14,72174661,-11
32-15,72178567,-16
32-16,72182473,-70
32-17,72186379,-86
32-18,72190285,-52
32-19,72194191,-50
32-20,72198097,-96
32-21,72202003,-112
32-22,72205909,-81
32-23,72209815,-73
32-24,72213721,-117
32-25,72217627,-136
32-26,72221533,-76
32-27,72225439,-27
32-28,72229345,-48
32-29,72233251,-48
32-30,72237157,-1
32-31,72241063,29
32-32,72244969,16
32-1,72248880,-40
32-2,72252786,-73
32-3,72256692,-43
32-4,72260598,-28
32-5,72264504,-62
32-6,72268410,-53
32-7,72272316,0
32-8,72276222,-12
32-9,72280128,-59
32-10,72284034,-44
32-11,72287940,6
32-12,72291846,33
32-13,72295752,9
32-14,72299658,-52
32-15,72303564,-62
32-16,72307470,-25
32-17,72311376,-74
32-18,72315282,-167
32-19,72319188,-148
32-20,72323094,-78
32-21,72327000,-73
32-22,72330906,-102
32-23,72334812,-92
32-24,72338718,-33
32-25,72342624,2
32-26,72346530,-23
32-27,72350436,-62
32-28,72354342,-16
32-29,72358248,75
32-30,72362154,28
32-31,72366060,-66
32-32,72369966,-19
32-1,72374031,46
32-2,72377937,32
32-3,72381843,-17
32-4,72385749,-41
32-5,72389655,-7
32-6,72393561,9
32-7,72397467,-18
32-8,72401373,-17
32-9,72405279,5
32-10,72409185,7
32-11,72413091,-28
32-12,72416997,-69
32-13,72420903,-44
32-14,72424809,-14
32-15,72428715,-65
32-16,72432621,-90
32-17,72436527,-52
32-18,72440433,-27
32-19,72444339,-35
32-20,72448245,-66
32-21,72452151,-78
32-22,72456057,-28
32-23,72459963,16
32-24,72463869,-19
32-25,72467775,-45
32-26,72471681,7
32-27,72475587,40
32-28,72479493,24
32-29,72483399,-1
32-30,72487305,-28
32-31,72491211,-31
32-32,72495117,-50
32-1,72498876,-111
32-2,72502782,-118
32-3,72506688,-83
32-4,72510594,-104
32-5,72514500,-157
32-6,72518406,-175
32-7,72522312,-134
32-8,72526218,-99
32-9,72530124,-127
32-10,72534030,-149
32-11,72537936,-85
32-12,72541842,-13
32-13,72545748,-51
32-14,72549654,-113
32-15,72553560,-52
32-16,72557466,51
32-17,72561372,49
32-18,72565278,-37
32-19,72569184,-56
32-20,72573090,3
32-21,72576996,-17
32-22,72580902,-89
32-23,72584808,-88
32-24,72588714,-53
32-25,72592620,-48
32-26,72596526,-59
32-27,72600432,-84
32-28,72604338,-37
32-29,72608244,74
32-30,72612150,24
32-31,72616056,-114
32-32,72619962,-93
32-1,72623995,-19
32-2,72627901,-33
32-3,72631807,-94
32-4,72635713,-110
32-5,72639619,-59
32-6,72643525,-45
32-7,72647431,-82
32-8,72651337,-70
32-9,72655243,0
32-10,72659149,19
32-11,72663055,-34
32-12,72666961,-27
32-13,72670867,23
32-14,72674773,12
32-15,72678679,-30
32-16,72682585,-61
32-17,72686491,-61
32-18,72690397,-22
32-19,72694303,-10
32-20,72698209,-63
32-21,72702115,-103
32-22,72706021,-74
32-23,72709927,-45
32-24,72713833,-78
32-25,72717739,-96
32-26,72721645,-43
32-27,72725551,-14
32-28,72729457,-55
32-29,72733363,-89
32-30,72737269,-73
32-31,72741175,-56
32-32,72745081,-86
32-1,72748871,-132
32-2,72752777,-110
32-3,72756683,-42
32-4,72760589,-28
32-5,72764495,-45
32-6,72768401,-36
32-7,72772307,-33
32-8,72776213,-58
32-9,72780119,-83
32-10,72784025,-75
32-11,72787931,-31
32-12,72791837,-7
32-13,72795743,-35
32-14,72799649,-75
32-15,72803555,-65
32-16,72807461,-30
32-17,72811367,-31
32-18,72815273,-41
32-19,72819179,-25
32-20,72823085,23
32-21,72826991,49
32-22,72830897,-2
32-23,72834803,-19
32-24,72838709,54
32-25,72842615,74
32-26,72846521,1
32-27,72850427,-58
32-28,72854333,-24
32-29,72858239,28
32-30,72862145,-17
32-31,72866051,-73
32-32,72869957,-45
32-1,72873869,-9
32-2,72877775,-15
32-3,72881681,-56
32-4,72885587,-78
32-5,72889493,-19
32-6,72893399,8
32-7,72897305,-35
32-8,72901211,-44
32-9,72905117,-30
32-10,72909023,-19
32-11,72912929,-31
32-12,72916835,-72
32-13,72920741,-57
32-14,72924647,-18
32-15,72928553,-61
32-16,72932459,-110
32-17,72936365,-91
32-18,72940271,-63
32-19,72944177,-86
32-20,72948083,-119
32-21,72951989,-107
32-22,72955895,-79
32-23,72959801,-89
32-24,72963707,-111
32-25,72967613,-105
32-26,72971519,-65
32-27,72975425,-31
32-28,72979331,-4
32-29,72983237,27
32-30,72987143,38
32-31,72991049,29
32-32,72994955,15
32-1,72998866,-9
32-2,73002772,-2
32-3,73006678,47
32-4,73010584,56
32-5,73014490,-4
32-6,73018396,-20
32-7,73022302,56
32-8,73026208,101
32-9,73030114,56
32-10,73034020,12
32-11,73037926,34
32-12,73041832,65
32-13,73045738,33
32-14,73049644,-16
32-15,73053550,-11
32-16,73057456,17
32-17,73061362,10
32-18,73065268,-29
32-19,73069174,-30
32-20,73073080,28
32-21,73076986,39
32-22,73080892,-27
32-23,73084798,-59
32-24,73088704,-39
32-25,73092610,-52
32-26,73096516,-109
32-27,73100422,-152
32-28,73104328,-86
32-29,73108234,14
32-30,73112140,-29
32-31,73116046,-111
32-32,73119952,-74
32-1,73124047,-8
32-2,73127953,1
32-3,73131859,-18
32-4,73135765,-11
32-5,73139671,26
32-6,73143577,37
32-7,73147483,-13
32-8,73151389,-42
32-9,73155295,7
32-10,73159201,28
32-11,73163107,-30
32-12,73167013,-68
32-13,73170919,-32
32-14,73174825,23
32-15,73178731,21
32-16,73182637,-15
32-17,73186543,-6
32-18,73190449,19
32-19,73194355,-16
32-20,73198261,-68
32-21,73202167,-47
32-22,73206073,15
32-23,73209979,36
32-24,73213885,-1
32-25,73217791,-35
32-26,73221697,-6
32-27,73225603,2
32-28,73229509,-28
32-29,73233415,-15
32-30,73237321,0
32-31,73241227,-5
32-32,73245133,-4
32-1,73248984,-23
32-2,73252890,-21
32-3,73256796,10
32-4,73260702,-24
32-5,73264608,-98
32-6,73268514,-88
32-7,73272420,-11
32-8,73276326,6
32-9,73280232,-41
32-10,73284138,-39
32-11,73288044,28
32-12,73291950,62
32-13,73295856,27
32-14,73299762,-1
32-15,73303668,25
32-16,73307574,41
32-17,73311480,2
32-18,73315386,-17
32-19,73319292,13
32-20,73323198,38
32-21,73327104,21
32-22,73331010,-18
32-23,73334916,-17
32-24,73338822,11
32-25,73342728,19
32-26,73346634,4
32-27,73350540,-38
32-28,73354446,-12
32-29,73358352,90
32-30,73362258,63
32-31,73366164,-38
32-32,73370070,-13
32-1,73373859,61
32-2,73377765,52
32-3,73381671,13
32-4,73385577,10
32-5,73389483,29
32-6,73393389,16
32-7,73397295,-36
32-8,73401201,-55
32-9,73405107,-17
32-10,73409013,-15
32-11,73412919,-77
32-12,73416825,-93
32-13,73420731,-17
32-14,73424637,41
32-15,73428543,5
32-16,73432449,-33
32-17,73436355,-6
32-18,73440261,18
32-19,73444167,-21
32-20,73448073,-79
32-21,73451979,-59
32-22,73455885,22
32-23,73459791,18
32-24,73463697,-68
32-25,73467603,-75
32-26,73471509,-3
32-27,73475415,-10
32-28,73479321,-67
32-29,73483227,-66
32-30,73487133,-62
32-31,73491039,-62
32-32,73494945,-64
32-1,73498857,-95
32-2,73502763,-72
32-3,73506669,-19
32-4,73510575,-21
32-5,73514481,-46
32-6,73518387,-30
32-7,73522293,31
32-8,73526199,45
32-9,73530105,-4
32-10,73534011,-11
32-11,73537917,29
32-12,73541823,29
32-13,73545729,-26
32-14,73549635,-45
32-15,73553541,-5
32-16,73557447,8
32-17,73561353,-34
32-18,73565259,-61
32-19,73569165,-34
32-20,73573071,2
32-21,73576977,4
32-22,73580883,-21
32-23,73584789,-12
32-24,73588695,53
32-25,73592601,82
32-26,73596507,36
32-27,73600413,-21
32-28,73604319,-10
32-29,73608225,38
32-30,73612131,-12
32-31,73616037,-116
32-32,73619943,-141
32-1,73623854,-132
32-2,73627760,-152
32-3,73631666,-173
32-4,73635572,-143
32-5,73639478,-79
32-6,73643384,-57
32-7,73647290,-102
32-8,73651196,-136
32-9,73655102,-93
32-10,73659008,-57
32-11,73662914,-109
32-12,73666820,-130
32-13,73670726,-72
32-14,73674632,-68
32-15,73678538,-133
32-16,73682444,-150
32-17,73686350,-133
32-18,73690256,-131
32-19,73694162,-130
32-20,73698068,-118
32-21,73701974,-86
32-22,73705880,-64
32-23,73709786,-64
32-24,73713692,-68
32-25,73717598,-73
32-26,73721504,-64
32-27,73725410,-54
32-28,73729316,-27
32-29,73733222,17
32-30,73737128,20
32-31,73741034,33
32-32,73744940,30
32-1,73748852,-46
32-2,73752758,-70
32-3,73756664,-15
32-4,73760570,-12
32-5,73764476,-69
32-6,73768382,-88
32-7,73772288,-57
32-8,73776194,-48
32-9,73780100,-39
32-10,73784006,-10
32-11,73787912,2
32-12,73791818,16
32-13,73795724,18
32-14,73799630,-17
32-15,73803536,-20
32-16,73807442,14
32-17,73811348,2
32-18,73815254,-42
32-19,73819160,-34
32-20,73823066,18
32-21,73826972,24
32-22,73830878,-14
32-23,73834784,-12
32-24,73838690,24
32-25,73842596,26
32-26,73846502,-11
32-27,73850408,-32
32-28,73854314,10
32-29,73858220,38
32-30,73862126,-32
32-31,73866032,-95
32-32,73869938,-43
32-1,73874246,38
32-2,73878152,30
32-3,73882058,-30
32-4,73885964,-15
32-5,73889870,46
32-6,73893776,37
32-7,73897682,-14
32-8,73901588,-18
32-9,73905494,35
32-10,73909400,65
32-11,73913306,26
32-12,73917212,-30
32-13,73921118,-30
32-14,73925024,10
32-15,73928930,-3
32-16,73932836,-53
32-17,73936742,-37
32-18,73940648,1
32-19,73944554,-28
32-20,73948460,-70
32-21,73952366,-50
32-22,73956272,-17
32-23,73960178,-34
32-24,73964084,-74
32-25,73967990,-55
32-26,73971896,-27
32-27,73975802,-79
32-28,73979708,-124
32-29,73983614,-121
32-30,73987520,-124
32-31,73991426,-124
32-32,73995332,-135
32-1,73998847,-150
32-2,74002753,-134
32-3,74006659,-102
32-4,74010565,-94
32-5,74014471,-132
32-6,74018377,-148
32-7,74022283,-87
32-8,74026189,-25
32-9,74030095,-30
32-10,74034001,-66
32-11,74037907,-64
32-12,74041813,-38
32-13,74045719,-43
32-14,74049625,-67
32-15,74053531,-68
32-16,74057437,-79
32-17,74061343,-121
32-18,74065249,-138
32-19,74069155,-101
32-20,74073061,-56
32-21,74076967,-72
32-22,74080873,-135
32-23,74084779,-141
32-24,74088685,-74
32-25,74092591,-38
32-26,74096497,-61
32-27,74100403,-70
32-28,74104309,14
32-29,74108215,133
32-30,74112121,93
32-31,74116027,-11
32-32,74119933,55
32-1,74123845,139
32-2,74127751,74
32-3,74131657,-7
32-4,74135563,-26
32-5,74139469,-28
32-6,74143375,-50
32-7,74147281,-77
32-8,74151187,-87
32-9,74155093,-72
32-10,74158999,-50
32-11,74162905,-59
32-12,74166811,-76
32-13,74170717,-51
32-14,74174623,-14
32-15,74178529,-36
32-16,74182435,-81
32-17,74186341,-55
32-18,74190247,-8
32-19,74194153,-32
32-20,74198059,-65
32-21,74201965,-44
32-22,74205871,-6
32-23,74209777,-7
32-24,74213683,-65
32-25,74217589,-74
32-26,74221495,-1
32-27,74225401,11
32-28,74229307,-45
32-29,74233213,-44
32-30,74237119,-14
32-31,74241025,-29
32-32,74244931,-67
32-1,74248843,-81
32-2,74252749,-59
32-3,74256655,-29
32-4,74260561,-30
32-5,74264467,-59
32-6,74268373,-66
32-7,74272279,-18
32-8,74276185,-9
32-9,74280091,-76
32-10,74283997,-91
32-11,74287903,-14
32-12,74291809,22
32-13,74295715,-13
32-14,74299621,-18
32-15,74303527,20
32-16,74307433,29
32-17,74311339,-15
32-18,74315245,-68
32-19,74319151,-73
32-20,74323057,-25
32-21,74326963,1
32-22,74330869,-40
32-23,74334775,-60
32-24,74338681,-17
32-25,74342587,-2
32-26,74346493,-36
32-27,74350399,-65
32-28,74354305,-17
32-29,74358211,58
32-30,74362117,32
32-31,74366023,-15
32-32,74369929,13
32-1,74373840,33
32-2,74377746,0
32-3,74381652,-39
32-4,74385558,-40
32-5,74389464,-17
32-6,74393370,-17
32-7,74397276,-33
32-8,74401182,-40
32-9,74405088,-31
32-10,74408994,-23
32-11,74412900,-22
32-12,74416806,-2
32-13,74420712,52
32-14,74424618,81
32-15,74428524,35
32-16,74432430,-17
32-17,74436336,16
32-18,74440242,80
32-19,74444148,60
32-20,74448054,7
32-21,74451960,33
32-22,74455866,88
32-23,74459772,92
32-24,74463678,33
32-25,74467584,-8
32-26,74471490,12
32-27,74475396,-6
32-28,74479302,-38
32-29,74483208,-23
32-30,74487114,-37
32-31,74491020,-66
32-32,74494926,-78
32-1,74498838,-76
32-2,74502744,-21
32-3,74506650,16
32-4,74510556,-17
32-5,74514462,-57
32-6,74518368,-67
32-7,74522274,-41
32-8,74526180,-32
32-9,74530086,-69
32-10,74533992,-60
32-11,74537898,4
32-12,74541804,19
32-13,74545710,-29
32-14,74549616,-32
32-15,74553522,43
32-16,74557428,88
32-17,74561334,37
32-18,74565240,-15
32-19,74569146,13
32-20,74573052,57
32-21,74576958,43
32-22,74580864,24
32-23,74584770,58
32-24,74588676,110
32-25,74592582,118
32-26,74596488,78
32-27,74600394,44
32-28,74604300,59
32-29,74608206,69
32-30,74612112,-2
32-31,74616018,-87
32-32,74619924,-90
32-1,74623988,-56
32-2,74627894,-50
32-3,74631800,-83
32-4,74635706,-95
32-5,74639612,-51
32-6,74643518,-55
32-7,74647424,-123
32-8,74651330,-135
32-9,74655236,-112
32-10,74659142,-136
32-11,74663048,-168
32-12,74666954,-158
32-13,74670860,-100
32-14,74674766,-56
32-15,74678672,-99
32-16,74682578,-133
32-17,74686484,-74
32-18,74690390,-31
32-19,74694296,-63
32-20,74698202,-102
32-21,74702108,-104
32-22,74706014,-62
32-23,74709920,-23
32-24,74713826,-55
32-25,74717732,-75
32-26,74721638,-23
32-27,74725544,-54
32-28,74729450,-125
32-29,74733356,-78
32-30,74737262,-36
32-31,74741168,-50
32-32,74745074,-76
32-1,74748833,-126
32-2,74752739,-115
32-3,74756645,-66
32-4,74760551,-104
32-5,74764457,-177
32-6,74768363,-168
32-7,74772269,-95
32-8,74776175,-87
32-9,74780081,-145
32-10,74783987,-150
32-11,74787893,-102
32-12,74791799,-68
32-13,74795705,-79
32-14,74799611,-97
32-15,74803517,-50
32-16,74807423,-3
32-17,74811329,-35
32-18,74815235,-77
32-19,74819141,-63
32-20,74823047,-24
32-21,74826953,-7
32-22,74830859,-26
32-23,74834765,-42
32-24,74838671,-18
32-25,74842577,22
32-26,74846483,22
32-27,74850389,-7
32-28,74854295,31
32-29,74858201,105
32-30,74862107,45
32-31,74866013,-37
32-32,74869919,35
32-1,74873831,78
32-2,74877737,-2
32-3,74881643,-57
32-4,74885549,-35
32-5,74889455,3
32-6,74893361,-16
32-7,74897267,-67
32-8,74901173,-51
32-9,74905079,13
32-10,74908985,34
32-11,74912891,-9
32-12,74916797,-33
32-13,74920703,11
32-14,74924609,33
32-15,74928515,-27
32-16,74932421,-71
32-17,74936327,-40
32-18,74940233,0
32-19,74944139,4
32-20,74948045,-11
32-21,74951951,-20
32-22,74955857,-27
32-23,74959763,-43
32-24,74963669,-79
32-25,74967575,-102
32-26,74971481,-55
32-27,74975387,-27
32-28,74979293,-66
32-29,74983199,-44
32-30,74987105,19
32-31,74991011,23
32-32,74994917,-33
32-1,74998828,-91
32-2,75002734,-68
32-3,75006640,-34
32-4,75010546,-94
32-5,75014452,-122
32-6,75018358,-48
32-7,75022264,2
32-8,75026170,-13
32-9,75030076,-30
32-10,75033982,-20
32-11,75037888,14
32-12,75041794,21
32-13,75045700,-22
32-14,75049606,-39
32-15,75053512,1
32-16,75057418,23
32-17,75061324,-5
32-18,75065230,-26
32-19,75069136,-12
32-20,75073042,6
32-21,75076948,-21
32-22,75080854,-95
32-23,75084760,-122
32-24,75088666,-101
32-25,75092572,-122
32-26,75096478,-169
32-27,75100384,-192
32-28,75104290,-140
32-29,75108196,-57
32-30,75112102,-97
32-31,75116008,-154
32-32,75119914,-80
32-1,75123826,-20
32-2,75127732,-40
32-3,75131638,-64
32-4,75135544,-55
32-5,75139450,-24
32-6,75143356,-31
32-7,75147262,-45
32-8,75151168,-22
32-9,75155074,-7
32-10,75158980,-19
32-11,75162886,-59
32-12,75166792,-57
32-13,75170698,39
32-14,75174604,64
32-15,75178510,-12
32-16,75182416,-23
32-17,75186322,5
32-18,75190228,-13
32-19,75194134,-47
32-20,75198040,-81
32-21,75201946,-68
32-22,75205852,-24
32-23,75209758,-44
32-24,75213664,-103
32-25,75217570,-101
32-26,75221476,-41
32-27,75225382,-20
32-28,75229288,-30
32-29,75233194,15
32-30,75237100,55
32-31,75241006,41
32-32,75244912,-4
32-1,75248824,-58
32-2,75252730,-61
32-3,75256636,-13
32-4,75260542,-3
32-5,75264448,-49
32-6,75268354,-49
32-7,75272260,20
32-8,75276166,36
32-9,75280072,-20
32-10,75283978,-36
32-11,75287884,22
32-12,75291790,43
32-13,75295696,-28
32-14,75299602,-60
32-15,75303508,-19
32-16,75307414,-15
32-17,75311320,-45
32-18,75315226,-71
32-19,75319132,-63
32-20,75323038,-5
32-21,75326944,-2
32-22,75330850,-68
32-23,75334756,-73
32-24,75338662,-12
32-25,75342568,22
32-26,75346474,6
32-27,75350380,-35
32-28,75354286,-13
32-29,75358192,37
32-30,75362098,-44
32-31,75366004,-152
32-32,75369910,-109
32-1,75374004,-33
32-2,75377910,-45
32-3,75381816,-76
32-4,75385722,-31
32-5,75389628,43
32-6,75393534,23
32-7,75397440,-39
32-8,75401346,-25
32-9,75405252,33
32-10,75409158,44
32-11,75413064,-1
32-12,75416970,-29
32-13,75420876,12
32-14,75424782,46
32-15,75428688,-10
32-16,75432594,-66
32-17,75436500,-17
32-18,75440406,41
32-19,75444312,15
32-20,75448218,-32
32-21,75452124,-18
32-22,75456030,30
32-23,75459936,18
32-24,75463842,-75
32-25,75467748,-109
32-26,75471654,-30
32-27,75475560,-3
32-28,75479466,-18
32-29,75483372,40
32-30,75487278,72
32-31,75491184,55
32-32,75495090,40
32-1,75498819,7
32-2,75502725,6
32-3,75506631,42
32-4,75510537,19
32-5,75514443,-60
32-6,75518349,-74
32-7,75522255,-40
32-8,75526161,-76
32-9,75530067,-107
32-10,75533973,-47
32-11,75537879,49
32-12,75541785,75
32-13,75545691,-2
32-14,75549597,-38
32-15,75553503,20
32-16,75557409,53
32-17,75561315,25
32-18,75565221,-14
32-19,75569127,8
32-20,75573033,60
32-21,75576939,31
32-22,75580845,-25
32-23,75584751,-5
32-24,75588657,41
32-25,75592563,41
32-26,75596469,6
32-27,75600375,-12
32-28,75604281,43
32-29,75608187,118
32-30,75612093,70
32-31,75615999,-26
32-32,75619905,-8
32-1,75623816,39
32-2,75627722,-10
32-3,75631628,-64
32-4,75635534,-30
32-5,75639440,11
32-6,75643346,-24
32-7,75647252,-63
32-8,75651158,-33
32-9,75655064,13
32-10,75658970,-28
32-11,75662876,-102
32-12,75666782,-90
32-13,75670688,-22
32-14,75674594,17
32-15,75678500,-6
32-16,75682406,-14
32-17,75686312,18
32-18,75690218,10
32-19,75694124,-11
32-20,75698030,-20
32-21,75701936,-28
32-22,75705842,-12
32-23,75709748,-14
32-24,75713654,-60
32-25,75717560,-67
32-26,75721466,-13
32-27,75725372,5
32-28,75729278,-18
32-29,75733184,-1
32-30,75737090,21
32-31,75740996,14
32-32,75744902,-23
32-1,75748814,-49
32-2,75752720,-5
32-3,75756626,14
32-4,75760532,-23
32-5,75764438,-18
32-6,75768344,20
32-7,75772250,29
32-8,75776156,37
32-9,75780062,47
32-10,75783968,26
32-11,75787874,35
32-12,75791780,44
32-13,75795686,-22
32-14,75799592,-58
32-15,75803498,-19
32-16,75807404,8
32-17,75811310,-16
32-18,75815216,-52
32-19,75819122,-40
32-20,75823028,-23
32-21,75826934,-60
32-22,75830840,-94
32-23,75834746,-78
32-24,75838652,-45
32-25,75842558,-44
32-26,75846464,-63
32-27,75850370,-75
32-28,75854276,-33
32-29,75858182,40
32-30,75862088,1
32-31,75865994,-83
32-32,75869900,-57
32-1,75873812,-44
32-2,75877718,-98
32-3,75881624,-104
32-4,75885530,-60
32-5,75889436,-27
32-6,75893342,-38
32-7,75897248,-91
32-8,75901154,-113
32-9,75905060,-54
32-10,75908966,-8
32-11,75912872,-21
32-12,75916778,-13
32-13,75920684,26
32-14,75924590,34
32-15,75928496,26
32-16,75932402,49
32-17,75936308,65
32-18,75940214,41
32-19,75944120,32
32-20,75948026,23
32-21,75951932,4
32-22,75955838,15
32-23,75959744,13
32-24,75963650,-18
32-25,75967556,-26
32-26,75971462,-4
32-27,75975368,-9
32-28,75979274,-56
32-29,75983180,-59
32-30,75987086,-43
32-31,75990992,-83
32-32,75994898,-122
32-1,75998809,-128
32-2,76002715,-69
32-3,76006621,25
32-4,76010527,-2
32-5,76014433,-104
32-6,76018339,-108
32-7,76022245,-59
32-8,76026151,-74
32-9,76030057,-121
32-10,76033963,-99
32-11,76037869,-30
32-12,76041775,-23
32-13,76045681,-69
32-14,76049587,-75
32-15,76053493,-39
32-16,76057399,-43
32-17,76061305,-92
32-18,76065211,-115
32-19,76069117,-101
32-20,76073023,-85
32-21,76076929,-98
32-22,76080835,-129
32-23,76084741,-116
32-24,76088647,-77
32-25,76092553,-58
32-26,76096459,-36
32-27,76100365,-8
32-28,76104271,45
32-29,76108177,72
32-30,76112083,-23
32-31,76115989,-129
32-32,76119895,-120
32-1,76123990,-93
32-2,76127896,-126
32-3,76131802,-153
32-4,76135708,-105
32-5,76139614,-38
32-6,76143520,-36
32-7,76147426,-75
32-8,76151332,-65
32-9,76155238,7
32-10,76159144,21
32-11,76163050,-40
32-12,76166956,-40
32-13,76170862,15
32-14,76174768,7
32-15,76178674,-50
32-16,76182580,-55
32-17,76186486,-21
32-18,76190392,-25
32-19,76194298,-60
32-20,76198204,-83
32-21,76202110,-70
32-22,76206016,-45
32-23,76209922,-57
32-24,76213828,-100
32-25,76217734,-110
32-26,76221640,-65
32-27,76225546,-74
32-28,76229452,-135
32-29,76233358,-85
32-30,76237264,-11
32-31,76241170,-44
32-32,76245076,-95
32-1,76248805,-113
32-2,76252711,-62
32-3,76256617,6
32-4,76260523,-20
32-5,76264429,-70
32-6,76268335,-41
32-7,76272241,10
32-8,76276147,-12
32-9,76280053,-87
32-10,76283959,-126
32-11,76287865,-113
32-12,76291771,-93
32-13,76295677,-87
32-14,76299583,-70
32-15,76303489,9
32-16,76307395,101
32-17,76311301,101
32-18,76315207,75
32-19,76319113,119
32-20,76323019,148
32-21,76326925,100
32-22,76330831,39
32-23,76334737,67
32-24,76338643,148
32-25,76342549,136
32-26,76346455,65
32-27,76350361,55
32-28,76354267,121
32-29,76358173,162
32-30,76362079,64
32-31,76365985,-24
32-32,76369891,16
32-1,76373802,15
32-2,76377708,-57
32-3,76381614,-89
32-4,76385520,-34
32-5,76389426,40
32-6,76393332,7
32-7,76397238,-31
32-8,76401144,45
32-9,76405050,114
32-10,76408956,84
32-11,76412862,23
32-12,76416768,32
32-13,76420674,93
32-14,76424580,106
32-15,76428486,65
32-16,76432392,31
32-17,76436298,31
32-18,76440204,48
32-19,76444110,21
32-20,76448016,-37
32-21,76451922,-14
32-22,76455828,67
32-23,76459734,53
32-24,76463640,-24
32-25,76467546,-3
32-26,76471452,52
32-27,76475358,7
32-28,76479264,-23
32-29,76483170,31
32-30,76487076,65
32-31,76490982,52
32-32,76494888,-10
32-1,76498800,-80
32-2,76502706,-72
32-3,76506612,-70
32-4,76510518,-123
32-5,76514424,-122
32-6,76518330,-44
32-7,76522236,4
32-8,76526142,-51
32-9,76530048,-135
32-10,76533954,-156
32-11,76537860,-136
32-12,76541766,-110
32-13,76545672,-110
32-14,76549578,-119
32-15,76553484,-79
32-16,76557390,-49
32-17,76561296,-110
32-18,76565202,-177
32-19,76569108,-186
32-20,76573014,-205
32-21,76576920,-245
32-22,76580826,-291
32-23,76584732,-360
32-24,76588638,-426
32-25,76592544,-495
32-26,76596450,-605
32-27,76600356,-692
32-28,76604262,-690
32-29,76608168,-721
32-30,76612074,-889
32-31,76615980,-1021
32-32,76619886,-1032
32-1,76623798,-1075
32-2,76627704,-1187
32-3,76631610,-1259
32-4,76635516,-1270
32-5,76639422,-1280
32-6,76643328,-1308
32-7,76647234,-1352
32-8,76651140,-1395
32-9,76655046,-1427
32-10,76658952,-1534
32-11,76662858,-1675
32-12,76666764,-1690
32-13,76670670,-1653
32-14,76674576,-1753
32-15,76678482,-1906
32-16,76682388,-1895
32-17,76686294,-1809
32-18,76690200,-1854
32-19,76694106,-1960
32-20,76698012,-1953
32-21,76701918,-1857
32-22,76705824,-1840
32-23,76709730,-1921
32-24,76713636,-1954
32-25,76717542,-1876
32-26,76721448,-1800
32-27,76725354,-1863
32-28,76729260,-1922
32-29,76733166,-1812
32-30,76737072,-1704
32-31,76740978,-1740
32-32,76744884,-1812
32-1,76748795,-1791
32-2,76752701,-1675
32-3,76756607,-1596
32-4,76760513,-1608
32-5,76764419,-1589
32-6,76768325,-1476
32-7,76772231,-1400
32-8,76776137,-1452
32-9,76780043,-1466
32-10,76783949,-1322
32-11,76787855,-1174
32-12,76791761,-1156
32-13,76795667,-1166
32-14,76799573,-1069
32-15,76803479,-963
32-16,76807385,-984
32-17,76811291,-1013
32-18,76815197,-928
32-19,76819103,-819
32-20,76823009,-807
32-21,76826915,-865
32-22,76830821,-870
32-23,76834727,-787
32-24,76838633,-735
32-25,76842539,-788
32-26,76846445,-829
32-27,76850351,-767
32-28,76854257,-679
32-29,76858163,-665
32-30,76862069,-714
32-31,76865975,-673
32-32,76869881,-539
32-1,76874037,-517
32-2,76877943,-565
32-3,76881849,-483
32-4,76885755,-343
32-5,76889661,-284
32-6,76893567,-257
32-7,76897473,-218
32-8,76901379,-163
32-9,76905285,-78
32-10,76909191,-42
32-11,76913097,-64
32-12,76917003,-21
32-13,76920909,44
32-14,76924815,44
32-15,76928721,43
32-16,76932627,86
32-17,76936533,146
32-18,76940439,169
32-19,76944345,144
32-20,76948251,143
32-21,76952157,187
32-22,76956063,218
32-23,76959969,206
32-24,76963875,201
32-25,76967781,247
32-26,76971687,284
32-27,76975593,243
32-28,76979499,201
32-29,76983405,255
32-30,76987311,315
32-31,76991217,314
32-32,76995123,303
32-1,76998790,303
32-2,77002696,353
32-3,77006602,415
32-4,77010508,365
32-5,77014414,290
32-6,77018320,333
32-7,77022226,406
32-8,77026132,378
32-9,77030038,321
32-10,77033944,344
32-11,77037850,404
32-12,77041756,395
32-13,77045662,310
32-14,77049568,289
32-15,77053474,359
32-16,77057380,365
32-17,77061286,314
32-18,77065192,321
32-19,77069098,369
32-20,77073004,389
32-21,77076910,363
32-22,77080816,325
32-23,77084722,315
32-24,77088628,328
32-25,77092534,329
32-26,77096440,316
32-27,77100346,312
32-28,77104252,341
32-29,77108158,375
32-30,77112064,322
32-31,77115970,264
32-32,77119876,291
32-1,77123788,297
32-2,77127694,275
32-3,77131600,256
32-4,77135506,225
32-5,77139412,217
32-6,77143318,200
32-7,77147224,173
32-8,77151130,188
32-9,77155036,192
32-10,77158942,164
32-11,77162848,162
32-12,77166754,192
32-13,77170660,220
32-14,77174566,228
32-15,77178472,221
32-16,77182378,237
32-17,77186284,291
32-18,77190190,333
32-19,77194096,318
32-20,77198002,319
32-21,77201908,377
32-22,77205814,397
32-23,77209720,348
32-24,77213626,313
32-25,77217532,346
32-26,77221438,392
32-27,77225344,342
32-28,77229250,288
32-29,77233156,325
32-30,77237062,324
32-31,77240968,263
32-32,77244874,227
32-1,77248786,215
32-2,77252692,254
32-3,77256598,302
32-4,77260504,273
32-5,77264410,229
32-6,77268316,245
32-7,77272222,265
32-8,77276128,247
32-9,77280034,248
32-10,77283940,301
32-11,77287846,348
32-12,77291752,349
32-13,77295658,321
32-14,77299564,312
32-15,77303470,342
32-16,77307376,345
32-17,77311282,300
32-18,77315188,277
32-19,77319094,293
32-20,77323000,319
32-21,77326906,288
32-22,77330812,223
32-23,77334718,238
32-24,77338624,283
32-25,77342530,246
32-26,77346436,186
32-27,77350342,201
32-28,77354248,297
32-29,77358154,316
32-30,77362060,205
32-31,77365966,184
32-32,77369872,280
32-1,77373783,281
32-2,77377689,201
32-3,77381595,179
32-4,77385501,206
32-5,77389407,219
32-6,77393313,188
32-7,77397219,144
32-8,77401125,158
32-9,77405031,205
32-10,77408937,185
32-11,77412843,132
32-12,77416749,137
32-13,77420655,156
32-14,77424561,117
32-15,77428467,66
32-16,77432373,71
32-17,77436279,123
32-18,77440185,155
32-19,77444091,121
32-20,77447997,99
32-21,77451903,155
32-22,77455809,199
32-23,77459715,178
32-24,77463621,164
32-25,77467527,210
32-26,77471433,255
32-27,77475339,200
32-28,77479245,154
32-29,77483151,219
32-30,77487057,218
32-31,77490963,122
32-32,77494869,95
32-1,77498811,121
32-2,77502717,133
32-3,77506623,125
32-4,77510529,72
32-5,77514435,42
32-6,77518341,92
32-7,77522247,112
32-8,77526153,37
32-9,77530059,-3
32-10,77533965,44
32-11,77537871,61
32-12,77541777,9
32-13,77545683,-21
32-14,77549589,23
32-15,77553495,86
32-16,77557401,103
32-17,77561307,90
32-18,77565213,104
32-19,77569119,128
32-20,77573025,114
32-21,77576931,60
32-22,77580837,34
32-23,77584743,79
32-24,77588649,104
32-25,77592555,43
32-26,77596461,-5
32-27,77600367,42
32-28,77604273,139
32-29,77608179,169
32-30,77612085,107
32-31,77615991,106
32-32,77619897,196
32-1,77623779,227
32-2,77627685,192
32-3,77631591,210
32-4,77635497,286
32-5,77639403,291
32-6,77643309,202
32-7,77647215,182
32-8,77651121,268
32-9,77655027,314
32-10,77658933,269
32-11,77662839,238
32-12,77666745,301
32-13,77670651,381
32-14,77674557,346
32-15,77678463,268
32-16,77682369,293
32-17,77686275,356
32-18,77690181,318
32-19,77694087,218
32-20,77697993,205
32-21,77701899,279
32-22,77705805,287
32-23,77709711,227
32-24,77713617,206
32-25,77717523,255
32-26,77721429,308
32-27,77725335,260
32-28,77729241,219
32-29,77733147,301
32-30,77737053,348
32-31,77740959,267
32-32,77744865,180
32-1,77748776,191
32-2,77752682,280
32-3,77756588,303
32-4,77760494,225
32-5,77764400,229
32-6,77768306,320
32-7,77772212,322
32-8,77776118,223
32-9,77780024,169
32-10,77783930,231
32-11,77787836,298
32-12,77791742,217
32-13,77795648,101
32-14,77799554,136
32-15,77803460,219
32-16,77807366,184
32-17,77811272,89
32-18,77815178,77
32-19,77819084,140
32-20,77822990,145
32-21,77826896,101
32-22,77830802,115
32-23,77834708,179
32-24,77838614,193
32-25,77842520,105
32-26,77846426,23
32-27,77850332,45
32-28,77854238,131
32-29,77858144,169
32-30,77862050,88
32-31,77865956,51
32-32,77869862,142
32-1,77873774,136
32-2,77877680,23
32-3,77881586,19
32-4,77885492,105
32-5,77889398,115
32-6,77893304,31
32-7,77897210,3
32-8,77901116,79
32-9,77905022,125
32-10,77908928,84
32-11,77912834,73
32-12,77916740,159
32-13,77920646,255
32-14,77924552,260
32-15,77928458,214
32-16,77932364,249
32-17,77936270,360
32-18,77940176,411
32-19,77944082,353
32-20,77947988,290
32-21,77951894,336
32-22,77955800,408
32-23,77959706,373
32-24,77963612,295
32-25,77967518,342
32-26,77971424,446
32-27,77975330,378
32-28,77979236,243
32-29,77983142,292
32-30,77987048,394
32-31,77990954,339
32-32,77994860,207
32-1,77998771,189
32-2,78002677,311
32-3,78006583,379
32-4,78010489,262
32-5,78014395,155
32-6,78018301,254
32-7,78022207,374
32-8,78026113,319
32-9,78030019,269
32-10,78033925,356
32-11,78037831,461
32-12,78041737,440
32-13,78045643,328
32-14,78049549,357
32-15,78053455,538
32-16,78057361,584
32-17,78061267,464
32-18,78065173,431
32-19,78069079,561
32-20,78072985,648
32-21,78076891,528
32-22,78080797,430
32-23,78084703,588
32-24,78088609,755
32-25,78092515,652
32-26,78096421,493
32-27,78100327,556
32-28,78104233,730
32-29,78108139,751
32-30,78112045,566
32-31,78115951,447
32-32,78119857,511
32-1,78123861,477
32-2,78127767,305
32-3,78131673,252
32-4,78135579,344
32-5,78139485,397
32-6,78143391,279
32-7,78147297,120
32-8,78151203,143
32-9,78155109,260
32-10,78159015,204
32-11,78162921,67
32-12,78166827,155
32-13,78170733,385
32-14,78174639,408
32-15,78178545,214
32-16,78182451,159
32-17,78186357,360
32-18,78190263,466
32-19,78194169,278
32-20,78198075,148
32-21,78201981,323
32-22,78205887,462
32-23,78209793,290
32-24,78213699,82
32-25,78217605,180
32-26,78221511,405
32-27,78225417,327
32-28,78229323,97
32-29,78233229,184
32-30,78237135,456
32-31,78241041,475
32-32,78244947,273
32-1,78248767,265
32-2,78252673,529
32-3,78256579,606
32-4,78260485,353
32-5,78264391,218
32-6,78268297,412
32-7,78272203,596
32-8,78276109,462
32-9,78280015,252
32-10,78283921,342
32-11,78287827,533
32-12,78291733,436
32-13,78295639,199
32-14,78299545,229
32-15,78303451,482
32-16,78307357,534
32-17,78311263,302
32-18,78315169,223
32-19,78319075,475
32-20,78322981,590
32-21,78326887,307
32-22,78330793,68
32-23,78334699,225
32-24,78338605,432
32-25,78342511,288
32-26,78346417,46
32-27,78350323,122
32-28,78354229,391
32-29,78358135,368
32-30,78362041,24
32-31,78365947,-68
32-32,78369853,180
32-1,78373734,210
32-2,78377640,-81
32-3,78381546,-201
32-4,78385452,57
32-5,78389358,221
32-6,78393264,-25
32-7,78397170,-220
32-8,78401076,18
32-9,78404982,306
32-10,78408888,162
32-11,78412794,-146
32-12,78416700,-98
32-13,78420606,135
32-14,78424512,49
32-15,78428418,-283
32-16,78432324,-356
32-17,78436230,-118
32-18,78440136,-61
32-19,78444042,-327
32-20,78447948,-474
32-21,78451854,-285
32-22,78455760,-141
32-23,78459666,-324
32-24,78463572,-516
32-25,78467478,-375
32-26,78471384,-159
32-27,78475290,-265
32-28,78479196,-484
32-29,78483102,-401
32-30,78487008,-197
32-31,78490914,-275
32-32,78494820,-519
32-1,78498762,-542
32-2,78502668,-341
32-3,78506574,-297
32-4,78510480,-494
32-5,78514386,-591
32-6,78518292,-449
32-7,78522198,-323
32-8,78526104,-450
32-9,78530010,-634
32-10,78533916,-576
32-11,78537822,-442
32-12,78541728,-530
32-13,78545634,-694
32-14,78549540,-666
32-15,78553446,-538
32-16,78557352,-553
32-17,78561258,-693
32-18,78565164,-734
32-19,78569070,-637
32-20,78572976,-601
32-21,78576882,-702
32-22,78580788,-777
32-23,78584694,-670
32-24,78588600,-542
32-25,78592506,-623
32-26,78596412,-745
32-27,78600318,-696
32-28,78604224,-565
32-29,78608130,-530
32-30,78612036,-643
32-31,78615942,-678
32-32,78619848,-524
32-1,78623760,-483
32-2,78627666,-648
32-3,78631572,-713
32-4,78635478,-551
32-5,78639384,-444
32-6,78643290,-573
32-7,78647196,-671
32-8,78651102,-526
32-9,78655008,-363
32-10,78658914,-436
32-11,78662820,-584
32-12,78666726,-504
32-13,78670632,-308
32-14,78674538,-328
32-15,78678444,-469
32-16,78682350,-404
32-17,78686256,-216
32-18,78690162,-192
32-19,78694068,-327
32-20,78697974,-381
32-21,78701880,-233
32-22,78705786,-120
32-23,78709692,-244
32-24,78713598,-368
32-25,78717504,-288
32-26,78721410,-194
32-27,78725316,-305
32-28,78729222,-461
32-29,78733128,-382
32-30,78737034,-208
32-31,78740940,-242
32-32,78744846,-405
32-1,78748879,-428
32-2,78752785,-292
32-3,78756691,-239
32-4,78760597,-369
32-5,78764503,-451
32-6,78768409,-350
32-7,78772315,-263
32-8,78776221,-345
32-9,78780127,-437
32-10,78784033,-354
32-11,78787939,-218
32-12,78791845,-260
32-13,78795751,-390
32-14,78799657,-372
32-15,78803563,-242
32-16,78807469,-209
32-17,78811375,-316
32-18,78815281,-393
32-19,78819187,-324
32-20,78823093,-273
32-21,78826999,-379
32-22,78830905,-443
32-23,78834811,-320
32-24,78838717,-205
32-25,78842623,-254
32-26,78846529,-341
32-27,78850435,-316
32-28,78854341,-214
32-29,78858247,-189
32-30,78862153,-290
32-31,78866059,-289
32-32,78869965,-153
32-1,78873755,-165
32-2,78877661,-305
32-3,78881567,-321
32-4,78885473,-234
32-5,78889379,-234
32-6,78893285,-359
32-7,78897191,-429
32-8,78901097,-350
32-9,78905003,-288
32-10,78908909,-384
32-11,78912815,-500
32-12,78916721,-457
32-13,78920627,-383
32-14,78924533,-457
32-15,78928439,-551
32-16,78932345,-504
32-17,78936251,-402
32-18,78940157,-415
32-19,78944063,-523
32-20,78947969,-534
32-21,78951875,-429
32-22,78955781,-404
32-23,78959687,-507
32-24,78963593,-550
32-25,78967499,-428
32-26,78971405,-323
32-27,78975311,-388
32-28,78979217,-407
32-29,78983123,-235
32-30,78987029,-142
32-31,78990935,-233
32-32,78994841,-288
32-1,78998753,-221
32-2,79002659,-125
32-3,79006565,-95
32-4,79010471,-123
32-5,79014377,-114
32-6,79018283,-47
32-7,79022189,-4
32-8,79026095,-48
32-9,79030001,-88
32-10,79033907,-14
32-11,79037813,64
32-12,79041719,9
32-13,79045625,-66
32-14,79049531,-21
32-15,79053437,48
32-16,79057343,23
32-17,79061249,-34
32-18,79065155,-18
32-19,79069061,70
32-20,79072967,108
32-21,79076873,37
32-22,79080779,-8
32-23,79084685,75
32-24,79088591,167
32-25,79092497,133
32-26,79096403,67
32-27,79100309,129
32-28,79104215,267
32-29,79108121,303
32-30,79112027,230
32-31,79115933,241
32-32,79119839,361
32-1,79123750,383
32-2,79127656,290
32-3,79131562,262
32-4,79135468,339
32-5,79139374,371
32-6,79143280,264
32-7,79147186,174
32-8,79151092,271
32-9,79154998,372
32-10,79158904,274
32-11,79162810,165
32-12,79166716,247
32-13,79170622,369
32-14,79174528,328
32-15,79178434,214
32-16,79182340,255
32-17,79186246,394
32-18,79190152,410
32-19,79194058,318
32-20,79197964,275
32-21,79201870,325
32-22,79205776,355
32-23,79209682,273
32-24,79213588,198
32-25,79217494,269
32-26,79221400,341
32-27,79225306,242
32-28,79229212,157
32-29,79233118,231
32-30,79237024,283
32-31,79240930,211
32-32,79244836,96
32-1,79248748,92
32-2,79252654,249
32-3,79256560,311
32-4,79260466,161
32-5,79264372,76
32-6,79268278,220
32-7,79272184,364
32-8,79276090,257
32-9,79279996,109
32-10,79283902,248
32-11,79287808,451
32-12,79291714,366
32-13,79295620,192
32-14,79299526,266
32-15,79303432,455
32-16,79307338,421
32-17,79311244,197
32-18,79315150,142
32-19,79319056,321
32-20,79322962,383
32-21,79326868,181
32-22,79330774,41
32-23,79334680,189
32-24,79338586,331
32-25,79342492,193
32-26,79346398,57
32-27,79350304,148
32-28,79354210,285
32-29,79358116,286
32-30,79362022,159
32-31,79365928,97
32-32,79369834,179
32-1,79373867,165
32-2,79377773,11
32-3,79381679,-12
32-4,79385585,129
32-5,79389491,164
32-6,79393397,20
32-7,79397303,-71
32-8,79401209,-1
32-9,79405115,76
32-10,79409021,39
32-11,79412927,-11
32-12,79416833,64
32-13,79420739,173
32-14,79424645,148
32-15,79428551,24
32-16,79432457,3
32-17,79436363,101
32-18,79440269,100
32-19,79444175,-24
32-20,79448081,-24
32-21,79451987,138
32-22,79455893,207
32-23,79459799,98
32-24,79463705,9
32-25,79467611,106
32-26,79471517,233
32-27,79475423,125
32-28,79479329,-5
32-29,79483235,101
32-30,79487141,177
32-31,79491047,77
32-32,79494953,-24
32-1,79498743,-42
32-2,79502649,8
32-3,79506555,-2
32-4,79510461,-132
32-5,79514367,-185
32-6,79518273,-71
32-7,79522179,1
32-8,79526085,-107
32-9,79529991,-204
32-10,79533897,-87
32-11,79537803,79
32-12,79541709,27
32-13,79545615,-107
32-14,79549521,-34
32-15,79553427,134
32-16,79557333,110
32-17,79561239,-55
32-18,79565145,-79
32-19,79569051,67
32-20,79572957,106
32-21,79576863,-34
32-22,79580769,-93
32-23,79584675,38
32-24,79588581,129
32-25,79592487,32
32-26,79596393,-62
32-27,79600299,12
32-28,79604205,137
32-29,79608111,92
32-30,79612017,-112
32-31,79615923,-132
32-32,79619829,81
32-1,79623741,83
32-2,79627647,-197
32-3,79631553,-263
32-4,79635459,38
32-5,79639365,189
32-6,79643271,-83
32-7,79647177,-260
32-8,79651083,-3
32-9,79654989,204
32-10,79658895,-11
32-11,79662801,-235
32-12,79666707,-63
32-13,79670613,195
32-14,79674519,110
32-15,79678425,-112
32-16,79682331,-53
32-17,79686237,146
32-18,79690143,89
32-19,79694049,-120
32-20,79697955,-139
32-21,79701861,19
32-22,79705767,81
32-23,79709673,-45
32-24,79713579,-141
32-25,79717485,-47
32-26,79721391,49
32-27,79725297,-60
32-28,79729203,-201
32-29,79733109,-114
32-30,79737015,41
32-31,79740921,-7
32-32,79744827,-160
32-1,79748738,-152
32-2,79752644,17
32-3,79756550,52
32-4,79760456,-111
32-5,79764362,-196
32-6,79768268,-97
32-7,79772174,-28
32-8,79776080,-139
32-9,79779986,-239
32-10,79783892,-164
32-11,79787798,-79
32-12,79791704,-160
32-13,79795610,-290
32-14,79799516,-266
32-15,79803422,-155
32-16,79807328,-170
32-17,79811234,-265
32-18,79815140,-252
32-19,79819046,-147
32-20,79822952,-135
32-21,79826858,-244
32-22,79830764,-279
32-23,79834670,-176
32-24,79838576,-119
32-25,79842482,-194
32-26,79846388,-255
32-27,79850294,-201
32-28,79854200,-115
32-29,79858106,-132
32-30,79862012,-233
32-31,79865918,-244
32-32,79869824,-171
32-1,79873766,-164
32-2,79877672,-213
32-3,79881578,-176
32-4,79885484,-48
32-5,79889390,-7
32-6,79893296,-103
32-7,79897202,-130
32-8,79901108,-42
32-9,79905014,-8
32-10,79908920,-75
32-11,79912826,-128
32-12,79916732,-91
32-13,79920638,-35
32-14,79924544,-85
32-15,79928450,-194
32-16,79932356,-192
32-17,79936262,-108
32-18,79940168,-112
32-19,79944074,-190
32-20,79947980,-187
32-21,79951886,-99
32-22,79955792,-77
32-23,79959698,-146
32-24,79963604,-175
32-25,79967510,-108
32-26,79971416,-27
32-27,79975322,-55
32-28,79979228,-102
32-29,79983134,-30
32-30,79987040,9
32-31,79990946,-61
32-32,79994852,-95
32-1,79998734,-60
32-2,80002640,-4
32-3,80006546,16
32-4,80010452,-23
32-5,80014358,-39
32-6,80018264,2
32-7,80022170,1
32-8,80026076,-83
32-9,80029982,-127
32-10,80033888,-70
32-11,80037794,-21
32-12,80041700,-70
32-13,80045606,-131
32-14,80049512,-79
32-15,80053418,14
32-16,80057324,-4
32-17,80061230,-83
32-18,80065136,-75
32-19,80069042,2
32-20,80072948,34
32-21,80076854,-10
32-22,80080760,-23
32-23,80084666,76
32-24,80088572,137
32-25,80092478,61
32-26,80096384,16
32-27,80100290,72
32-28,80104196,144
32-29,80108102,166
32-30,80112008,111
32-31,80115914,87
32-32,80119820,141
32-1,80123731,141
32-2,80127637,93
32-3,80131543,102
32-4,80135449,130
32-5,80139355,124
32-6,80143261,93
32-7,80147167,74
32-8,80151073,97
32-9,80154979,97
32-10,80158885,47
32-11,80162791,48
32-12,80166697,98
32-13,80170603,116
32-14,80174509,99
32-15,80178415,85
32-16,80182321,106
32-17,80186227,132
32-18,80190133,136
32-19,80194039,139
32-20,80197945,151
32-21,80201851,175
32-22,80205757,178
32-23,80209663,167
32-24,80213569,198
32-25,80217475,240
32-26,80221381,239
32-27,80225287,187
32-28,80229193,173
32-29,80233099,238
32-30,80237005,226
32-31,80240911,155
32-32,80244817,166
32-1,80248729,191
32-2,80252635,187
32-3,80256541,188
32-4,80260447,189
32-5,80264353,210
32-6,80268259,227
32-7,80272165,201
32-8,80276071,178
32-9,80279977,190
32-10,80283883,199
32-11,80287789,176
32-12,80291695,145
32-13,80295601,109
32-14,80299507,108
32-15,80303413,141
32-16,80307319,109
32-17,80311225,42
32-18,80315131,62
32-19,80319037,118
32-20,80322943,96
32-21,80326849,33
32-22,80330755,24
32-23,80334661,72
32-24,80338567,92
32-25,80342473,61
32-26,80346379,55
32-27,80350285,91
32-28,80354191,155
32-29,80358097,177
32-30,80362003,107
32-31,80365909,89
32-32,80369815,140
32-1,80373726,109
32-2,80377632,50
32-3,80381538,87
32-4,80385444,171
32-5,80389350,187
32-6,80393256,134
32-7,80397162,125
32-8,80401068,174
32-9,80404974,188
32-10,80408880,126
32-11,80412786,65
32-12,80416692,94
32-13,80420598,140
32-14,80424504,90
32-15,80428410,42
32-16,80432316,100
32-17,80436222,166
32-18,80440128,163
32-19,80444034,126
32-20,80447940,132
32-21,80451846,202
32-22,80455752,229
32-23,80459658,179
32-24,80463564,153
32-25,80467470,191
32-26,80471376,225
32-27,80475282,171
32-28,80479188,128
32-29,80483094,199
32-30,80487000,244
32-31,80490906,178
32-32,80494812,124
32-1,80498724,154
32-2,80502630,214
32-3,80506536,214
32-4,80510442,154
32-5,80514348,145
32-6,80518254,232
32-7,80522160,278
32-8,80526066,184
32-9,80529972,103
32-10,80533878,147
32-11,80537784,194
32-12,80541690,163
32-13,80545596,120
32-14,80549502,139
32-15,80553408,199
32-16,80557314,194
32-17,80561220,131
32-18,80565126,135
32-19,80569032,202
32-20,80572938,235
32-21,80576844,211
32-22,80580750,182
32-23,80584656,211
32-24,80588562,238
32-25,80592468,193
32-26,80596374,162
32-27,80600280,205
32-28,80604186,272
32-29,80608092,269
32-30,80611998,177
32-31,80615904,142
32-32,80619810,177
32-1,80623752,149
32-2,80627658,87
32-3,80631564,87
32-4,80635470,154
32-5,80639376,177
32-6,80643282,89
32-7,80647188,27
32-8,80651094,65
32-9,80655000,94
32-10,80658906,63
32-11,80662812,32
32-12,80666718,66
32-13,80670624,100
32-14,80674530,56
32-15,80678436,3
32-16,80682342,22
32-17,80686248,78
32-18,80690154,95
32-19,80694060,69
32-20,80697966,77
32-21,80701872,117
32-22,80705778,111
32-23,80709684,66
32-24,80713590,50
32-25,80717496,63
32-26,80721402,65
32-27,80725308,36
32-28,80729214,55
32-29,80733120,124
32-30,80737026,85
32-31,80740932,-4
32-32,80744838,3
32-1,80748719,9
32-2,80752625,-25
32-3,80756531,-15
32-4,80760437,23
32-5,80764343,46
32-6,80768249,67
32-7,80772155,81
32-8,80776061,55
32-9,80779967,50
32-10,80783873,102
32-11,80787779,115
32-12,80791685,50
32-13,80795591,13
32-14,80799497,48
32-15,80803403,72
32-16,80807309,29
32-17,80811215,-20
32-18,80815121,-15
32-19,80819027,12
32-20,80822933,6
32-21,80826839,-30
32-22,80830745,-24
32-23,80834651,32
32-24,80838557,32
32-25,80842463,-21
32-26,80846369,-34
32-27,80850275,-29
32-28,80854181,-2
32-29,80858087,46
32-30,80861993,16
32-31,80865899,-23
32-32,80869805,-6
32-1,80873717,-24
32-2,80877623,-42
32-3,80881529,-21
32-4,80885435,-7
32-5,80889341,-9
32-6,80893247,-50
32-7,80897153,-72
32-8,80901059,-22
32-9,80904965,3
32-10,80908871,-39
32-11,80912777,-76
32-12,80916683,-41
32-13,80920589,20
32-14,80924495,-2
32-15,80928401,-66
32-16,80932307,-36
32-17,80936213,23
32-18,80940119,-10
32-19,80944025,-82
32-20,80947931,-92
32-21,80951837,-56
32-22,80955743,-56
32-23,80959649,-81
32-24,80963555,-66
32-25,80967461,-34
32-26,80971367,-44
32-27,80975273,-107
32-28,80979179,-116
32-29,80983085,-46
32-30,80986991,-52
32-31,80990897,-115
32-32,80994803,-118
32-1,80998715,-86
32-2,81002621,-75
32-3,81006527,-95
32-4,81010433,-109
32-5,81014339,-93
32-6,81018245,-66
32-7,81022151,-50
32-8,81026057,-64
32-9,81029963,-63
32-10,81033869,-44
32-11,81037775,-61
32-12,81041681,-86
32-13,81045587,-84
32-14,81049493,-64
32-15,81053399,-50
32-16,81057305,-81
32-17,81061211,-108
32-18,81065117,-72
32-19,81069023,-45
32-20,81072929,-92
32-21,81076835,-142
32-22,81080741,-128
32-23,81084647,-80
32-24,81088553,-77
32-25,81092459,-129
32-26,81096365,-163
32-27,81100271,-156
32-28,81104177,-112
32-29,81108083,-89
32-30,81111989,-162
32-31,81115895,-193
32-32,81119801,-128
32-1,81123712,-132
32-2,81127618,-169
32-3,81131524,-132
32-4,81135430,-67
32-5,81139336,-57
32-6,81143242,-109
32-7,81147148,-135
32-8,81151054,-106
32-9,81154960,-118
32-10,81158866,-171
32-11,81162772,-171
32-12,81166678,-107
32-13,81170584,-67
32-14,81174490,-74
32-15,81178396,-78
32-16,81182302,-56
32-17,81186208,-24
32-18,81190114,-16
32-19,81194020,-52
32-20,81197926,-46
32-21,81201832,5
32-22,81205738,-17
32-23,81209644,-70
32-24,81213550,-63
32-25,81217456,-49
32-26,81221362,-39
32-27,81225268,-41
32-28,81229174,-21
32-29,81233080,49
32-30,81236986,56
32-31,81240892,0
32-32,81244798,-39
32-1,81248710,-40
32-2,81252616,-21
32-3,81256522,-59
32-4,81260428,-99
32-5,81264334,-47
32-6,81268240,-12
32-7,81272146,-30
32-8,81276052,-40
32-9,81279958,-34
32-10,81283864,-7
32-11,81287770,2
32-12,81291676,-41
32-13,81295582,-71
32-14,81299488,-27
32-15,81303394,41
32-16,81307300,34
32-17,81311206,-5
32-18,81315112,35
32-19,81319018,93
32-20,81322924,68
32-21,81326830,10
32-22,81330736,10
32-23,81334642,58
32-24,81338548,58
32-25,81342454,13
32-26,81346360,19
32-27,81350266,52
32-28,81354172,70
32-29,81358078,57
32-30,81361984,1
32-31,81365890,3
32-32,81369796,53
32-1,81373738,16
32-2,81377644,-36
32-3,81381550,-39
32-4,81385456,-34
32-5,81389362,-43
32-6,81393268,-72
32-7,81397174,-69
32-8,81401080,-6
32-9,81404986,26
32-10,81408892,-23
32-11,81412798,-59
32-12,81416704,-27
32-13,81420610,-18
32-14,81424516,-80
32-15,81428422,-127
32-16,81432328,-103
32-17,81436234,-64
32-18,81440140,-71
32-19,81444046,-86
32-20,81447952,-62
32-21,81451858,-31
32-22,81455764,-39
32-23,81459670,-57
32-24,81463576,-48
32-25,81467482,-27
32-26,81471388,-22
32-27,81475294,-29
32-28,81479200,12
32-29,81483106,62
32-30,81487012,17
32-31,81490918,-40
32-32,81494824,-40
32-1,81498705,-52
32-2,81502611,-86
32-3,81506517,-131
32-4,81510423,-171
32-5,81514329,-196
32-6,81518235,-212
32-7,81522141,-229
32-8,81526047,-266
32-9,81529953,-289
32-10,81533859,-285
32-11,81537765,-307
32-12,81541671,-329
32-13,81545577,-320
32-14,81549483,-305
32-15,81553389,-302
32-16,81557295,-325
32-17,81561201,-348
32-18,81565107,-348
32-19,81569013,-367
32-20,81572919,-400
32-21,81576825,-403
32-22,81580731,-374
32-23,81584637,-342
32-24,81588543,-378
32-25,81592449,-456
32-26,81596355,-439
32-27,81600261,-381
32-28,81604167,-376
32-29,81608073,-355
32-30,81611979,-346
32-31,81615885,-376
32-32,81619791,-380
32-1,81623703,-379
32-2,81627609,-392
32-3,81631515,-410
32-4,81635421,-409
32-5,81639327,-378
32-6,81643233,-378
32-7,81647139,-382
32-8,81651045,-335
32-9,81654951,-302
32-10,81658857,-307
32-11,81662763,-268
32-12,81666669,-203
32-13,81670575,-187
32-14,81674481,-153
32-15,81678387,-86
32-16,81682293,-61
32-17,81686199,-64
32-18,81690105,-75
32-19,81694011,-108
32-20,81697917,-124
32-21,81701823,-123
32-22,81705729,-133
32-23,81709635,-142
32-24,81713541,-141
32-25,81717447,-137
32-26,81721353,-137
32-27,81725259,-166
32-28,81729165,-155
32-29,81733071,-89
32-30,81736977,-117
32-31,81740883,-216
32-32,81744789,-240
32-1,81748700,-203
32-2,81752606,-181
32-3,81756512,-218
32-4,81760418,-240
32-5,81764324,-166
32-6,81768230,-107
32-7,81772136,-138
32-8,81776042,-187
32-9,81779948,-182
32-10,81783854,-133
32-11,81787760,-118
32-12,81791666,-138
32-13,81795572,-111
32-14,81799478,-68
32-15,81803384,-104
32-16,81807290,-163
32-17,81811196,-169
32-18,81815102,-122
32-19,81819008,-79
32-20,81822914,-107
32-21,81826820,-136
32-22,81830726,-95
32-23,81834632,-53
32-24,81838538,-53
32-25,81842444,-60
32-26,81846350,-33
32-27,81850256,12
32-28,81854162,33
32-29,81858068,9
32-30,81861974,-21
32-31,81865880,10
32-32,81869786,20
32-1,81873698,-56
32-2,81877604,-101
32-3,81881510,-55
32-4,81885416,-29
32-5,81889322,-102
32-6,81893228,-183
32-7,81897134,-151
32-8,81901040,-93
32-9,81904946,-122
32-10,81908852,-156
32-11,81912758,-110
32-12,81916664,-48
32-13,81920570,-38
32-14,81924476,-67
32-15,81928382,-63
32-16,81932288,13
32-17,81936194,72
32-18,81940100,35
32-19,81944006,1
32-20,81947912,52
32-21,81951818,99
32-22,81955724,59
32-23,81959630,12
32-24,81963536,50
32-25,81967442,125
32-26,81971348,136
32-27,81975254,86
32-28,81979160,136
32-29,81983066,280
32-30,81986972,266
32-31,81990878,159
32-32,81994784,173
32-1,81998696,233
32-2,82002602,240
32-3,82006508,189
32-4,82010414,139
32-5,82014320,176
32-6,82018226,225
32-7,82022132,174
32-8,82026038,93
32-9,82029944,105
32-10,82033850,160
32-11,82037756,123
32-12,82041662,47
32-13,82045568,72
32-14,82049474,154
32-15,82053380,173
32-16,82057286,138
32-17,82061192,133
32-18,82065098,201
32-19,82069004,271
32-20,82072910,261
32-21,82076816,221
32-22,82080722,261
32-23,82084628,340
32-24,82088534,306
32-25,82092440,214
32-26,82096346,245
32-27,82100252,313
32-28,82104158,301
32-29,82108064,274
32-30,82111970,259
32-31,82115876,256
32-32,82119782,252
32-1,82123724,220
32-2,82127630,225
32-3,82131536,275
32-4,82135442,281
32-5,82139348,298
32-6,82143254,416
32-7,82147160,539
32-8,82151066,575
32-9,82154972,587
32-10,82158878,594
32-11,82162784,568
32-12,82166690,525
32-13,82170596,477
32-14,82174502,428
32-15,82178408,345
32-16,82182314,231
32-17,82186220,135
32-18,82190126,38
32-19,82194032,-75
32-20,82197938,-209
32-21,82201844,-303
32-22,82205750,-301
32-23,82209656,-339
32-24,82213562,-433
32-25,82217468,-395
32-26,82221374,-229
32-27,82225280,-82
32-28,82229186,117
32-29,82233092,423
32-30,82236998,569
32-31,82240904,451
32-32,82244810,319
32-1,82248691,189
32-2,82252597,-83
32-3,82256503,-320
32-4,82260409,-346
32-5,82264315,-250
32-6,82268221,-103
32-7,82272127,68
32-8,82276033,177
32-9,82279939,230
32-10,82283845,249
32-11,82287751,210
32-12,82291657,128
32-13,82295563,71
32-14,82299469,23
32-15,82303375,-65
32-16,82307281,-100
32-17,82311187,-31
32-18,82315093,18
32-19,82318999,16
32-20,82322905,4
32-21,82326811,-29
32-22,82330717,-44
32-23,82334623,-21
32-24,82338529,-20
32-25,82342435,-57
32-26,82346341,-107
32-27,82350247,-152
32-28,82354153,-173
32-29,82358059,-193
32-30,82361965,-268
32-31,82365871,-326
32-32,82369777,-304
32-1,82373689,-284
32-2,82377595,-281
32-3,82381501,-233
32-4,82385407,-162
32-5,82389313,-141
32-6,82393219,-157
32-7,82397125,-121
32-8,82401031,-63
32-9,82404937,-53
32-10,82408843,-74
32-11,82412749,-67
32-12,82416655,-27
32-13,82420561,-7
32-14,82424467,-24
32-15,82428373,-44
32-16,82432279,-39
32-17,82436185,-20
32-18,82440091,-22
32-19,82443997,-25
32-20,82447903,2
32-21,82451809,32
32-22,82455715,8
32-23,82459621,-61
32-24,82463527,-78
32-25,82467433,-13
32-26,82471339,14
32-27,82475245,-46
32-28,82479151,-57
32-29,82483057,24
32-30,82486963,22
32-31,82490869,-84
32-32,82494775,-116
32-1,82498686,-44
32-2,82502592,-4
32-3,82506498,-58
32-4,82510404,-99
32-5,82514310,-69
32-6,82518216,-50
32-7,82522122,-72
32-8,82526028,-117
32-9,82529934,-130
32-10,82533840,-67
32-11,82537746,-31
32-12,82541652,-86
32-13,82545558,-116
32-14,82549464,-73
32-15,82553370,-47
32-16,82557276,-76
32-17,82561182,-88
32-18,82565088,-42
32-19,82568994,9
32-20,82572900,4
32-21,82576806,-36
32-22,82580712,-32
32-23,82584618,8
32-24,82588524,-1
32-25,82592430,-59
32-26,82596336,-74
32-27,82600242,-48
32-28,82604148,-29
32-29,82608054,-34
32-30,82611960,-87
32-31,82615866,-114
32-32,82619772,-65
32-1,82623684,-37
32-2,82627590,-52
32-3,82631496,-32
32-4,82635402,-12
32-5,82639308,-57
32-6,82643214,-94
32-7,82647120,-65
32-8,82651026,-41
32-9,82654932,-56
32-10,82658838,-86
32-11,82662744,-101
32-12,82666650,-49
32-13,82670556,-5
32-14,82674462,-52
32-15,82678368,-81
32-16,82682274,-37
32-17,82686180,-23
32-18,82690086,-57
32-19,82693992,-72
32-20,82697898,-46
32-21,82701804,-3
32-22,82705710,8
32-23,82709616,-19
32-24,82713522,-26
32-25,82717428,15
32-26,82721334,34
32-27,82725240,-36
32-28,82729146,-55
32-29,82733052,41
32-30,82736958,47
32-31,82740864,-50
32-32,82744770,-75
32-1,82748681,-38
32-2,82752587,-17
32-3,82756493,-21
32-4,82760399,-38
32-5,82764305,-38
32-6,82768211,-9
32-7,82772117,-2
32-8,82776023,-36
32-9,82779929,-28
32-10,82783835,1
32-11,82787741,-30
32-12,82791647,-85
32-13,82795553,-121
32-14,82799459,-101
32-15,82803365,-38
32-16,82807271,-39
32-17,82811177,-80
32-18,82815083,-40
32-19,82818989,21
32-20,82822895,-7
32-21,82826801,-51
32-22,82830707,-25
32-23,82834613,14
32-24,82838519,11
32-25,82842425,-10
32-26,82846331,-5
32-27,82850237,12
32-28,82854143,40
32-29,82858049,38
32-30,82861955,-18
32-31,82865861,-35
32-32,82869767,-10
32-1,82873710,-39
32-2,82877616,-85
32-3,82881522,-73
32-4,82885428,-17
32-5,82889334,-6
32-6,82893240,-58
32-7,82897146,-54
32-8,82901052,23
32-9,82904958,57
32-10,82908864,24
32-11,82912770,10
32-12,82916676,43
32-13,82920582,47
32-14,82924488,-8
32-15,82928394,-51
32-16,82932300,-31
32-17,82936206,8
32-18,82940112,-8
32-19,82944018,-57
32-20,82947924,-41
32-21,82951830,17
32-22,82955736,7
32-23,82959642,-51
32-24,82963548,-71
32-25,82967454,-62
32-26,82971360,-77
32-27,82975266,-135
32-28,82979172,-126
32-29,82983078,-27
32-30,82986984,-10
32-31,82990890,-89
32-32,82994796,-113
32-1,82998646,-83
32-2,83002552,-63
32-3,83006458,-81
32-4,83010364,-98
32-5,83014270,-74
32-6,83018176,-55
32-7,83022082,-66
32-8,83025988,-85
32-9,83029894,-70
32-10,83033800,-2
32-11,83037706,9
32-12,83041612,-55
32-13,83045518,-47
32-14,83049424,18
32-15,83053330,21
32-16,83057236,-24
32-17,83061142,-56
32-18,83065048,-37
32-19,83068954,-4
32-20,83072860,-44
32-21,83076766,-89
32-22,83080672,-46
32-23,83084578,3
32-24,83088484,-35
32-25,83092390,-122
32-26,83096296,-119
32-27,83100202,-57
32-28,83104108,-58
32-29,83108014,-74
32-30,83111920,-60
32-31,83115826,-15
32-32,83119732,3
32-1,83123674,-89
32-2,83127580,-129
32-3,83131486,-32
32-4,83135392,29
32-5,83139298,-39
32-6,83143204,-114
32-7,83147110,-51
32-8,83151016,49
32-9,83154922,-15
32-10,83158828,-133
32-11,83162734,-79
32-12,83166640,35
32-13,83170546,13
32-14,83174452,-30
32-15,83178358,1
32-16,83182264,42
32-17,83186170,74
32-18,83190076,77
32-19,83193982,61
32-20,83197888,82
32-21,83201794,130
32-22,83205700,142
32-23,83209606,91
32-24,83213512,59
32-25,83217418,103
32-26,83221324,143
32-27,83225230,91
32-28,83229136,68
32-29,83233042,137
32-30,83236948,127
32-31,83240854,39
32-32,83244760,29
32-1,83248672,81
32-2,83252578,112
32-3,83256484,82
32-4,83260390,25
32-5,83264296,28
32-6,83268202,69
32-7,83272108,51
32-8,83276014,-17
32-9,83279920,-16
32-10,83283826,54
32-11,83287732,76
32-12,83291638,30
32-13,83295544,16
32-14,83299450,55
32-15,83303356,65
32-16,83307262,33
32-17,83311168,24
32-18,83315074,77
32-19,83318980,166
32-20,83322886,198
32-21,83326792,165
32-22,83330698,191
32-23,83334604,289
32-24,83338510,320
32-25,83342416,293
32-26,83346322,309
32-27,83350228,341
32-28,83354134,352
32-29,83358040,304
32-30,83361946,270
32-31,83365852,415
32-32,83369758,562
32-1,83373670,522
32-2,83377576,493
32-3,83381482,562
32-4,83385388,592
32-5,83389294,544
32-6,83393200,502
32-7,83397106,563
32-8,83401012,720
32-9,83404918,906
32-10,83408824,1117
32-11,83412730,1392
32-12,83416636,1706
32-13,83420542,2015
32-14,83424448,2276
32-15,83428354,2503
32-16,83432260,2748
32-17,83436166,2961
32-18,83440072,3100
32-19,83443978,3204
32-20,83447884,3288
32-21,83451790,3351
32-22,83455696,3362
32-23,83459602,3350
32-24,83463508,3371
32-25,83467414,3394
32-26,83471320,3373
32-27,83475226,3305
32-28,83479132,3281
32-29,83483038,3285
32-30,83486944,3201
32-31,83490850,3082
32-32,83494756,2983
32-1,83498667,2918
32-2,83502573,2908
32-3,83506479,2869
32-4,83510385,2760
32-5,83514291,2668
32-6,83518197,2645
32-7,83522103,2602
32-8,83526009,2497
32-9,83529915,2453
32-10,83533821,2488
32-11,83537727,2479
32-12,83541633,2430
32-13,83545539,2429
32-14,83549445,2459
32-15,83553351,2447
32-16,83557257,2378
32-17,83561163,2305
32-18,83565069,2298
32-19,83568975,2340
32-20,83572881,2329
32-21,83576787,2283
32-22,83580693,2282
32-23,83584599,2251
32-24,83588505,2167
32-25,83592411,2145
32-26,83596317,2156
32-27,83600223,2123
32-28,83604129,2098
32-29,83608035,2074
32-30,83611941,1998
32-31,83615847,1919
32-32,83619753,1852
32-1,83623848,1767
32-2,83627754,1707
32-3,83631660,1700
32-4,83635566,1675
32-5,83639472,1607
32-6,83643378,1546
32-7,83647284,1492
32-8,83651190,1422
32-9,83655096,1365
32-10,83659002,1330
32-11,83662908,1318
32-12,83666814,1299
32-13,83670720,1246
32-14,83674626,1186
32-15,83678532,1140
32-16,83682438,1134
32-17,83686344,1126
32-18,83690250,1059
32-19,83694156,1001
32-20,83698062,994
32-21,83701968,1000
32-22,83705874,976
32-23,83709780,898
32-24,83713686,871
32-25,83717592,920
32-26,83721498,901
32-27,83725404,800
32-28,83729310,797
32-29,83733216,869
32-30,83737122,817
32-31,83741028,714
32-32,83744934,700
32-1,83748663,690
32-2,83752569,657
32-3,83756475,621
32-4,83760381,576
32-5,83764287,558
32-6,83768193,533
32-7,83772099,471
32-8,83776005,429
32-9,83779911,436
32-10,83783817,452
32-11,83787723,440
32-12,83791629,381
32-13,83795535,315
32-14,83799441,308
32-15,83803347,304
32-16,83807253,253
32-17,83811159,237
32-18,83815065,264
32-19,83818971,291
32-20,83822877,278
32-21,83826783,224
32-22,83830689,216
32-23,83834595,234
32-24,83838501,197
32-25,83842407,174
32-26,83846313,186
32-27,83850219,205
32-28,83854125,251
32-29,83858031,261
32-30,83861937,206
32-31,83865843,174
32-32,83869749,191
32-1,83873660,197
32-2,83877566,192
32-3,83881472,206
32-4,83885378,216
32-5,83889284,225
32-6,83893190,246
32-7,83897096,248
32-8,83901002,241
32-9,83904908,226
32-10,83908814,169
32-11,83912720,111
32-12,83916626,87
32-13,83920532,89
32-14,83924438,120
32-15,83928344,148
32-16,83932250,152
32-17,83936156,141
32-18,83940062,130
32-19,83943968,158
32-20,83947874,218
32-21,83951780,251
32-22,83955686,263
32-23,83959592,277
32-24,83963498,265
32-25,83967404,263
32-26,83971310,309
32-27,83975216,323
32-28,83979122,355
32-29,83983028,462
32-30,83986934,484
32-31,83990840,424
32-32,83994746,428
32-1,83998658,459
32-2,84002564,467
32-3,84006470,430
32-4,84010376,392
32-5,84014282,478
32-6,84018188,599
32-7,84022094,611
32-8,84026000,597
32-9,84029906,631
32-10,84033812,663
32-11,84037718,648
32-12,84041624,610
32-13,84045530,619
32-14,84049436,641
32-15,84053342,601
32-16,84057248,545
32-17,84061154,541
32-18,84065060,529
32-19,84068966,457
32-20,84072872,405
32-21,84076778,425
32-22,84080684,480
32-23,84084590,505
32-24,84088496,476
32-25,84092402,468
32-26,84096308,473
32-27,84100214,418
32-28,84104120,397
32-29,84108026,443
32-30,84111932,453
32-31,84115838,481
32-32,84119744,555
32-1,84123655,569
32-2,84127561,546
32-3,84131467,550
32-4,84135373,571
32-5,84139279,561
32-6,84143185,498
32-7,84147091,498
32-8,84150997,557
32-9,84154903,515
32-10,84158809,417
32-11,84162715,393
32-12,84166621,419
32-13,84170527,426
32-14,84174433,396
32-15,84178339,370
32-16,84182245,339
32-17,84186151,267
32-18,84190057,212
32-19,84193963,216
32-20,84197869,242
32-21,84201775,250
32-22,84205681,210
32-23,84209587,149
32-24,84213493,90
32-25,84217399,19
32-26,84221305,-26
32-27,84225211,-52
32-28,84229117,-45
32-29,84233023,9
32-30,84236929,1
32-31,84240835,-71
32-32,84244741,-111
32-1,84248745,-137
32-2,84252651,-162
32-3,84256557,-176
32-4,84260463,-206
32-5,84264369,-223
32-6,84268275,-215
32-7,84272181,-222
32-8,84276087,-267
32-9,84279993,-294
32-10,84283899,-266
32-11,84287805,-256
32-12,84291711,-288
32-13,84295617,-319
32-14,84299523,-359
32-15,84303429,-404
32-16,84307335,-453
32-17,84311241,-515
32-18,84315147,-562
32-19,84319053,-586
32-20,84322959,-613
32-21,84326865,-619
32-22,84330771,-571
32-23,84334677,-551
32-24,84338583,-640
32-25,84342489,-738
32-26,84346395,-767
32-27,84350301,-777
32-28,84354207,-783
32-29,84358113,-779
32-30,84362019,-825
32-31,84365925,-916
32-32,84369831,-971
32-1,84373651,-973
32-2,84377557,-987
32-3,84381463,-1002
32-4,84385369,-985
32-5,84389275,-976
32-6,84393181,-1005
32-7,84397087,-1047
32-8,84400993,-1057
32-9,84404899,-1041
32-10,84408805,-1050
32-11,84412711,-1049
32-12,84416617,-1033
32-13,84420523,-1071
32-14,84424429,-1180
32-15,84428335,-1316
32-16,84432241,-1378
32-17,84436147,-1369
32-18,84440053,-1385
32-19,84443959,-1423
32-20,84447865,-1453
32-21,84451771,-1471
32-22,84455677,-1479
32-23,84459583,-1506
32-24,84463489,-1519
32-25,84467395,-1499
32-26,84471301,-1515
32-27,84475207,-1601
32-28,84479113,-1633
32-29,84483019,-1549
32-30,84486925,-1519
32-31,84490831,-1600
32-32,84494737,-1659
32-1,84498648,-1654
32-2,84502554,-1617
32-3,84506460,-1615
32-4,84510366,-1676
32-5,84514272,-1716
32-6,84518178,-1736
32-7,84522084,-1803
32-8,84525990,-1818
32-9,84529896,-1754
32-10,84533802,-1736
32-11,84537708,-1771
32-12,84541614,-1802
32-13,84545520,-1846
32-14,84549426,-1900
32-15,84553332,-1892
32-16,84557238,-1866
32-17,84561144,-1884
32-18,84565050,-1870
32-19,84568956,-1808
32-20,84572862,-1820
32-21,84576768,-1910
32-22,84580674,-1928
32-23,84584580,-1852
32-24,84588486,-1850
32-25,84592392,-1928
32-26,84596298,-1923
32-27,84600204,-1861
32-28,84604110,-1860
32-29,84608016,-1862
32-30,84611922,-1844
32-31,84615828,-1840
32-32,84619734,-1788
32-1,84623646,-1720
32-2,84627552,-1696
32-3,84631458,-1650
32-4,84635364,-1650
32-5,84639270,-1736
32-6,84643176,-1757
32-7,84647082,-1707
32-8,84650988,-1686
32-9,84654894,-1692
32-10,84658800,-1720
32-11,84662706,-1710
32-12,84666612,-1629
32-13,84670518,-1568
32-14,84674424,-1563
32-15,84678330,-1578
32-16,84682236,-1554
32-17,84686142,-1504
32-18,84690048,-1517
32-19,84693954,-1541
32-20,84697860,-1529
32-21,84701766,-1533
32-22,84705672,-1563
32-23,84709578,-1571
32-24,84713484,-1554
32-25,84717390,-1522
32-26,84721296,-1499
32-27,84725202,-1528
32-28,84729108,-1517
32-29,84733014,-1419
32-30,84736920,-1410
32-31,84740826,-1447
32-32,84744732,-1393
32-1,84748644,-1325
32-2,84752550,-1303
32-3,84756456,-1327
32-4,84760362,-1325
32-5,84764268,-1236
32-6,84768174,-1177
32-7,84772080,-1187
32-8,84775986,-1179
32-9,84779892,-1141
32-10,84783798,-1119
32-11,84787704,-1119
32-12,84791610,-1103
32-13,84795516,-1036
32-14,84799422,-953
32-15,84803328,-945
32-16,84807234,-1016
32-17,84811140,-1028
32-18,84815046,-977
32-19,84818952,-979
32-20,84822858,-1008
32-21,84826764,-1007
32-22,84830670,-957
32-23,84834576,-897
32-24,84838482,-918
32-25,84842388,-964
32-26,84846294,-930
32-27,84850200,-860
32-28,84854106,-812
32-29,84858012,-799
32-30,84861918,-809
32-31,84865824,-791
32-32,84869730,-761
32-1,84873763,-783
32-2,84877669,-784
32-3,84881575,-720
32-4,84885481,-687
32-5,84889387,-691
32-6,84893293,-688
32-7,84897199,-664
32-8,84901105,-620
32-9,84905011,-643
32-10,84908917,-709
32-11,84912823,-680
32-12,84916729,-605
32-13,84920635,-595
32-14,84924541,-622
32-15,84928447,-609
32-16,84932353,-583
32-17,84936259,-625
32-18,84940165,-676
32-19,84944071,-669
32-20,84947977,-661
32-21,84951883,-657
32-22,84955789,-671
32-23,84959695,-723
32-24,84963601,-739
32-25,84967507,-726
32-26,84971413,-724
32-27,84975319,-712
32-28,84979225,-664
32-29,84983131,-626
32-30,84987037,-663
32-31,84990943,-698
32-32,84994849,-723
32-1,84998639,-787
32-2,85002545,-827
32-3,85006451,-845
32-4,85010357,-866
32-5,85014263,-875
32-6,85018169,-860
32-7,85022075,-823
32-8,85025981,-799
32-9,85029887,-813
32-10,85033793,-813
32-11,85037699,-788
32-12,85041605,-812
32-13,85045511,-831
32-14,85049417,-766
32-15,85053323,-727
32-16,85057229,-766
32-17,85061135,-786
32-18,85065041,-729
32-19,85068947,-686
32-20,85072853,-733
32-21,85076759,-779
32-22,85080665,-748
32-23,85084571,-723
32-24,85088477,-756
32-25,85092383,-758
32-26,85096289,-711
32-27,85100195,-715
32-28,85104101,-714
32-29,85108007,-663
32-30,85111913,-663
32-31,85115819,-726
32-32,85119725,-754
32-1,85123667,-723
32-2,85127573,-695
32-3,85131479,-672
32-4,85135385,-633
32-5,85139291,-617
32-6,85143197,-614
32-7,85147103,-578
32-8,85151009,-552
32-9,85154915,-561
32-10,85158821,-537
32-11,85162727,-504
32-12,85166633,-529
32-13,85170539,-582
32-14,85174445,-644
32-15,85178351,-639
32-16,85182257,-551
32-17,85186163,-514
32-18,85190069,-505
32-19,85193975,-460
32-20,85197881,-409
32-21,85201787,-344
32-22,85205693,-335
32-23,85209599,-374
32-24,85213505,-342
32-25,85217411,-287
32-26,85221317,-285
32-27,85225223,-294
32-28,85229129,-273
32-29,85233035,-266
32-30,85236941,-344
32-31,85240847,-422
32-32,85244753,-363
32-1,85248634,-257
32-2,85252540,-244
32-3,85256446,-266
32-4,85260352,-228
32-5,85264258,-179
32-6,85268164,-148
32-7,85272070,-140
32-8,85275976,-178
32-9,85279882,-184
32-10,85283788,-97
32-11,85287694,-6
32-12,85291600,15
32-13,85295506,-6
32-14,85299412,-8
32-15,85303318,11
32-16,85307224,48
32-17,85311130,96
32-18,85315036,127
32-19,85318942,174
32-20,85322848,227
32-21,85326754,220
32-22,85330660,215
32-23,85334566,247
32-24,85338472,240
32-25,85342378,187
32-26,85346284,158
32-27,85350190,137
32-28,85354096,128
32-29,85358002,152
32-30,85361908,128
32-31,85365814,98
32-32,85369720,101
32-1,85373632,40
32-2,85377538,0
32-3,85381444,10
32-4,85385350,-34
32-5,85389256,-68
32-6,85393162,-24
32-7,85397068,37
32-8,85400974,22
32-9,85404880,-22
32-10,85408786,-20
32-11,85412692,-53
32-12,85416598,-114
32-13,85420504,-134
32-14,85424410,-157
32-15,85428316,-186
32-16,85432222,-188
32-17,85436128,-222
32-18,85440034,-272
32-19,85443940,-272
32-20,85447846,-254
32-21,85451752,-258
32-22,85455658,-290
32-23,85459564,-312
32-24,85463470,-306
32-25,85467376,-293
32-26,85471282,-270
32-27,85475188,-285
32-28,85479094,-281
32-29,85483000,-228
32-30,85486906,-255
32-31,85490812,-261
32-32,85494718,-201
32-1,85498751,-213
32-2,85502657,-243
32-3,85506563,-262
32-4,85510469,-293
32-5,85514375,-275
32-6,85518281,-224
32-7,85522187,-197
32-8,85526093,-223
32-9,85529999,-272
32-10,85533905,-273
32-11,85537811,-260
32-12,85541717,-281
32-13,85545623,-284
32-14,85549529,-256
32-15,85553435,-262
32-16,85557341,-292
32-17,85561247,-295
32-18,85565153,-269
32-19,85569059,-271
32-20,85572965,-310
32-21,85576871,-318
32-22,85580777,-293
32-23,85584683,-279
32-24,85588589,-294
32-25,85592495,-342
32-26,85596401,-388
32-27,85600307,-390
32-28,85604213,-328
32-29,85608119,-267
32-30,85612025,-279
32-31,85615931,-281
32-32,85619837,-223
32-1,85623627,-172
32-2,85627533,-132
32-3,85631439,-147
32-4,85635345,-193
32-5,85639251,-164
32-6,85643157,-140
32-7,85647063,-166
32-8,85650969,-141
32-9,85654875,-106
32-10,85658781,-145
32-11,85662687,-185
32-12,85666593,-178
32-13,85670499,-151
32-14,85674405,-142
32-15,85678311,-171
32-16,85682217,-190
32-17,85686123,-205
32-18,85690029,-217
32-19,85693935,-169
32-20,85697841,-110
32-21,85701747,-95
32-22,85705653,-109
32-23,85709559,-123
32-24,85713465,-79
32-25,85717371,-10
32-26,85721277,17
32-27,85725183,2
32-28,85729089,-6
32-29,85732995,26
32-30,85736901,20
32-31,85740807,-9
32-32,85744713,-1
32-1,85748625,-38
32-2,85752531,-92
32-3,85756437,-77
32-4,85760343,-58
32-5,85764249,-66
32-6,85768155,-40
32-7,85772061,15
32-8,85775967,22
32-9,85779873,-7
32-10,85783779,-17
32-11,85787685,-2
32-12,85791591,-8
32-13,85795497,-58
32-14,85799403,-87
32-15,85803309,-77
32-16,85807215,-67
32-17,85811121,-45
32-18,85815027,-15
32-19,85818933,-20
32-20,85822839,-75
32-21,85826745,-132
32-22,85830651,-107
32-23,85834557,-52
32-24,85838463,-54
32-25,85842369,-42
32-26,85846275,14
32-27,85850181,43
32-28,85854087,56
32-29,85857993,83
32-30,85861899,71
32-31,85865805,6
32-32,85869711,-4
32-1,85873683,73
32-2,85877589,123
32-3,85881495,125
32-4,85885401,138
32-5,85889307,144
32-6,85893213,136
32-7,85897119,133
32-8,85901025,127
32-9,85904931,124
32-10,85908837,130
32-11,85912743,128
32-12,85916649,105
32-13,85920555,95
32-14,85924461,109
32-15,85928367,109
32-16,85932273,116
32-17,85936179,109
32-18,85940085,98
32-19,85943991,174
32-20,85947897,222
32-21,85951803,184
32-22,85955709,182
32-23,85959615,185
32-24,85963521,150
32-25,85967427,116
32-26,85971333,117
32-27,85975239,133
32-28,85979145,135
32-29,85983051,149
32-30,85986957,126
32-31,85990863,88
32-32,85994769,101
32-1,85998620,111
32-2,86002526,138
32-3,86006432,181
32-4,86010338,194
32-5,86014244,198
32-6,86018150,193
32-7,86022056,190
32-8,86025962,207
32-9,86029868,209
32-10,86033774,209
32-11,86037680,230
32-12,86041586,245
32-13,86045492,267
32-14,86049398,278
32-15,86053304,234
32-16,86057210,176
32-17,86061116,165
32-18,86065022,185
32-19,86068928,187
32-20,86072834,152
32-21,86076740,117
32-22,86080646,121
32-23,86084552,164
32-24,86088458,187
32-25,86092364,173
32-26,86096270,173
32-27,86100176,151
32-28,86104082,131
32-29,86107988,181
32-30,86111894,200
32-31,86115800,161
32-32,86119706,183
32-1,86123618,222
32-2,86127524,196
32-3,86131430,201
32-4,86135336,230
32-5,86139242,200
32-6,86143148,185
32-7,86147054,189
32-8,86150960,152
32-9,86154866,141
32-10,86158772,169
32-11,86162678,156
32-12,86166584,82
32-13,86170490,38
32-14,86174396,46
32-15,86178302,25
32-16,86182208,11
32-17,86186114,37
32-18,86190020,52
32-19,86193926,43
32-20,86197832,24
32-21,86201738,26
32-22,86205644,28
32-23,86209550,21
32-24,86213456,18
32-25,86217362,14
32-26,86221268,29
32-27,86225174,4
32-28,86229080,-38
32-29,86232986,-32
32-30,86236892,-61
32-31,86240798,-86
32-32,86244704,-66
32-1,86248615,-73
32-2,86252521,-96
32-3,86256427,-117
32-4,86260333,-130
32-5,86264239,-133
32-6,86268145,-145
32-7,86272051,-149
32-8,86275957,-148
32-9,86279863,-117
32-10,86283769,-82
32-11,86287675,-117
32-12,86291581,-156
32-13,86295487,-140
32-14,86299393,-135
32-15,86303299,-135
32-16,86307205,-113
32-17,86311111,-127
32-18,86315017,-192
32-19,86318923,-236
32-20,86322829,-225
32-21,86326735,-181
32-22,86330641,-153
32-23,86334547,-161
32-24,86338453,-158
32-25,86342359,-134
32-26,86346265,-120
32-27,86350171,-118
32-28,86354077,-99
32-29,86357983,-78
32-30,86361889,-125
32-31,86365795,-143
32-32,86369701,-132
32-1,86373613,-128
32-2,86377519,-198
32-3,86381425,-305
32-4,86385331,-95
32-5,86389237,-240
32-6,86393143,-820
32-7,86397049,-555
32-8,86400955,-91
32-9,86404861,-256
32-10,86408767,-297
32-11,86412673,-244
32-12,86416579,-284
32-13,86420485,-259
32-14,86424391,-270
32-15,86428297,-262
32-16,86432203,-225
32-17,86436109,-190
32-18,86440015,-149
32-19,86443921,-152
32-20,86447827,-182
32-21,86451733,-192
32-22,86455639,-202
32-23,86459545,-201
32-24,86463451,-165
32-25,86467357,-162
32-26,86471263,-166
32-27,86475169,-135
32-28,86479075,-107
32-29,86482981,-89
32-30,86486887,-81
32-31,86490793,-100
32-32,86494699,-138
32-1,86498610,-148
32-2,86502516,-130
32-3,86506422,-144
32-4,86510328,-155
32-5,86514234,-147
32-6,86518140,-158
32-7,86522046,-177
32-8,86525952,-199
32-9,86529858,-186
32-10,86533764,-138
32-11,86537670,-122
32-12,86541576,-133
32-13,86545482,-124
32-14,86549388,-92
32-15,86553294,-82
32-16,86557200,-108
32-17,86561106,-73
32-18,86565012,14
32-19,86568918,15
32-20,86572824,-25
32-21,86576730,-1
32-22,86580636,28
32-23,86584542,10
32-24,86588448,-23
32-25,86592354,-44
32-26,86596260,-40
32-27,86600166,-37
32-28,86604072,-40
32-29,86607978,-30
32-30,86611884,-28
32-31,86615790,-52
32-32,86619696,-67
32-1,86623700,-76
32-2,86627606,-87
32-3,86631512,-59
32-4,86635418,-56
32-5,86639324,-117
32-6,86643230,-160
32-7,86647136,-174
32-8,86651042,-161
32-9,86654948,-124
32-10,86658854,-117
32-11,86662760,-94
32-12,86666666,-38
32-13,86670572,1
32-14,86674478,54
32-15,86678384,117
32-16,86682290,150
32-17,86686196,158
32-18,86690102,161
32-19,86694008,167
32-20,86697914,173
32-21,86701820,168
32-22,86705726,103
32-23,86709632,45
32-24,86713538,82
32-25,86717444,137
32-26,86721350,177
32-27,86725256,185
32-28,86729162,202
32-29,86733068,251
32-30,86736974,184
32-31,86740880,96
32-32,86744786,130
32-1,86748606,152
32-2,86752512,154
32-3,86756418,165
32-4,86760324,158
32-5,86764230,186
32-6,86768136,211
32-7,86772042,234
32-8,86775948,297
32-9,86779854,335
32-10,86783760,352
32-11,86787666,375
32-12,86791572,371
32-13,86795478,367
32-14,86799384,384
32-15,86803290,388
32-16,86807196,376
32-17,86811102,375
32-18,86815008,397
32-19,86818914,408
32-20,86822820,360
32-21,86826726,304
32-22,86830632,306
32-23,86834538,310
32-24,86838444,287
32-25,86842350,286
32-26,86846256,302
32-27,86850162,304
32-28,86854068,300
32-29,86857974,275
32-30,86861880,211
32-31,86865786,179
32-32,86869692,179
32-1,86873603,137
32-2,86877509,112
32-3,86881415,130
32-4,86885321,87
32-5,86889227,29
32-6,86893133,60
32-7,86897039,94
32-8,86900945,83
32-9,86904851,85
32-10,86908757,77
32-11,86912663,33
32-12,86916569,-5
32-13,86920475,7
32-14,86924381,36
32-15,86928287,19
32-16,86932193,-8
32-17,86936099,-33
32-18,86940005,-83
32-19,86943911,-120
32-20,86947817,-136
32-21,86951723,-154
32-22,86955629,-190
32-23,86959535,-216
32-24,86963441,-211
32-25,86967347,-230
32-26,86971253,-289
32-27,86975159,-362
32-28,86979065,-360
32-29,86982971,-295
32-30,86986877,-328
32-31,86990783,-376
32-32,86994689,-338
32-1,86998601,-324
32-2,87002507,-345
32-3,87006413,-408
32-4,87010319,-462
32-5,87014225,-410
32-6,87018131,-360
32-7,87022037,-394
32-8,87025943,-425
32-9,87029849,-357
32-10,87033755,-285
32-11,87037661,-302
32-12,87041567,-294
32-13,87045473,-230
32-14,87049379,-208
32-15,87053285,-254
32-16,87057191,-301
32-17,87061097,-283
32-18,87065003,-266
32-19,87068909,-332
32-20,87072815,-409
32-21,87076721,-415
32-22,87080627,-361
32-23,87084533,-330
32-24,87088439,-382
32-25,87092345,-407
32-26,87096251,-326
32-27,87100157,-301
32-28,87104063,-326
32-29,87107969,-243
32-30,87111875,-158
32-31,87115781,-147
32-32,87119687,-109
32-1,87123599,-92
32-2,87127505,-168
32-3,87131411,-246
32-4,87135317,-235
32-5,87139223,-162
32-6,87143129,-141
32-7,87147035,-188
32-8,87150941,-210
32-9,87154847,-212
32-10,87158753,-228
32-11,87162659,-190
32-12,87166565,-123
32-13,87170471,-120
32-14,87174377,-146
32-15,87178283,-104
32-16,87182189,-16
32-17,87186095,14
32-18,87190001,3
32-19,87193907,56
32-20,87197813,166
32-21,87201719,247
32-22,87205625,254
32-23,87209531,241
32-24,87213437,292
32-25,87217343,352
32-26,87221249,358
32-27,87225155,353
32-28,87229061,373
32-29,87232967,399
32-30,87236873,409
32-31,87240779,398
32-32,87244685,406
32-1,87248596,474
32-2,87252502,553
32-3,87256408,582
32-4,87260314,584
32-5,87264220,611
32-6,87268126,645
32-7,87272032,620
32-8,87275938,553
32-9,87279844,537
32-10,87283750,572
32-11,87287656,580
32-12,87291562,533
32-13,87295468,503
32-14,87299374,560
32-15,87303280,616
32-16,87307186,593
32-17,87311092,590
32-18,87314998,643
32-19,87318904,674
32-20,87322810,644
32-21,87326716,637
32-22,87330622,726
32-23,87334528,785
32-24,87338434,747
32-25,87342340,713
32-26,87346246,718
32-27,87350152,725
32-28,87354058,737
32-29,87357964,707
32-30,87361870,607
32-31,87365776,529
32-32,87369682,492
32-1,87373685,434
32-2,87377591,440
32-3,87381497,531
32-4,87385403,572
32-5,87389309,548
32-6,87393215,504
32-7,87397121,469
32-8,87401027,488
32-9,87404933,508
32-10,87408839,485
32-11,87412745,493
32-12,87416651,494
32-13,87420557,416
32-14,87424463,318
32-15,87428369,269
32-16,87432275,313
32-17,87436181,381
32-18,87440087,376
32-19,87443993,378
32-20,87447899,397
32-21,87451805,352
32-22,87455711,287
32-23,87459617,236
32-24,87463523,205
32-25,87467429,243
32-26,87471335,248
32-27,87475241,149
32-28,87479147,129
32-29,87483053,149
32-30,87486959,51
32-31,87490865,-19
32-32,87494771,4
32-1,87498591,35
32-2,87502497,70
32-3,87506403,53
32-4,87510309,1
32-5,87514215,7
32-6,87518121,17
32-7,87522027,3
32-8,87525933,30
32-9,87529839,108
32-10,87533745,186
32-11,87537651,189
32-12,87541557,138
32-13,87545463,124
32-14,87549369,119
32-15,87553275,75
32-16,87557181,12
32-17,87561087,-7
32-18,87564993,42
32-19,87568899,65
32-20,87572805,10
32-21,87576711,-49
32-22,87580617,-62
32-23,87584523,-67
32-24,87588429,-110
32-25,87592335,-167
32-26,87596241,-199
32-27,87600147,-194
32-28,87604053,-131
32-29,87607959,-72
32-30,87611865,-95
32-31,87615771,-124
32-32,87619677,-131
32-1,87623589,-177
32-2,87627495,-186
32-3,87631401,-140
32-4,87635307,-180
32-5,87639213,-258
32-6,87643119,-236
32-7,87647025,-176
32-8,87650931,-157
32-9,87654837,-180
32-10,87658743,-215
32-11,87662649,-190
32-12,87666555,-162
32-13,87670461,-203
32-14,87674367,-226
32-15,87678273,-206
32-16,87682179,-170
32-17,87686085,-122
32-18,87689991,-118
32-19,87693897,-172
32-20,87697803,-230
32-21,87701709,-225
32-22,87705615,-189
32-23,87709521,-194
32-24,87713427,-208
32-25,87717333,-196
32-26,87721239,-169
32-27,87725145,-180
32-28,87729051,-218
32-29,87732957,-219
32-30,87736863,-225
32-31,87740769,-258
32-32,87744675,-274
32-1,87748587,-265
32-2,87752493,-234
32-3,87756399,-236
32-4,87760305,-256
32-5,87764211,-222
32-6,87768117,-186
32-7,87772023,-178
32-8,87775929,-169
32-9,87779835,-159
32-10,87783741,-159
32-11,87787647,-186
32-12,87791553,-230
32-13,87795459,-252
32-14,87799365,-221
32-15,87803271,-214
32-16,87807177,-281
32-17,87811083,-310
32-18,87814989,-286
32-19,87818895,-263
32-20,87822801,-222
32-21,87826707,-200
32-22,87830613,-200
32-23,87834519,-199
32-24,87838425,-199
32-25,87842331,-185
32-26,87846237,-195
32-27,87850143,-195
32-28,87854049,-123
32-29,87857955,-88
32-30,87861861,-136
32-31,87865767,-164
32-32,87869673,-179
32-1,87873584,-223
32-2,87877490,-229
32-3,87881396,-193
32-4,87885302,-184
32-5,87889208,-194
32-6,87893114,-200
32-7,87897020,-176
32-8,87900926,-145
32-9,87904832,-172
32-10,87908738,-208
32-11,87912644,-179
32-12,87916550,-135
32-13,87920456,-123
32-14,87924362,-103
32-15,87928268,-35
32-16,87932174,4
32-17,87936080,-32
32-18,87939986,-61
32-19,87943892,-48
32-20,87947798,-9
32-21,87951704,30
32-22,87955610,0
32-23,87959516,-74
32-24,87963422,-96
32-25,87967328,-51
32-26,87971234,-37
32-27,87975140,-65
32-28,87979046,6
32-29,87982952,119
32-30,87986858,103
32-31,87990764,30
32-32,87994670,1
32-1,87998582,-19
32-2,88002488,-42
32-3,88006394,-45
32-4,88010300,-17
32-5,88014206,47
32-6,88018112,129
32-7,88022018,147
32-8,88025924,95
32-9,88029830,95
32-10,88033736,113
32-11,88037642,62
32-12,88041548,20
32-13,88045454,60
32-14,88049360,155
32-15,88053266,184
32-16,88057172,126
32-17,88061078,156
32-18,88064984,258
32-19,88068890,291
32-20,88072796,264
32-21,88076702,240
32-22,88080608,270
32-23,88084514,285
32-24,88088420,234
32-25,88092326,246
32-26,88096232,378
32-27,88100138,441
32-28,88104044,386
32-29,88107950,369
32-30,88111856,395
32-31,88115762,361
32-32,88119668,265
32-1,88123702,197
32-2,88127608,194
32-3,88131514,183
32-4,88135420,120
32-5,88139326,-8
32-6,88143232,-167
32-7,88147138,-244
32-8,88151044,-234
32-9,88154950,-275
32-10,88158856,-416
32-11,88162762,-540
32-12,88166668,-632
32-13,88170574,-792
32-14,88174480,-988
32-15,88178386,-1134
32-16,88182292,-1252
32-17,88186198,-1398
32-18,88190104,-1563
32-19,88194010,-1695
32-20,88197916,-1765
32-21,88201822,-1787
32-22,88205728,-1822
32-23,88209634,-1821
32-24,88213540,-1634
32-25,88217446,-1296
32-26,88221352,-1007
32-27,88225258,-783
32-28,88229164,-479
32-29,88233070,-131
32-30,88236976,91
32-31,88240882,242
32-32,88244788,452
32-1,88248577,644
32-2,88252483,763
32-3,88256389,853
32-4,88260295,947
32-5,88264201,1031
32-6,88268107,1022
32-7,88272013,971
32-8,88275919,1005
32-9,88279825,1070
32-10,88283731,1122
32-11,88287637,1146
32-12,88291543,1119
32-13,88295449,1114
32-14,88299355,1147
32-15,88303261,1143
32-16,88307167,1122
32-17,88311073,1123
32-18,88314979,1094
32-19,88318885,994
32-20,88322791,888
32-21,88326697,836
32-22,88330603,812
32-23,88334509,775
32-24,88338415,719
32-25,88342321,621
32-26,88346227,515
32-27,88350133,424
32-28,88354039,290
32-29,88357945,194
32-30,88361851,190
32-31,88365757,168
32-32,88369663,117
32-1,88373575,34
32-2,88377481,-55
32-3,88381387,-76
32-4,88385293,-127
32-5,88389199,-305
32-6,88393105,-486
32-7,88397011,-559
32-8,88400917,-603
32-9,88404823,-726
32-10,88408729,-868
32-11,88412635,-941
32-12,88416541,-1033
32-13,88420447,-1176
32-14,88424353,-1257
32-15,88428259,-1265
32-16,88432165,-1281
32-17,88436071,-1367
32-18,88439977,-1475
32-19,88443883,-1526
32-20,88447789,-1521
32-21,88451695,-1511
32-22,88455601,-1532
32-23,88459507,-1537
32-24,88463413,-1481
32-25,88467319,-1406
32-26,88471225,-1385
32-27,88475131,-1435
32-28,88479037,-1388
32-29,88482943,-1257
32-30,88486849,-1308
32-31,88490755,-1449
32-32,88494661,-1480
32-1,88498573,-1486
32-2,88502479,-1595
32-3,88506385,-1840
32-4,88510291,-2002
32-5,88514197,-1976
32-6,88518103,-2037
32-7,88522009,-2196
32-8,88525915,-2279
32-9,88529821,-2335
32-10,88533727,-2449
32-11,88537633,-2623
32-12,88541539,-2763
32-13,88545445,-2806
32-14,88549351,-2808
32-15,88553257,-2842
32-16,88557163,-2941
32-17,88561069,-2988
32-18,88564975,-2953
32-19,88568881,-2982
32-20,88572787,-3068
32-21,88576693,-3055
32-22,88580599,-2926
32-23,88584505,-2834
32-24,88588411,-2848
32-25,88592317,-2835
32-26,88596223,-2776
32-27,88600129,-2778
32-28,88604035,-2814
32-29,88607941,-2823
32-30,88611847,-2787
32-31,88615753,-2711
32-32,88619659,-2678
32-1,88623570,-2667
32-2,88627476,-2558
32-3,88631382,-2409
32-4,88635288,-2320
32-5,88639194,-2307
32-6,88643100,-2304
32-7,88647006,-2231
32-8,88650912,-2176
32-9,88654818,-2252
32-10,88658724,-2331
32-11,88662630,-2276
32-12,88666536,-2205
32-13,88670442,-2221
32-14,88674348,-2215
32-15,88678254,-2191
32-16,88682160,-2087
32-17,88686066,-2106
32-18,88689972,-2750
32-19,88693878,-3473
32-20,88697784,-3849
32-21,88701690,-4514
32-22,88705596,-5175
32-23,88709502,-5199
32-24,88713408,-5012
32-25,88717314,-5040
32-26,88721220,-5199
32-27,88725126,-5171
32-28,88729032,-4842
32-29,88732938,-4599
32-30,88736844,-4673
32-31,88740750,-4690
32-32,88744656,-4404
32-1,88748568,-4147
32-2,88752474,-4160
32-3,88756380,-4210
32-4,88760286,-4037
32-5,88764192,-3796
32-6,88768098,-3765
32-7,88772004,-3851
32-8,88775910,-3766
32-9,88779816,-3515
32-10,88783722,-3398
32-11,88787628,-3493
32-12,88791534,-3481
32-13,88795440,-3226
32-14,88799346,-3052
32-15,88803252,-3148
32-16,88807158,-3135
32-17,88811064,-2757
32-18,88814970,-2392
32-19,88818876,-2392
32-20,88822782,-2562
32-21,88826688,-2503
32-22,88830594,-2212
32-23,88834500,-2057
32-24,88838406,-2151
32-25,88842312,-2172
32-26,88846218,-1960
32-27,88850124,-1846
32-28,88854030,-1991
32-29,88857936,-2032
32-30,88861842,-1816
32-31,88865748,-1654
32-32,88869654,-1727
32-1,88873718,-1792
32-2,88877624,-1569
32-3,88881530,-1254
32-4,88885436,-1214
32-5,88889342,-1347
32-6,88893248,-1273
32-7,88897154,-990
32-8,88901060,-889
32-9,88904966,-1047
32-10,88908872,-1064
32-11,88912778,-824
32-12,88916684,-659
32-13,88920590,-682
32-14,88924496,-694
32-15,88928402,-564
32-16,88932308,-392
32-17,88936214,-377
32-18,88940120,-495
32-19,88944026,-501
32-20,88947932,-364
32-21,88951838,-320
32-22,88955744,-424
32-23,88959650,-439
32-24,88963556,-268
32-25,88967462,-133
32-26,88971368,-190
32-27,88975274,-272
32-28,88979180,-156
32-29,88983086,32
32-30,88986992,22
32-31,88990898,-66
32-32,88994804,5
32-1,88998563,155
32-2,89002469,191
32-3,89006375,126
32-4,89010281,160
32-5,89014187,321
32-6,89018093,396
32-7,89021999,312
32-8,89025905,281
32-9,89029811,428
32-10,89033717,548
32-11,89037623,492
32-12,89041529,422
32-13,89045435,497
32-14,89049341,611
32-15,89053247,591
32-16,89057153,517
32-17,89061059,583
32-18,89064965,737
32-19,89068871,777
32-20,89072777,695
32-21,89076683,695
32-22,89080589,826
32-23,89084495,911
32-24,89088401,855
32-25,89092307,803
32-26,89096213,908
32-27,89100119,1030
32-28,89104025,998
32-29,89107931,947
32-30,89111837,994
32-31,89115743,1056
32-32,89119649,1032
32-1,89123530,940
32-2,89127436,955
32-3,89131342,1078
32-4,89135248,1095
32-5,89139154,1003
32-6,89143060,1001
32-7,89146966,1129
32-8,89150872,1191
32-9,89154778,1105
32-10,89158684,1040
32-11,89162590,1114
32-12,89166496,1208
32-13,89170402,1182
32-14,89174308,1120
32-15,89178214,1177
32-16,89182120,1271
32-17,89186026,1242
32-18,89189932,1138
32-19,89193838,1157
32-20,89197744,1291
32-21,89201650,1318
32-22,89205556,1211
32-23,89209462,1171
32-24,89213368,1273
32-25,89217274,1349
32-26,89221180,1264
32-27,89225086,1172
32-28,89228992,1253
32-29,89232898,1370
32-30,89236804,1302
32-31,89240710,1170
32-32,89244616,1220
32-1,89248558,1353
32-2,89252464,1333
32-3,89256370,1219
32-4,89260276,1225
32-5,89264182,1338
32-6,89268088,1356
32-7,89271994,1235
32-8,89275900,1175
32-9,89279806,1272
32-10,89283712,1356
32-11,89287618,1291
32-12,89291524,1208
32-13,89295430,1259
32-14,89299336,1344
32-15,89303242,1287
32-16,89307148,1176
32-17,89311054,1214
32-18,89314960,1336
32-19,89318866,1334
32-20,89322772,1231
32-21,89326678,1245
32-22,89330584,1359
32-23,89334490,1376
32-24,89338396,1265
32-25,89342302,1204
32-26,89346208,1288
32-27,89350114,1357
32-28,89354020,1300
32-29,89357926,1223
32-30,89361832,1218
32-31,89365738,1277
32-32,89369644,1275
32-1,89373556,1187
32-2,89377462,1189
32-3,89381368,1314
32-4,89385274,1358
32-5,89389180,1246
32-6,89393086,1202
32-7,89396992,1322
32-8,89400898,1362
32-9,89404804,1230
32-10,89408710,1151
32-11,89412616,1229
32-12,89416522,1306
32-13,89420428,1245
32-14,89424334,1145
32-15,89428240,1175
32-16,89432146,1294
32-17,89436052,1289
32-18,89439958,1173
32-19,89443864,1185
32-20,89447770,1305
32-21,89451676,1300
32-22,89455582,1165
32-23,89459488,1111
32-24,89463394,1201
32-25,89467300,1250
32-26,89471206,1143
32-27,89475112,1042
32-28,89479018,1125
32-29,89482924,1262
32-30,89486830,1188
32-31,89490736,1037
32-32,89494642,1083
32-1,89498554,1209
32-2,89502460,1199
32-3,89506366,1103
32-4,89510272,1092
32-5,89514178,1195
32-6,89518084,1231
32-7,89521990,1113
32-8,89525896,1053
32-9,89529802,1176
32-10,89533708,1258
32-11,89537614,1157
32-12,89541520,1057
32-13,89545426,1120
32-14,89549332,1213
32-15,89553238,1165
32-16,89557144,1055
32-17,89561050,1067
32-18,89564956,1157
32-19,89568862,1140
32-20,89572768,1033
32-21,89576674,1007
32-22,89580580,1079
32-23,89584486,1100
32-24,89588392,998
32-25,89592298,945
32-26,89596204,1046
32-27,89600110,1107
32-28,89604016,1049
32-29,89607922,1003
32-30,89611828,1018
32-31,89615734,1052
32-32,89619640,986
32-1,89623734,858
32-2,89627640,886
32-3,89631546,1006
32-4,89635452,983
32-5,89639358,854
32-6,89643264,837
32-7,89647170,956
32-8,89651076,999
32-9,89654982,905
32-10,89658888,863
32-11,89662794,945
32-12,89666700,1021
32-13,89670606,957
32-14,89674512,854
32-15,89678418,900
32-16,89682324,995
32-17,89686230,929
32-18,89690136,788
32-19,89694042,791
32-20,89697948,909
32-21,89701854,917
32-22,89705760,792
32-23,89709666,760
32-24,89713572,882
32-25,89717478,935
32-26,89721384,832
32-27,89725290,756
32-28,89729196,842
32-29,89733102,937
32-30,89737008,851
32-31,89740914,725
32-32,89744820,764
32-1,89748579,847
32-2,89752485,798
32-3,89756391,692
32-4,89760297,701
32-5,89764203,821
32-6,89768109,857
32-7,89772015,744
32-8,89775921,664
32-9,89779827,739
32-10,89783733,795
32-11,89787639,711
32-12,89791545,648
32-13,89795451,727
32-14,89799357,822
32-15,89803263,778
32-16,89807169,672
32-17,89811075,704
32-18,89814981,811
32-19,89818887,780
32-20,89822793,654
32-21,89826699,628
32-22,89830605,712
32-23,89834511,734
32-24,89838417,636
32-25,89842323,581
32-26,89846229,682
32-27,89850135,738
32-28,89854041,647
32-29,89857947,622
32-30,89861853,668
32-31,89865759,663
32-32,89869665,624
32-1,89873547,565
32-2,89877453,568
32-3,89881359,658
32-4,89885265,676
32-5,89889171,588
32-6,89893077,566
32-7,89896983,675
32-8,89900889,734
32-9,89904795,642
32-10,89908701,576
32-11,89912607,651
32-12,89916513,720
32-13,89920419,633
32-14,89924325,524
32-15,89928231,571
32-16,89932137,659
32-17,89936043,596
32-18,89939949,463
32-19,89943855,471
32-20,89947761,585
32-21,89951667,591
32-22,89955573,466
32-23,89959479,414
32-24,89963385,519
32-25,89967291,596
32-26,89971197,510
32-27,89975103,410
32-28,89979009,482
32-29,89982915,594
32-30,89986821,512
32-31,89990727,384
32-32,89994633,453
32-1,89998544,579
32-2,90002450,544
32-3,90006356,431
32-4,90010262,439
32-5,90014168,543
32-6,90018074,555
32-7,90021980,444
32-8,90025886,398
32-9,90029792,486
32-10,90033698,531
32-11,90037604,432
32-12,90041510,347
32-13,90045416,407
32-14,90049322,483
32-15,90053228,427
32-16,90057134,332
32-17,90061040,365
32-18,90064946,466
32-19,90068852,448
32-20,90072758,347
32-21,90076664,357
32-22,90080570,464
32-23,90084476,476
32-24,90088382,360
32-25,90092288,305
32-26,90096194,390
32-27,90100100,431
32-28,90104006,353
32-29,90107912,317
32-30,90111818,376
32-31,90115724,433
32-32,90119630,395
32-1,90123542,312
32-2,90127448,357
32-3,90131354,497
32-4,90135260,491
32-5,90139166,346
32-6,90143072,298
32-7,90146978,403
32-8,90150884,445
32-9,90154790,320
32-10,90158696,250
32-11,90162602,367
32-12,90166508,456
32-13,90170414,377
32-14,90174320,294
32-15,90178226,359
32-16,90182132,453
32-17,90186038,413
32-18,90189944,317
32-19,90193850,320
32-20,90197756,392
32-21,90201662,402
32-22,90205568,317
32-23,90209474,285
32-24,90213380,383
32-25,90217286,445
32-26,90221192,358
32-27,90225098,264
32-28,90229004,329
32-29,90232910,436
32-30,90236816,354
32-31,90240722,205
32-32,90244628,241
32-1,90248539,369
32-2,90252445,338
32-3,90256351,217
32-4,90260257,244
32-5,90264163,362
32-6,90268069,373
32-7,90271975,270
32-8,90275881,214
32-9,90279787,307
32-10,90283693,355
32-11,90287599,218
32-12,90291505,139
32-13,90295411,256
32-14,90299317,353
32-15,90303223,273
32-16,90307129,170
32-17,90311035,223
32-18,90314941,313
32-19,90318847,270
32-20,90322753,159
32-21,90326659,157
32-22,90330565,269
32-23,90334471,301
32-24,90338377,189
32-25,90342283,152
32-26,90346189,280
32-27,90350095,339
32-28,90354001,245
32-29,90357907,195
32-30,90361813,241
32-31,90365719,277
32-32,90369625,228
32-1,90373903,144
32-2,90377809,177
32-3,90381715,273
32-4,90385621,236
32-5,90389527,122
32-6,90393433,136
32-7,90397339,254
32-8,90401245,269
32-9,90405151,158
32-10,90409057,102
32-11,90412963,184
32-12,90416869,245
32-13,90420775,151
32-14,90424681,50
32-15,90428587,115
32-16,90432493,228
32-17,90436399,200
32-18,90440305,110
32-19,90444211,153
32-20,90448117,277
32-21,90452023,261
32-22,90455929,111
32-23,90459835,87
32-24,90463741,220
32-25,90467647,267
32-26,90471553,176
32-27,90475459,124
32-28,90479365,219
32-29,90483271,295
32-30,90487177,164
32-31,90491083,17
32-32,90494989,93
32-1,90498535,230
32-2,90502441,186
32-3,90506347,51
32-4,90510253,78
32-5,90514159,225
32-6,90518065,246
32-7,90521971,126
32-8,90525877,100
32-9,90529783,219
32-10,90533689,256
32-11,90537595,164
32-12,90541501,130
32-13,90545407,228
32-14,90549313,311
32-15,90553219,242
32-16,90557125,143
32-17,90561031,187
32-18,90564937,279
32-19,90568843,248
32-20,90572749,132
32-21,90576655,126
32-22,90580561,250
32-23,90584467,282
32-24,90588373,156
32-25,90592279,99
32-26,90596185,204
32-27,90600091,255
32-28,90603997,153
32-29,90607903,126
32-30,90611809,225
32-31,90615715,259
32-32,90619621,172
32-1,90623532,92
32-2,90627438,138
32-3,90631344,237
32-4,90635250,217
32-5,90639156,106
32-6,90643062,103
32-7,90646968,240
32-8,90650874,270
32-9,90654780,130
32-10,90658686,86
32-11,90662592,198
32-12,90666498,232
32-13,90670404,120
32-14,90674310,59
32-15,90678216,152
32-16,90682122,231
32-17,90686028,165
32-18,90689934,68
32-19,90693840,116
32-20,90697746,243
32-21,90701652,229
32-22,90705558,95
32-23,90709464,75
32-24,90713370,188
32-25,90717276,232
32-26,90721182,144
32-27,90725088,79
32-28,90728994,175
32-29,90732900,284
32-30,90736806,189
32-31,90740712,60
32-32,90744618,122
32-1,90748530,236
32-2,90752436,211
32-3,90756342,102
32-4,90760248,109
32-5,90764154,220
32-6,90768060,197
32-7,90771966,42
32-8,90775872,-2
32-9,90779778,115
32-10,90783684,186
32-11,90787590,109
32-12,90791496,62
32-13,90795402,165
32-14,90799308,255
32-15,90803214,189
32-16,90807120,94
32-17,90811026,141
32-18,90814932,247
32-19,90818838,218
32-20,90822744,96
32-21,90826650,88
32-22,90830556,207
32-23,90834462,248
32-24,90838368,136
32-25,90842274,94
32-26,90846180,217
32-27,90850086,265
32-28,90853992,168
32-29,90857898,123
32-30,90861804,174
32-31,90865710,213
32-32,90869616,149
32-1,90873528,41
32-2,90877434,66
32-3,90881340,167
32-4,90885246,145
32-5,90889152,57
32-6,90893058,80
32-7,90896964,195
32-8,90900870,207
32-9,90904776,92
32-10,90908682,49
32-11,90912588,138
32-12,90916494,191
32-13,90920400,105
32-14,90924306,24
32-15,90928212,96
32-16,90932118,215
32-17,90936024,175
32-18,90939930,54
32-19,90943836,98
32-20,90947742,226
32-21,90951648,197
32-22,90955554,94
32-23,90959460,125
32-24,90963366,231
32-25,90967272,244
32-26,90971178,142
32-27,90975084,72
32-28,90978990,161
32-29,90982896,264
32-30,90986802,171
32-31,90990708,38
32-32,90994614,79
32-1,90998647,165
32-2,91002553,111
32-3,91006459,-9
32-4,91010365,24
32-5,91014271,172
32-6,91018177,190
32-7,91022083,87
32-8,91025989,71
32-9,91029895,171
32-10,91033801,206
32-11,91037707,100
32-12,91041613,19
32-13,91045519,69
32-14,91049425,122
32-15,91053331,54
32-16,91057237,-40
32-17,91061143,16
32-18,91065049,146
32-19,91068955,117
32-20,91072861,-21
32-21,91076767,-26
32-22,91080673,77
32-23,91084579,76
32-24,91088485,-31
32-25,91092391,-57
32-26,91096297,38
32-27,91100203,68
32-28,91104109,-15
32-29,91108015,-37
32-30,91111921,45
32-31,91115827,92
32-32,91119733,24
32-1,91123706,-74
32-2,91127612,-52
32-3,91131518,47
32-4,91135424,31
32-5,91139330,-87
32-6,91143236,-85
32-7,91147142,48
32-8,91151048,89
32-9,91154954,-7
32-10,91158860,-38
32-11,91162766,91
32-12,91166672,179
32-13,91170578,64
32-14,91174484,-41
32-15,91178390,32
32-16,91182296,105
32-17,91186202,26
32-18,91190108,-66
32-19,91194014,-6
32-20,91197920,93
32-21,91201826,55
32-22,91205732,-54
32-23,91209638,-47
32-24,91213544,72
32-25,91217450,124
32-26,91221356,54
32-27,91225262,3
32-28,91229168,88
32-29,91233074,161
32-30,91236980,37
32-31,91240886,-93
32-32,91244792,-25
32-1,91248520,50
32-2,91252426,-23
32-3,91256332,-123
32-4,91260238,-86
32-5,91264144,28
32-6,91268050,19
32-7,91271956,-70
32-8,91275862,-41
32-9,91279768,77
32-10,91283674,99
32-11,91287580,-23
32-12,91291486,-107
32-13,91295392,-27
32-14,91299298,58
32-15,91303204,8
32-16,91307110,-66
32-17,91311016,-16
32-18,91314922,66
32-19,91318828,-3
32-20,91322734,-139
32-21,91326640,-115
32-22,91330546,11
32-23,91334452,20
32-24,91338358,-90
32-25,91342264,-103
32-26,91346170,20
32-27,91350076,48
32-28,91353982,-49
32-29,91357888,-59
32-30,91361794,9
32-31,91365700,30
32-32,91369606,-33
32-1,91373518,-110
32-2,91377424,-49
32-3,91381330,69
32-4,91385236,25
32-5,91389142,-87
32-6,91393048,-62
32-7,91396954,36
32-8,91400860,2
32-9,91404766,-138
32-10,91408672,-176
32-11,91412578,-76
32-12,91416484,-24
32-13,91420390,-120
32-14,91424296,-202
32-15,91428202,-132
32-16,91432108,-46
32-17,91436014,-103
32-18,91439920,-192
32-19,91443826,-140
32-20,91447732,-44
32-21,91451638,-83
32-22,91455544,-181
32-23,91459450,-152
32-24,91463356,-38
32-25,91467262,-23
32-26,91471168,-123
32-27,91475074,-168
32-28,91478980,-61
32-29,91482886,31
32-30,91486792,-70
32-31,91490698,-187
32-32,91494604,-103
32-1,91498516,19
32-2,91502422,-36
32-3,91506328,-148
32-4,91510234,-112
32-5,91514140,-4
32-6,91518046,-14
32-7,91521952,-126
32-8,91525858,-155
32-9,91529764,-38
32-10,91533670,13
32-11,91537576,-112
32-12,91541482,-170
32-13,91545388,-52
32-14,91549294,41
32-15,91553200,-16
32-16,91557106,-102
32-17,91561012,-52
32-18,91564918,34
32-19,91568824,-28
32-20,91572730,-148
32-21,91576636,-142
32-22,91580542,-40
32-23,91584448,-20
32-24,91588354,-133
32-25,91592260,-176
32-26,91596166,-64
32-27,91600072,-40
32-28,91603978,-152
32-29,91607884,-164
32-30,91611790,-74
32-31,91615696,-38
32-32,91619602,-108
32-1,91623635,-185
32-2,91627541,-124
32-3,91631447,-8
32-4,91635353,-30
32-5,91639259,-144
32-6,91643165,-122
32-7,91647071,22
32-8,91650977,34
32-9,91654883,-88
32-10,91658789,-110
32-11,91662695,-15
32-12,91666601,17
32-13,91670507,-80
32-14,91674413,-143
32-15,91678319,-45
32-16,91682225,44
32-17,91686131,-23
32-18,91690037,-106
32-19,91693943,-56
32-20,91697849,54
32-21,91701755,38
32-22,91705661,-97
32-23,91709567,-124
32-24,91713473,-17
32-25,91717379,18
32-26,91721285,-83
32-27,91725191,-175
32-28,91729097,-102
32-29,91733003,1
32-30,91736909,-99
32-31,91740815,-221
32-32,91744721,-133
32-1,91748511,-15
32-2,91752417,-61
32-3,91756323,-145
32-4,91760229,-71
32-5,91764135,58
32-6,91768041,17
32-7,91771947,-129
32-8,91775853,-132
32-9,91779759,3
32-10,91783665,23
32-11,91787571,-104
32-12,91791477,-138
32-13,91795383,-30
32-14,91799289,23
32-15,91803195,-59
32-16,91807101,-129
32-17,91811007,-56
32-18,91814913,33
32-19,91818819,-39
32-20,91822725,-165
32-21,91826631,-143
32-22,91830537,-39
32-23,91834443,-44
32-24,91838349,-136
32-25,91842255,-122
32-26,91846161,10
32-27,91850067,22
32-28,91853973,-97
32-29,91857879,-115
32-30,91861785,-28
32-31,91865691,-6
32-32,91869597,-79
32-1,91873692,-141
32-2,91877598,-78
32-3,91881504,24
32-4,91885410,-12
32-5,91889316,-122
32-6,91893222,-90
32-7,91897128,27
32-8,91901034,7
32-9,91904940,-115
32-10,91908846,-145
32-11,91912752,-34
32-12,91916658,32
32-13,91920564,-88
32-14,91924470,-183
32-15,91928376,-79
32-16,91932282,18
32-17,91936188,-60
32-18,91940094,-154
32-19,91944000,-87
32-20,91947906,39
32-21,91951812,17
32-22,91955718,-120
32-23,91959624,-115
32-24,91963530,49
32-25,91967436,93
32-26,91971342,-26
32-27,91975248,-81
32-28,91979154,26
32-29,91983060,115
32-30,91986966,-20
32-31,91990872,-166
32-32,91994778,-54
32-1,91998506,72
32-2,92002412,-21
32-3,92006318,-144
32-4,92010224,-116
32-5,92014130,-37
32-6,92018036,-82
32-7,92021942,-200
32-8,92025848,-199
32-9,92029754,-90
32-10,92033660,-85
32-11,92037566,-196
32-12,92041472,-201
32-13,92045378,-69
32-14,92049284,10
32-15,92053190,-49
32-16,92057096,-135
32-17,92061002,-96
32-18,92064908,5
32-19,92068814,-32
32-20,92072720,-152
32-21,92076626,-133
32-22,92080532,-15
32-23,92084438,-19
32-24,92088344,-138
32-25,92092250,-151
32-26,92096156,-16
32-27,92100062,7
32-28,92103968,-108
32-29,92107874,-98
32-30,92111780,-15
32-31,92115686,-30
32-32,92119592,-119
32-1,92123504,-181
32-2,92127410,-93
32-3,92131316,33
32-4,92135222,-11
32-5,92139128,-111
32-6,92143034,-87
32-7,92146940,-16
32-8,92150846,-51
32-9,92154752,-158
32-10,92158658,-179
32-11,92162564,-60
32-12,92166470,26
32-13,92170376,-53
32-14,92174282,-119
32-15,92178188,-21
32-16,92182094,50
32-17,92186000,-66
32-18,92189906,-162
32-19,92193812,-68
32-20,92197718,42
32-21,92201624,6
32-22,92205530,-78
32-23,92209436,-60
32-24,92213342,41
32-25,92217248,45
32-26,92221154,-73
32-27,92225060,-126
32-28,92228966,-8
32-29,92232872,92
32-30,92236778,-27
32-31,92240684,-146
32-32,92244590,-69
32-1,92248502,4
32-2,92252408,-67
32-3,92256314,-162
32-4,92260220,-128
32-5,92264126,-20
32-6,92268032,-39
32-7,92271938,-146
32-8,92275844,-131
32-9,92279750,0
32-10,92283656,-2
32-11,92287562,-134
32-12,92291468,-127
32-13,92295374,1
32-14,92299280,27
32-15,92303186,-68
32-16,92307092,-133
32-17,92310998,-52
32-18,92314904,57
32-19,92318810,0
32-20,92322716,-112
32-21,92326622,-69
32-22,92330528,44
32-23,92334434,21
32-24,92338340,-112
32-25,92342246,-124
32-26,92346152,3
32-27,92350058,11
32-28,92353964,-96
32-29,92357870,-101
32-30,92361776,-25
32-31,92365682,17
32-32,92369588,-47
32-1,92373499,-134
32-2,92377405,-88
32-3,92381311,-8
32-4,92385217,-60
32-5,92389123,-147
32-6,92393029,-121
32-7,92396935,-34
32-8,92400841,-53
32-9,92404747,-177
32-10,92408653,-186
32-11,92412559,-34
32-12,92416465,25
32-13,92420371,-77
32-14,92424277,-119
32-15,92428183,-18
