32-1,15765026,-348
32-2,15768932,673
32-3,15772838,486
32-4,15776744,-603
32-5,15780650,-632
32-6,15784556,422
32-7,15788462,646
32-8,15792368,-355
32-9,15796274,-783
32-10,15800180,132
32-11,15804086,750
32-12,15807992,-49
32-13,15811898,-824
32-14,15815804,-172
32-15,15819710,730
32-16,15823616,245
32-17,15827522,-756
32-18,15831428,-478
32-19,15835334,565
32-20,15839240,510
32-21,15843146,-520
32-22,15847052,-662
32-23,15850958,356
32-24,15854864,693
32-25,15858770,-278
32-26,15862676,-810
32-27,15866582,33
32-28,15870488,726
32-29,15874394,19
32-30,15878300,-830
32-31,15882206,-285
32-32,15886112,648
32-1,15890024,243
32-2,15893930,-749
32-3,15897836,-524
32-4,15901742,517
32-5,15905648,508
32-6,15909554,-544
32-7,15913460,-741
32-8,15917366,275
32-9,15921272,684
32-10,15925178,-231
32-11,15929084,-807
32-12,15932990,7
32-13,15936896,739
32-14,15940802,53
32-15,15944708,-820
32-16,15948614,-322
32-17,15952520,657
32-18,15956426,375
32-19,15960332,-657
32-20,15964238,-566
32-21,15968144,503
32-22,15972050,597
32-23,15975956,-460
32-24,15979862,-768
32-25,15983768,176
32-26,15987674,668
32-27,15991580,-194
32-28,15995486,-859
32-29,15999392,-65
32-30,16003298,731
32-31,16007204,36
32-32,16011110,-878
32-1,16015021,-420
32-2,16018927,564
32-3,16022833,371
32-4,16026739,-626
32-5,16030645,-596
32-6,16034551,454
32-7,16038457,635
32-8,16042363,-378
32-9,16046269,-759
32-10,16050175,165
32-11,16054081,719
32-12,16057987,-99
32-13,16061893,-804
32-14,16065799,-126
32-15,16069705,731
32-16,16073611,256
32-17,16077517,-692
32-18,16081423,-409
32-19,16085329,581
32-20,16089235,449
32-21,16093141,-595
32-22,16097047,-662
32-23,16100953,390
32-24,16104859,674
32-25,16108765,-330
32-26,16112671,-821
32-27,16116577,55
32-28,16120483,720
32-29,16124389,23
32-30,16128295,-764
32-31,16132201,-199
32-32,16136107,709
32-1,16140019,257
32-2,16143925,-768
32-3,16147831,-529
32-4,16151737,507
32-5,16155643,475
32-6,16159549,-536
32-7,16163455,-672
32-8,16167361,336
32-9,16171267,686
32-10,16175173,-255
32-11,16179079,-811
32-12,16182985,6
32-13,16186891,706
32-14,16190797,31
32-15,16194703,-776
32-16,16198609,-247
32-17,16202515,677
32-18,16206421,329
32-19,16210327,-684
32-20,16214233,-550
32-21,16218139,478
32-22,16222045,529
32-23,16225951,-482
32-24,16229857,-715
32-25,16233763,279
32-26,16237669,755
32-27,16241575,-155
32-28,16245481,-807
32-29,16249387,-16
32-30,16253293,741
32-31,16257199,86
32-32,16261105,-782
32-1,16265017,-324
32-2,16268923,649
32-3,16272829,407
32-4,16276735,-629
32-5,16280641,-600
32-6,16284547,450
32-7,16288453,621
32-8,16292359,-413
32-9,16296265,-789
32-10,16300171,187
32-11,16304077,765
32-12,16307983,-71
32-13,16311889,-775
32-14,16315795,-81
32-15,16319701,734
32-16,16323607,189
32-17,16327513,-731
32-18,16331419,-371
32-19,16335325,596
32-20,16339231,424
32-21,16343137,-570
32-22,16347043,-598
32-23,16350949,413
32-24,16354855,639
32-25,16358761,-376
32-26,16362667,-825
32-27,16366573,80
32-28,16370479,729
32-29,16374385,-1
32-30,16378291,-763
32-31,16382197,-139
32-32,16386103,746
32-1,16390014,242
32-2,16393920,-742
32-3,16397826,-433
32-4,16401732,601
32-5,16405638,509
32-6,16409544,-558
32-7,16413450,-711
32-8,16417356,324
32-9,16421262,701
32-10,16425168,-211
32-11,16429074,-691
32-12,16432980,158
32-13,16436886,802
32-14,16440792,87
32-15,16444698,-694
32-16,16448604,-130
32-17,16452510,755
32-18,16456416,337
32-19,16460322,-670
32-20,16464228,-467
32-21,16468134,577
32-22,16472040,548
32-23,16475946,-530
32-24,16479852,-753
32-25,16483758,216
32-26,16487664,631
32-27,16491570,-234
32-28,16495476,-786
32-29,16499382,26
32-30,16503288,733
32-31,16507194,11
32-32,16511100,-869
32-1,16515012,-348
32-2,16518918,625
32-3,16522824,305
32-4,16526730,-719
32-5,16530636,-614
32-6,16534542,411
32-7,16538448,511
32-8,16542354,-487
32-9,16546260,-768
32-10,16550166,207
32-11,16554072,686
32-12,16557978,-195
32-13,16561884,-808
32-14,16565790,-13
32-15,16569696,773
32-16,16573602,154
32-17,16577508,-759
32-18,16581414,-356
32-19,16585320,636
32-20,16589226,443
32-21,16593132,-593
32-22,16597038,-595
32-23,16600944,440
32-24,16604850,631
32-25,16608756,-370
32-26,16612662,-753
32-27,16616568,194
32-28,16620474,821
32-29,16624380,36
32-30,16628286,-741
32-31,16632192,-109
32-32,16636098,784
32-1,16640010,302
32-2,16643916,-681
32-3,16647822,-392
32-4,16651728,612
32-5,16655634,499
32-6,16659540,-540
32-7,16663446,-645
32-8,16667352,367
32-9,16671258,647
32-10,16675164,-349
32-11,16679070,-808
32-12,16682976,123
32-13,16686882,755
32-14,16690788,-37
32-15,16694694,-813
32-16,16698600,-186
32-17,16702506,754
32-18,16706412,344
32-19,16710318,-666
32-20,16714224,-437
32-21,16718130,627
32-22,16722036,592
32-23,16725942,-502
32-24,16729848,-685
32-25,16733754,356
32-26,16737660,722
32-27,16741566,-237
32-28,16745472,-753
32-29,16749378,150
32-30,16753284,841
32-31,16757190,52
32-32,16761096,-787
32-1,16765007,-177
32-2,16768913,794
32-3,16772819,418
32-4,16776725,-607
32-5,16780631,-430
32-6,16784537,611
32-7,16788443,617
32-8,16792349,-452
32-9,16796255,-690
32-10,16800161,348
32-11,16804067,806
32-12,16807973,-118
32-13,16811879,-731
32-14,16815785,50
32-15,16819691,788
32-16,16823597,122
32-17,16827503,-790
32-18,16831409,-332
32-19,16835315,651
32-20,16839221,369
32-21,16843127,-653
32-22,16847033,-549
32-23,16850939,514
32-24,16854845,649
32-25,16858751,-386
32-26,16862657,-730
32-27,16866563,225
32-28,16870469,727
32-29,16874375,-152
32-30,16878281,-870
32-31,16882187,-165
32-32,16886093,697
32-1,16890005,135
32-2,16893911,-839
32-3,16897817,-451
32-4,16901723,583
32-5,16905629,397
32-6,16909535,-649
32-7,16913441,-656
32-8,16917347,385
32-9,16921253,595
32-10,16925159,-390
32-11,16929065,-784
32-12,16932971,133
32-13,16936877,751
32-14,16940783,-23
32-15,16944689,-775
32-16,16948595,-101
32-17,16952501,819
32-18,16956407,340
32-19,16960313,-668
32-20,16964219,-400
32-21,16968125,634
32-22,16972031,533
32-23,16975937,-533
32-24,16979843,-640
32-25,16983749,381
32-26,16987655,655
32-27,16991561,-365
32-28,16995467,-866
32-29,16999373,79
32-30,17003279,777
32-31,17007185,-5
32-32,17011091,-826
32-1,17015002,-229
32-2,17018908,686
32-3,17022814,288
32-4,17026720,-676
32-5,17030626,-435
32-6,17034532,629
32-7,17038438,631
32-8,17042344,-436
32-9,17046250,-641
32-10,17050156,355
32-11,17054062,719
32-12,17057968,-205
32-13,17061874,-744
32-14,17065780,94
32-15,17069686,845
32-16,17073592,201
32-17,17077498,-654
32-18,17081404,-167
32-19,17085310,785
32-20,17089216,438
32-21,17093122,-618
32-22,17097028,-508
32-23,17100934,522
32-24,17104840,580
32-25,17108746,-473
32-26,17112652,-757
32-27,17116558,219
32-28,17120464,695
32-29,17124370,-163
32-30,17128276,-799
32-31,17132182,-41
32-32,17136088,743
32-1,17140000,108
32-2,17143906,-795
32-3,17147812,-343
32-4,17151718,662
32-5,17155624,469
32-6,17159530,-553
32-7,17163436,-555
32-8,17167342,465
32-9,17171248,624
32-10,17175154,-408
32-11,17179060,-780
32-12,17182966,169
32-13,17186872,746
32-14,17190778,-58
32-15,17194684,-783
32-16,17198590,-111
32-17,17202496,737
32-18,17206402,217
32-19,17210308,-725
32-20,17214214,-377
32-21,17218120,644
32-22,17222026,468
32-23,17225932,-608
32-24,17229838,-646
32-25,17233744,408
32-26,17237650,696
32-27,17241556,-264
32-28,17245462,-706
32-29,17249368,217
32-30,17253274,819
32-31,17257180,-30
32-32,17261086,-832
32-1,17264998,-206
32-2,17268904,709
32-3,17272810,252
32-4,17276716,-793
32-5,17280622,-545
32-6,17284528,544
32-7,17288434,503
32-8,17292340,-555
32-9,17296246,-694
32-10,17300152,329
32-11,17304058,658
32-12,17307964,-303
32-13,17311870,-810
32-14,17315776,66
32-15,17319682,776
32-16,17323588,85
32-17,17327494,-743
32-18,17331400,-221
32-19,17335306,723
32-20,17339212,383
32-21,17343118,-636
32-22,17347024,-487
32-23,17350930,556
32-24,17354836,581
32-25,17358742,-483
32-26,17362648,-720
32-27,17366554,292
32-28,17370460,736
32-29,17374366,-164
32-30,17378272,-800
32-31,17382178,-38
32-32,17386084,747
32-1,17390026,107
32-2,17393932,-803
32-3,17397838,-324
32-4,17401744,666
32-5,17405650,366
32-6,17409556,-683
32-7,17413462,-609
32-8,17417368,430
32-9,17421274,575
32-10,17425180,-432
32-11,17429086,-760
32-12,17432992,225
32-13,17436898,759
32-14,17440804,-99
32-15,17444710,-768
32-16,17448616,-55
32-17,17452522,752
32-18,17456428,205
32-19,17460334,-717
32-20,17464240,-346
32-21,17468146,647
32-22,17472052,436
32-23,17475958,-643
32-24,17479864,-654
32-25,17483770,433
32-26,17487676,666
32-27,17491582,-372
32-28,17495488,-757
32-29,17499394,240
32-30,17503300,779
32-31,17507206,-132
32-32,17511112,-867
32-1,17514993,-182
32-2,17518899,647
32-3,17522805,121
32-4,17526711,-845
32-5,17530617,-537
32-6,17534523,492
32-7,17538429,390
32-8,17542335,-648
32-9,17546241,-714
32-10,17550147,346
32-11,17554053,643
32-12,17557959,-353
32-13,17561865,-846
32-14,17565771,49
32-15,17569677,728
32-16,17573583,16
32-17,17577489,-768
32-18,17581395,-196
32-19,17585301,716
32-20,17589207,298
32-21,17593113,-704
32-22,17597019,-470
32-23,17600925,572
32-24,17604831,536
32-25,17608737,-522
32-26,17612643,-694
32-27,17616549,328
32-28,17620455,725
32-29,17624361,-193
32-30,17628267,-790
32-31,17632173,-3
32-32,17636079,731
32-1,17639991,40
32-2,17643897,-839
32-3,17647803,-335
32-4,17651709,589
32-5,17655615,217
32-6,17659521,-784
32-7,17663427,-608
32-8,17667333,430
32-9,17671239,486
32-10,17675145,-542
32-11,17679051,-821
32-12,17682957,151
32-13,17686863,620
32-14,17690769,-246
32-15,17694675,-871
32-16,17698581,-132
32-17,17702487,647
32-18,17706393,68
32-19,17710299,-801
32-20,17714205,-336
32-21,17718111,650
32-22,17722017,364
32-23,17725923,-681
32-24,17729829,-598
32-25,17733735,449
32-26,17737641,586
32-27,17741547,-416
32-28,17745453,-733
32-29,17749359,250
32-30,17753265,795
32-31,17757171,-66
32-32,17761077,-773
32-1,17764988,-81
32-2,17768894,734
32-3,17772800,187
32-4,17776706,-737
32-5,17780612,-377
32-6,17784518,612
32-7,17788424,458
32-8,17792330,-555
32-9,17796236,-589
32-10,17800142,443
32-11,17804048,680
32-12,17807954,-332
32-13,17811860,-786
32-14,17815766,115
32-15,17819672,734
32-16,17823578,-30
32-17,17827484,-803
32-18,17831390,-228
32-19,17835296,642
32-20,17839202,216
32-21,17843108,-754
32-22,17847014,-488
32-23,17850920,554
32-24,17854826,481
32-25,17858732,-578
32-26,17862638,-722
32-27,17866544,279
32-28,17870450,632
32-29,17874356,-268
32-30,17878262,-780
32-31,17882168,55
32-32,17886074,761
32-1,17889986,72
32-2,17893892,-766
32-3,17897798,-261
32-4,17901704,663
32-5,17905610,304
32-6,17909516,-723
32-7,17913422,-552
32-8,17917328,489
32-9,17921234,494
32-10,17925140,-544
32-11,17929046,-746
32-12,17932952,273
32-13,17936858,705
32-14,17940764,-203
32-15,17944670,-789
32-16,17948576,-3
32-17,17952482,715
32-18,17956388,43
32-19,17960294,-856
32-20,17964200,-367
32-21,17968106,649
32-22,17972012,340
32-23,17975918,-732
32-24,17979824,-629
32-25,17983730,424
32-26,17987636,514
32-27,17991542,-520
32-28,17995448,-792
32-29,17999354,229
32-30,18003260,734
32-31,18007166,-139
32-32,18011072,-780
32-1,18014983,-27
32-2,18018889,779
32-3,18022795,193
32-4,18026701,-718
32-5,18030607,-311
32-6,18034513,658
32-7,18038419,426
32-8,18042325,-619
32-9,18046231,-633
32-10,18050137,400
32-11,18054043,607
32-12,18057949,-405
32-13,18061855,-785
32-14,18065761,164
32-15,18069667,730
32-16,18073573,-83
32-17,18077479,-809
32-18,18081385,-148
32-19,18085291,696
32-20,18089197,189
32-21,18093103,-722
32-22,18097009,-379
32-23,18100915,609
32-24,18104821,474
32-25,18108727,-555
32-26,18112633,-621
32-27,18116539,390
32-28,18120445,658
32-29,18124351,-297
32-30,18128257,-802
32-31,18132163,12
32-32,18136069,660
32-1,18140073,-61
32-2,18143979,-853
32-3,18147885,-249
32-4,18151791,709
32-5,18155697,325
32-6,18159603,-674
32-7,18163509,-467
32-8,18167415,552
32-9,18171321,520
32-10,18175227,-515
32-11,18179133,-676
32-12,18183039,343
32-13,18186945,686
32-14,18190851,-278
32-15,18194757,-807
32-16,18198663,68
32-17,18202569,795
32-18,18206475,58
32-19,18210381,-834
32-20,18214287,-294
32-21,18218193,668
32-22,18222099,320
32-23,18226005,-679
32-24,18229911,-534
32-25,18233817,493
32-26,18237723,570
32-27,18241629,-466
32-28,18245535,-741
32-29,18249441,281
32-30,18253347,749
32-31,18257253,-174
32-32,18261159,-810
32-1,18264979,-54
32-2,18268885,713
32-3,18272791,108
32-4,18276697,-769
32-5,18280603,-313
32-6,18284509,664
32-7,18288415,392
32-8,18292321,-662
32-9,18296227,-597
32-10,18300133,489
32-11,18304039,654
32-12,18307945,-364
32-13,18311851,-705
32-14,18315757,242
32-15,18319663,787
32-16,18323569,-48
32-17,18327475,-760
32-18,18331381,-64
32-19,18335287,761
32-20,18339193,194
32-21,18343099,-752
32-22,18347005,-386
32-23,18350911,612
32-24,18354817,430
32-25,18358723,-611
32-26,18362629,-636
32-27,18366535,399
32-28,18370441,654
32-29,18374347,-292
32-30,18378253,-708
32-31,18382159,167
32-32,18386065,772
32-1,18389976,19
32-2,18393882,-745
32-3,18397788,-138
32-4,18401694,724
32-5,18405600,242
32-6,18409506,-708
32-7,18413412,-381
32-8,18417318,642
32-9,18421224,519
32-10,18425130,-553
32-11,18429036,-686
32-12,18432942,341
32-13,18436848,683
32-14,18440754,-248
32-15,18444660,-741
32-16,18448566,99
32-17,18452472,775
32-18,18456378,78
32-19,18460284,-744
32-20,18464190,-190
32-21,18468096,753
32-22,18472002,378
32-23,18475908,-625
32-24,18479814,-434
32-25,18483720,614
32-26,18487626,613
32-27,18491532,-473
32-28,18495438,-690
32-29,18499344,338
32-30,18503250,717
32-31,18507156,-232
32-32,18511062,-776
32-1,18514974,36
32-2,18518880,719
32-3,18522786,54
32-4,18526692,-774
32-5,18530598,-258
32-6,18534504,714
32-7,18538410,405
32-8,18542316,-603
32-9,18546222,-469
32-10,18550128,560
32-11,18554034,619
32-12,18557940,-418
32-13,18561846,-706
32-14,18565752,269
32-15,18569658,762
32-16,18573564,-94
32-17,18577470,-744
32-18,18581376,-9
32-19,18585282,799
32-20,18589188,205
32-21,18593094,-716
32-22,18597000,-294
32-23,18600906,683
32-24,18604812,428
32-25,18608718,-620
32-26,18612624,-583
32-27,18616530,487
32-28,18620436,703
32-29,18624342,-278
32-30,18628248,-666
32-31,18632154,257
32-32,18636060,815
32-1,18639972,-34
32-2,18643878,-779
32-3,18647784,-130
32-4,18651690,690
32-5,18655596,186
32-6,18659502,-734
32-7,18663408,-381
32-8,18667314,647
32-9,18671220,509
32-10,18675126,-532
32-11,18679032,-586
32-12,18682938,438
32-13,18686844,693
32-14,18690750,-279
32-15,18694656,-736
32-16,18698562,155
32-17,18702468,814
32-18,18706374,81
32-19,18710280,-716
32-20,18714186,-147
32-21,18718092,746
32-22,18721998,301
32-23,18725904,-691
32-24,18729810,-403
32-25,18733716,671
32-26,18737622,582
32-27,18741528,-536
32-28,18745434,-665
32-29,18749340,380
32-30,18753246,665
32-31,18757152,-313
32-32,18761058,-811
32-1,18765030,70
32-2,18768936,783
32-3,18772842,50
32-4,18776748,-805
32-5,18780654,-247
32-6,18784560,721
32-7,18788466,362
32-8,18792372,-704
32-9,18796278,-572
32-10,18800184,514
32-11,18804090,585
32-12,18807996,-466
32-13,18811902,-703
32-14,18815808,320
32-15,18819714,770
32-16,18823620,-143
32-17,18827526,-751
32-18,18831432,47
32-19,18835338,801
32-20,18839244,136
32-21,18843150,-739
32-22,18847056,-260
32-23,18850962,676
32-24,18854868,342
32-25,18858774,-702
32-26,18862680,-582
32-27,18866586,507
32-28,18870492,671
32-29,18874398,-309
32-30,18878304,-656
32-31,18882210,264
32-32,18886116,797
32-1,18890028,-38
32-2,18893934,-702
32-3,18897840,35
32-4,18901746,849
32-5,18905652,282
32-6,18909558,-633
32-7,18913464,-248
32-8,18917370,734
32-9,18921276,512
32-10,18925182,-557
32-11,18929088,-603
32-12,18932994,427
32-13,18936900,667
32-14,18940806,-333
32-15,18944712,-740
32-16,18948618,193
32-17,18952524,777
32-18,18956430,-18
32-19,18960336,-761
32-20,18964242,-117
32-21,18968148,761
32-22,18972054,244
32-23,18975960,-762
32-24,18979866,-453
32-25,18983772,603
32-26,18987678,514
32-27,18991584,-578
32-28,18995490,-694
32-29,18999396,402
32-30,19003302,690
32-31,19007208,-328
32-32,19011114,-775
32-1,19014965,95
32-2,19018871,716
32-3,19022777,-6
32-4,19026683,-800
32-5,19030589,-229
32-6,19034495,670
32-7,19038401,256
32-8,19042307,-718
32-9,19046213,-486
32-10,19050119,558
32-11,19054025,544
32-12,19057931,-506
32-13,19061837,-687
32-14,19065743,335
32-15,19069649,736
32-16,19073555,-163
32-17,19077461,-685
32-18,19081367,153
32-19,19085273,875
32-20,19089179,182
32-21,19093085,-710
32-22,19096991,-240
32-23,19100897,696
32-24,19104803,350
32-25,19108709,-688
32-26,19112615,-554
32-27,19116521,495
32-28,19120427,592
32-29,19124333,-408
32-30,19128239,-735
32-31,19132145,167
32-32,19136051,624
32-1,19139962,-235
32-2,19143868,-829
32-3,19147774,-67
32-4,19151680,678
32-5,19155586,73
32-6,19159492,-811
32-7,19163398,-386
32-8,19167304,579
32-9,19171210,332
32-10,19175116,-685
32-11,19179022,-659
32-12,19182928,356
32-13,19186834,530
32-14,19190740,-459
32-15,19194646,-800
32-16,19198552,156
32-17,19202458,709
32-18,19206364,-108
32-19,19210270,-801
32-20,19214176,-109
32-21,19218082,719
32-22,19221988,176
32-23,19225894,-772
32-24,19229800,-412
32-25,19233706,622
32-26,19237612,451
32-27,19241518,-632
32-28,19245424,-645
32-29,19249330,434
32-30,19253236,617
32-31,19257142,-433
32-32,19261048,-853
32-1,19264960,72
32-2,19268866,689
32-3,19272772,-105
32-4,19276678,-871
32-5,19280584,-230
32-6,19284490,667
32-7,19288396,221
32-8,19292302,-774
32-9,19296208,-505
32-10,19300114,558
32-11,19304020,469
32-12,19307926,-586
32-13,19311832,-671
32-14,19315738,368
32-15,19319644,684
32-16,19323550,-285
32-17,19327456,-815
32-18,19331362,57
32-19,19335268,777
32-20,19339174,40
32-21,19343080,-819
32-22,19346986,-245
32-23,19350892,708
32-24,19354798,318
32-25,19358704,-713
32-26,19362610,-553
32-27,19366516,465
32-28,19370422,500
32-29,19374328,-491
32-30,19378234,-708
32-31,19382140,272
32-32,19386046,674
32-1,19390049,-277
32-2,19393955,-869
32-3,19397861,-36
32-4,19401767,707
32-5,19405673,36
32-6,19409579,-847
32-7,19413485,-387
32-8,19417391,570
32-9,19421297,300
32-10,19425203,-707
32-11,19429109,-611
32-12,19433015,449
32-13,19436921,569
32-14,19440827,-451
32-15,19444733,-755
32-16,19448639,220
32-17,19452545,718
32-18,19456451,-163
32-19,19460357,-819
32-20,19464263,-58
32-21,19468169,739
32-22,19472075,108
32-23,19475981,-820
32-24,19479887,-365
32-25,19483793,637
32-26,19487699,402
32-27,19491605,-637
32-28,19495511,-625
32-29,19499417,451
32-30,19503323,651
32-31,19507229,-373
32-32,19511135,-736
32-1,19514955,202
32-2,19518861,768
32-3,19522767,-41
32-4,19526673,-795
32-5,19530579,-151
32-6,19534485,706
32-7,19538391,182
32-8,19542297,-788
32-9,19546203,-445
32-10,19550109,598
32-11,19554015,459
32-12,19557921,-614
32-13,19561827,-711
32-14,19565733,301
32-15,19569639,569
32-16,19573545,-386
32-17,19577451,-831
32-18,19581357,42
32-19,19585263,663
32-20,19589169,-108
32-21,19593075,-889
32-22,19596981,-260
32-23,19600887,658
32-24,19604793,239
32-25,19608699,-748
32-26,19612605,-514
32-27,19616511,537
32-28,19620417,513
32-29,19624323,-540
32-30,19628229,-704
32-31,19632135,343
32-32,19636041,758
32-1,19640014,-170
32-2,19643920,-747
32-3,19647826,89
32-4,19651732,828
32-5,19655638,140
32-6,19659544,-713
32-7,19663450,-196
32-8,19667356,729
32-9,19671262,362
32-10,19675168,-672
32-11,19679074,-527
32-12,19682980,524
32-13,19686886,576
32-14,19690792,-470
32-15,19694698,-740
32-16,19698604,252
32-17,19702510,731
32-18,19706416,-160
32-19,19710322,-784
32-20,19714228,21
32-21,19718134,811
32-22,19722040,160
32-23,19725946,-772
32-24,19729852,-338
32-25,19733758,673
32-26,19737664,437
32-27,19741570,-658
32-28,19745476,-616
32-29,19749382,549
32-30,19753288,692
32-31,19757194,-450
32-32,19761100,-763
32-1,19764950,276
32-2,19768856,787
32-3,19772762,-115
32-4,19776668,-828
32-5,19780574,-110
32-6,19784480,721
32-7,19788386,166
32-8,19792292,-798
32-9,19796198,-447
32-10,19800104,576
32-11,19804010,388
32-12,19807916,-681
32-13,19811822,-686
32-14,19815728,392
32-15,19819634,612
32-16,19823540,-411
32-17,19827446,-817
32-18,19831352,134
32-19,19835258,742
32-20,19839164,-114
32-21,19843070,-923
32-22,19846976,-236
32-23,19850882,670
32-24,19854788,151
32-25,19858694,-838
32-26,19862600,-512
32-27,19866506,539
32-28,19870412,456
32-29,19874318,-578
32-30,19878224,-707
32-31,19882130,300
32-32,19886036,627
32-1,19889948,-318
32-2,19893854,-781
32-3,19897760,131
32-4,19901666,822
32-5,19905572,79
32-6,19909478,-765
32-7,19913384,-214
32-8,19917290,706
32-9,19921196,294
32-10,19925102,-720
32-11,19929008,-478
32-12,19932914,599
32-13,19936820,570
32-14,19940726,-519
32-15,19944632,-726
32-16,19948538,305
32-17,19952444,708
32-18,19956350,-239
32-19,19960256,-814
32-20,19964162,26
32-21,19968068,769
32-22,19971974,77
32-23,19975880,-809
32-24,19979786,-291
32-25,19983692,714
32-26,19987598,397
32-27,19991504,-678
32-28,19995410,-523
32-29,19999316,637
32-30,20003222,725
32-31,20007128,-404
32-32,20011034,-738
32-1,20015098,264
32-2,20019004,765
32-3,20022910,-128
32-4,20026816,-774
32-5,20030722,-5
32-6,20034628,797
32-7,20038534,182
32-8,20042440,-778
32-9,20046346,-355
32-10,20050252,670
32-11,20054158,397
32-12,20058064,-677
32-13,20061970,-602
32-14,20065876,514
32-15,20069782,715
32-16,20073688,-337
32-17,20077594,-741
32-18,20081500,205
32-19,20085406,756
32-20,20089312,-74
32-21,20093218,-800
32-22,20097124,-136
32-23,20101030,726
32-24,20104936,217
32-25,20108842,-724
32-26,20112748,-345
32-27,20116654,676
32-28,20120560,508
32-29,20124466,-548
32-30,20128372,-642
32-31,20132278,386
32-32,20136184,678
32-1,20139943,-347
32-2,20143849,-848
32-3,20147755,85
32-4,20151661,751
32-5,20155567,-32
32-6,20159473,-807
32-7,20163379,-164
32-8,20167285,741
32-9,20171191,268
32-10,20175097,-775
32-11,20179003,-548
32-12,20182909,533
32-13,20186815,501
32-14,20190721,-603
32-15,20194627,-749
32-16,20198533,332
32-17,20202439,675
32-18,20206345,-311
32-19,20210251,-836
32-20,20214157,44
32-21,20218063,774
32-22,20221969,62
32-23,20225875,-773
32-24,20229781,-198
32-25,20233687,752
32-26,20237593,347
32-27,20241499,-715
32-28,20245405,-505
32-29,20249311,626
32-30,20253217,639
32-31,20257123,-478
32-32,20261029,-716
32-1,20264941,314
32-2,20268847,725
32-3,20272753,-232
32-4,20276659,-851
32-5,20280565,-67
32-6,20284471,691
32-7,20288377,26
32-8,20292283,-921
32-9,20296189,-462
32-10,20300095,577
32-11,20304001,311
32-12,20307907,-750
32-13,20311813,-635
32-14,20315719,480
32-15,20319625,588
32-16,20323531,-496
32-17,20327437,-818
32-18,20331343,213
32-19,20335249,764
32-20,20339155,-129
32-21,20343061,-816
32-22,20346967,-66
32-23,20350873,749
32-24,20354779,138
32-25,20358685,-823
32-26,20362591,-401
32-27,20366497,649
32-28,20370403,466
32-29,20374309,-572
32-30,20378215,-588
32-31,20382121,451
32-32,20386027,644
32-1,20389969,-410
32-2,20393875,-835
32-3,20397781,98
32-4,20401687,677
32-5,20405593,-156
32-6,20409499,-935
32-7,20413405,-272
32-8,20417311,627
32-9,20421217,108
32-10,20425123,-885
32-11,20429029,-564
32-12,20432935,441
32-13,20436841,303
32-14,20440747,-746
32-15,20444653,-826
32-16,20448559,244
32-17,20452465,542
32-18,20456371,-512
32-19,20460277,-1053
32-20,20464183,-136
32-21,20468089,562
32-22,20471995,-244
32-23,20475901,-1116
32-24,20479807,-512
32-25,20483713,450
32-26,20487619,37
32-27,20491525,-1002
32-28,20495431,-757
32-29,20499337,362
32-30,20503243,268
32-31,20507149,-908
32-32,20511055,-1057
32-1,20514936,23
32-2,20518842,409
32-3,20522748,-538
32-4,20526654,-1095
32-5,20530560,-221
32-6,20534466,528
32-7,20538372,-193
32-8,20542278,-1059
32-9,20546184,-515
32-10,20550090,459
32-11,20553996,111
32-12,20557902,-955
32-13,20561808,-815
32-14,20565714,293
32-15,20569620,377
32-16,20573526,-652
32-17,20577432,-863
32-18,20581338,182
32-19,20585244,665
32-20,20589150,-239
32-21,20593056,-859
32-22,20596962,-47
32-23,20600868,757
32-24,20604774,109
32-25,20608680,-860
32-26,20612586,-415
32-27,20616492,625
32-28,20620398,396
32-29,20624304,-609
32-30,20628210,-561
32-31,20632116,468
32-32,20636022,672
32-1,20640086,-321
32-2,20643992,-665
32-3,20647898,351
32-4,20651804,909
32-5,20655710,4
32-6,20659616,-692
32-7,20663522,110
32-8,20667428,993
32-9,20671334,431
32-10,20675240,-520
32-11,20679146,-154
32-12,20683052,889
32-13,20686958,734
32-14,20690864,-348
32-15,20694770,-386
32-16,20698676,694
32-17,20702582,941
32-18,20706488,-84
32-19,20710394,-546
32-20,20714300,376
32-21,20718206,1043
32-22,20722112,280
32-23,20726018,-505
32-24,20729924,134
32-25,20733830,1049
32-26,20737736,554
32-27,20741642,-503
32-28,20745548,-235
32-29,20749454,844
32-30,20753360,731
32-31,20757266,-362
32-32,20761172,-452
32-1,20764931,590
32-2,20768837,888
32-3,20772743,-101
32-4,20776649,-633
32-5,20780555,243
32-6,20784461,966
32-7,20788367,241
32-8,20792273,-596
32-9,20796179,-1
32-10,20800085,930
32-11,20803991,470
32-12,20807897,-575
32-13,20811803,-369
32-14,20815709,692
32-15,20819615,716
32-16,20823521,-338
32-17,20827427,-542
32-18,20831333,498
32-19,20835239,889
32-20,20839145,-87
32-21,20843051,-677
32-22,20846957,169
32-23,20850863,939
32-24,20854769,240
32-25,20858675,-663
32-26,20862581,-125
32-27,20866487,845
32-28,20870393,489
32-29,20874299,-558
32-30,20878205,-479
32-31,20882111,550
32-32,20886017,647
32-1,20889929,-416
32-2,20893835,-728
32-3,20897741,276
32-4,20901647,804
32-5,20905553,-42
32-6,20909459,-687
32-7,20913365,71
32-8,20917271,891
32-9,20921177,288
32-10,20925083,-670
32-11,20928989,-263
32-12,20932895,768
32-13,20936801,538
32-14,20940707,-554
32-15,20944613,-542
32-16,20948519,537
32-17,20952425,734
32-18,20956331,-284
32-19,20960237,-652
32-20,20964143,299
32-21,20968049,851
32-22,20971955,-2
32-23,20975861,-725
32-24,20979767,-20
32-25,20983673,832
32-26,20987579,277
32-27,20991485,-720
32-28,20995391,-354
32-29,20999297,735
32-30,21003203,549
32-31,21007109,-588
32-32,21011015,-627
32-1,21014927,459
32-2,21018833,705
32-3,21022739,-315
32-4,21026645,-763
32-5,21030551,149
32-6,21034457,793
32-7,21038363,11
32-8,21042269,-806
32-9,21046175,-168
32-10,21050081,778
32-11,21053987,330
32-12,21057893,-662
32-13,21061799,-426
32-14,21065705,593
32-15,21069611,537
32-16,21073517,-547
32-17,21077423,-686
32-18,21081329,402
32-19,21085235,730
32-20,21089141,-302
32-21,21093047,-844
32-22,21096953,66
32-23,21100859,795
32-24,21104765,36
32-25,21108671,-821
32-26,21112577,-230
32-27,21116483,721
32-28,21120389,321
32-29,21124295,-728
32-30,21128201,-600
32-31,21132107,440
32-32,21136013,487
32-1,21139924,-586
32-2,21143830,-835
32-3,21147736,215
32-4,21151642,704
32-5,21155548,-198
32-6,21159454,-830
32-7,21163360,-51
32-8,21167266,732
32-9,21171172,46
32-10,21175078,-844
32-11,21178984,-284
32-12,21182890,565
32-13,21186796,165
32-14,21190702,-697
32-15,21194608,-535
32-16,21198514,496
32-17,21202420,665
32-18,21206326,-399
32-19,21210232,-765
32-20,21214138,229
32-21,21218044,769
32-22,21221950,-88
32-23,21225856,-767
32-24,21229762,-13
32-25,21233668,845
32-26,21237574,262
32-27,21241480,-735
32-28,21245386,-353
32-29,21249292,709
32-30,21253198,485
32-31,21257104,-651
32-32,21261010,-677
32-1,21264922,412
32-2,21268828,645
32-3,21272734,-390
32-4,21276640,-820
32-5,21280546,124
32-6,21284452,735
32-7,21288358,-92
32-8,21292264,-859
32-9,21296170,-162
32-10,21300076,756
32-11,21303982,245
32-12,21307888,-749
32-13,21311794,-422
32-14,21315700,625
32-15,21319606,491
32-16,21323512,-595
32-17,21327418,-688
32-18,21331324,377
32-19,21335230,659
32-20,21339136,-367
32-21,21343042,-836
32-22,21346948,89
32-23,21350854,741
32-24,21354760,-31
32-25,21358666,-830
32-26,21362572,-204
32-27,21366478,738
32-28,21370384,305
32-29,21374290,-706
32-30,21378196,-476
32-31,21382102,572
32-32,21386008,532
32-1,21389920,-538
32-2,21393826,-703
32-3,21397732,345
32-4,21401638,714
32-5,21405544,-280
32-6,21409450,-847
32-7,21413356,39
32-8,21417262,796
32-9,21421168,89
32-10,21425074,-820
32-11,21428980,-337
32-12,21432886,631
32-13,21436792,315
32-14,21440698,-702
32-15,21444604,-584
32-16,21448510,456
32-17,21452416,557
32-18,21456322,-465
32-19,21460228,-758
32-20,21464134,241
32-21,21468040,739
32-22,21471946,-193
32-23,21475852,-887
32-24,21479758,-92
32-25,21483664,740
32-26,21487570,128
32-27,21491476,-778
32-28,21495382,-306
32-29,21499288,732
32-30,21503194,471
32-31,21507100,-614
32-32,21511006,-565
32-1,21514917,501
32-2,21518823,640
32-3,21522729,-398
32-4,21526635,-748
32-5,21530541,216
32-6,21534447,779
32-7,21538353,-57
32-8,21542259,-778
32-9,21546165,-75
32-10,21550071,772
32-11,21553977,213
32-12,21557883,-737
32-13,21561789,-350
32-14,21565695,714
32-15,21569601,565
32-16,21573507,-532
32-17,21577413,-613
32-18,21581319,426
32-19,21585225,637
32-20,21589131,-425
32-21,21593037,-866
32-22,21596943,99
32-23,21600849,778
32-24,21604755,15
32-25,21608661,-765
32-26,21612567,-110
32-27,21616473,792
32-28,21620379,274
32-29,21624285,-758
32-30,21628191,-503
32-31,21632097,535
32-32,21636003,467
32-1,21639915,-618
32-2,21643821,-773
32-3,21647727,298
32-4,21651633,672
32-5,21655539,-309
32-6,21659445,-843
32-7,21663351,31
32-8,21667257,736
32-9,21671163,5
32-10,21675069,-835
32-11,21678975,-251
32-12,21682881,714
32-13,21686787,318
32-14,21690693,-747
32-15,21694599,-567
32-16,21698505,533
32-17,21702411,517
32-18,21706317,-598
32-19,21710223,-785
32-20,21714129,268
32-21,21718035,683
32-22,21721941,-254
32-23,21725847,-836
32-24,21729753,1
32-25,21733659,756
32-26,21737565,76
32-27,21741471,-817
32-28,21745377,-303
32-29,21749283,726
32-30,21753189,415
32-31,21757095,-673
32-32,21761001,-588
32-1,21764912,467
32-2,21768818,554
32-3,21772724,-487
32-4,21776630,-778
32-5,21780536,197
32-6,21784442,686
32-7,21788348,-185
32-8,21792254,-831
32-9,21796160,-44
32-10,21800066,773
32-11,21803972,127
32-12,21807878,-822
32-13,21811784,-380
32-14,21815690,647
32-15,21819596,406
32-16,21823502,-699
32-17,21827408,-695
32-18,21831314,406
32-19,21835220,617
32-20,21839126,-420
32-21,21843032,-808
32-22,21846938,154
32-23,21850844,752
32-24,21854750,-70
32-25,21858656,-834
32-26,21862562,-188
32-27,21866468,687
32-28,21870374,209
32-29,21874280,-758
32-30,21878186,-473
32-31,21882092,537
32-32,21885998,402
32-1,21889941,-668
32-2,21893847,-740
32-3,21897753,310
32-4,21901659,593
32-5,21905565,-381
32-6,21909471,-836
32-7,21913377,92
32-8,21917283,778
32-9,21921189,-5
32-10,21925095,-827
32-11,21929001,-187
32-12,21932907,740
32-13,21936813,255
32-14,21940719,-783
32-15,21944625,-543
32-16,21948531,511
32-17,21952437,472
32-18,21956343,-575
32-19,21960249,-746
32-20,21964155,241
32-21,21968061,578
32-22,21971967,-407
32-23,21975873,-980
32-24,21979779,-109
32-25,21983685,614
32-26,21987591,-117
32-27,21991497,-990
32-28,21995403,-420
32-29,21999309,617
32-30,22003215,226
32-31,22007121,-874
32-32,22011027,-661
32-1,22014908,444
32-2,22018814,489
32-3,22022720,-553
32-4,22026626,-798
32-5,22030532,215
32-6,22034438,655
32-7,22038344,-301
32-8,22042250,-954
32-9,22046156,-143
32-10,22050062,666
32-11,22053968,-4
32-12,22057874,-952
32-13,22061780,-458
32-14,22065686,599
32-15,22069592,322
32-16,22073498,-775
32-17,22077404,-697
32-18,22081310,390
32-19,22085216,515
32-20,22089122,-512
32-21,22093028,-832
32-22,22096934,146
32-23,22100840,668
32-24,22104746,-252
32-25,22108652,-962
32-26,22112558,-156
32-27,22116464,719
32-28,22120370,151
32-29,22124276,-767
32-30,22128182,-408
32-31,22132088,566
32-32,22135994,384
32-1,22139905,-707
32-2,22143811,-753
32-3,22147717,346
32-4,22151623,565
32-5,22155529,-487
32-6,22159435,-903
32-7,22163341,55
32-8,22167247,673
32-9,22171153,-170
32-10,22175059,-942
32-11,22178965,-226
32-12,22182871,704
32-13,22186777,205
32-14,22190683,-808
32-15,22194589,-511
32-16,22198495,533
32-17,22202401,393
32-18,22206307,-705
32-19,22210213,-786
32-20,22214119,300
32-21,22218025,593
32-22,22221931,-425
32-23,22225837,-889
32-24,22229743,29
32-25,22233649,678
32-26,22237555,-90
32-27,22241461,-905
32-28,22245367,-294
32-29,22249273,676
32-30,22253179,269
32-31,22257085,-758
32-32,22260991,-528
32-1,22264903,544
32-2,22268809,540
32-3,22272715,-526
32-4,22276621,-733
32-5,22280527,297
32-6,22284433,707
32-7,22288339,-236
32-8,22292245,-806
32-9,22296151,63
32-10,22300057,849
32-11,22303963,166
32-12,22307869,-724
32-13,22311775,-212
32-14,22315681,757
32-15,22319587,427
32-16,22323493,-620
32-17,22327399,-518
32-18,22331305,543
32-19,22335211,622
32-20,22339117,-459
32-21,22343023,-744
32-22,22346929,270
32-23,22350835,734
32-24,22354741,-194
32-25,22358647,-842
32-26,22362553,-25
32-27,22366459,784
32-28,22370365,136
32-29,22374271,-778
32-30,22378177,-347
32-31,22382083,651
32-32,22385989,422
32-1,22389901,-657
32-2,22393807,-619
32-3,22397713,502
32-4,22401619,676
32-5,22405525,-403
32-6,22409431,-798
32-7,22413337,180
32-8,22417243,781
32-9,22421149,-47
32-10,22425055,-774
32-11,22428961,-46
32-12,22432867,835
32-13,22436773,260
32-14,22440679,-755
32-15,22444585,-404
32-16,22448491,638
32-17,22452397,426
32-18,22456303,-693
32-19,22460209,-736
32-20,22464115,335
32-21,22468021,612
32-22,22471927,-370
32-23,22475833,-785
32-24,22479739,180
32-25,22483645,803
32-26,22487551,-22
32-27,22491457,-814
32-28,22495363,-166
32-29,22499269,755
32-30,22503175,251
32-31,22507081,-783
32-32,22510987,-493
32-1,22514898,565
32-2,22518804,487
32-3,22522710,-605
32-4,22526616,-769
32-5,22530522,285
32-6,22534428,647
32-7,22538334,-326
32-8,22542240,-869
32-9,22546146,1
32-10,22550052,721
32-11,22553958,-1
32-12,22557864,-817
32-13,22561770,-196
32-14,22565676,787
32-15,22569582,403
32-16,22573488,-625
32-17,22577394,-421
32-18,22581300,657
32-19,22585206,633
32-20,22589112,-516
32-21,22593018,-785
32-22,22596924,235
32-23,22600830,661
32-24,22604736,-264
32-25,22608642,-840
32-26,22612548,8
32-27,22616454,790
32-28,22620360,127
32-29,22624266,-777
32-30,22628172,-313
32-31,22632078,658
32-32,22635984,363
32-1,22639926,-674
32-2,22643832,-558
32-3,22647738,541
32-4,22651644,664
32-5,22655550,-396
32-6,22659456,-711
32-7,22663362,305
32-8,22667268,838
32-9,22671174,-63
32-10,22675080,-760
32-11,22678986,1
32-12,22682892,811
32-13,22686798,189
32-14,22690704,-744
32-15,22694610,-312
32-16,22698516,717
32-17,22702422,494
32-18,22706328,-589
32-19,22710234,-578
32-20,22714140,489
32-21,22718046,674
32-22,22721952,-355
32-23,22725858,-740
32-24,22729764,179
32-25,22733670,710
32-26,22737576,-90
32-27,22741482,-787
32-28,22745388,-83
32-29,22749294,865
32-30,22753200,352
32-31,22757106,-692
32-32,22761012,-348
32-1,22764894,708
32-2,22768800,518
32-3,22772706,-605
32-4,22776612,-691
32-5,22780518,372
32-6,22784424,639
32-7,22788330,-377
32-8,22792236,-803
32-9,22796142,173
32-10,22800048,829
32-11,22803954,33
32-12,22807860,-755
32-13,22811766,-143
32-14,22815672,748
32-15,22819578,309
32-16,22823484,-689
32-17,22827390,-441
32-18,22831296,641
32-19,22835202,616
32-20,22839108,-466
32-21,22843014,-646
32-22,22846920,403
32-23,22850826,788
32-24,22854732,-212
32-25,22858638,-822
32-26,22862544,28
32-27,22866450,765
32-28,22870356,72
32-29,22874262,-760
32-30,22878168,-230
32-31,22882074,713
32-32,22885980,356
32-1,22889891,-688
32-2,22893797,-512
32-3,22897703,587
32-4,22901609,625
32-5,22905515,-430
32-6,22909421,-659
32-7,22913327,320
32-8,22917233,735
32-9,22921139,-172
32-10,22925045,-784
32-11,22928951,5
32-12,22932857,769
32-13,22936763,101
32-14,22940669,-822
32-15,22944575,-329
32-16,22948481,706
32-17,22952387,437
32-18,22956293,-605
32-19,22960199,-505
32-20,22964105,574
32-21,22968011,700
32-22,22971917,-375
32-23,22975823,-731
32-24,22979729,229
32-25,22983635,723
32-26,22987541,-169
32-27,22991447,-901
32-28,22995353,-170
32-29,22999259,733
32-30,23003165,176
32-31,23007071,-774
32-32,23010977,-355
32-1,23014889,671
32-2,23018795,468
32-3,23022701,-612
32-4,23026607,-640
32-5,23030513,422
32-6,23034419,645
32-7,23038325,-349
32-8,23042231,-743
32-9,23046137,175
32-10,23050043,742
32-11,23053949,-115
32-12,23057855,-898
32-13,23061761,-219
32-14,23065667,666
32-15,23069573,151
32-16,23073479,-806
32-17,23077385,-453
32-18,23081291,593
32-19,23085197,480
32-20,23089103,-571
32-21,23093009,-666
32-22,23096915,393
32-23,23100821,733
32-24,23104727,-241
32-25,23108633,-751
32-26,23112539,116
32-27,23116445,763
32-28,23120351,8
32-29,23124257,-799
32-30,23128163,-231
32-31,23132069,664
32-32,23135975,237
32-1,23139886,-774
32-2,23143792,-559
32-3,23147698,492
32-4,23151604,509
32-5,23155510,-502
32-6,23159416,-637
32-7,23163322,428
32-8,23167228,800
32-9,23171134,-175
32-10,23175040,-753
32-11,23178946,65
32-12,23182852,798
32-13,23186758,118
32-14,23190664,-739
32-15,23194570,-186
32-16,23198476,777
32-17,23202382,395
32-18,23206288,-678
32-19,23210194,-584
32-20,23214100,442
32-21,23218006,497
32-22,23221912,-562
32-23,23225818,-817
32-24,23229724,210
32-25,23233630,668
32-26,23237536,-254
32-27,23241442,-873
32-28,23245348,-39
32-29,23249254,800
32-30,23253160,144
32-31,23257066,-817
32-32,23260972,-334
32-1,23264884,697
32-2,23268790,410
32-3,23272696,-648
32-4,23276602,-572
32-5,23280508,487
32-6,23284414,618
32-7,23288320,-437
32-8,23292226,-808
32-9,23296132,166
32-10,23300038,744
32-11,23303944,-83
32-12,23307850,-782
32-13,23311756,-67
32-14,23315662,778
32-15,23319568,205
32-16,23323474,-785
32-17,23327380,-409
32-18,23331286,659
32-19,23335192,502
32-20,23339098,-584
32-21,23343004,-649
32-22,23346910,387
32-23,23350816,614
32-24,23354722,-390
32-25,23358628,-819
32-26,23362534,104
32-27,23366440,755
32-28,23370346,6
32-29,23374252,-736
32-30,23378158,-105
32-31,23382064,745
32-32,23385970,262
32-1,23389943,-724
32-2,23393849,-470
32-3,23397755,585
32-4,23401661,563
32-5,23405567,-485
32-6,23409473,-623
32-7,23413379,425
32-8,23417285,740
32-9,23421191,-265
32-10,23425097,-776
32-11,23429003,113
32-12,23432909,795
32-13,23436815,59
32-14,23440721,-764
32-15,23444627,-205
32-16,23448533,726
32-17,23452439,350
32-18,23456345,-652
32-19,23460251,-444
32-20,23464157,626
32-21,23468063,619
32-22,23471969,-470
32-23,23475875,-688
32-24,23479781,326
32-25,23483687,744
32-26,23487593,-157
32-27,23491499,-769
32-28,23495405,56
32-29,23499311,904
32-30,23503217,217
32-31,23507123,-755
32-32,23511029,-267
32-1,23514879,694
32-2,23518785,368
32-3,23522691,-659
32-4,23526597,-565
32-5,23530503,493
32-6,23534409,596
32-7,23538315,-464
32-8,23542221,-766
32-9,23546127,238
32-10,23550033,737
32-11,23553939,-172
32-12,23557845,-836
32-13,23561751,-45
32-14,23565657,784
32-15,23569563,179
32-16,23573469,-762
32-17,23577375,-346
32-18,23581281,670
32-19,23585187,427
32-20,23589093,-651
32-21,23592999,-639
32-22,23596905,403
32-23,23600811,592
32-24,23604717,-436
32-25,23608623,-859
32-26,23612529,101
32-27,23616435,700
32-28,23620341,-144
32-29,23624247,-844
32-30,23628153,-123
32-31,23632059,708
32-32,23635965,160
32-1,23639877,-793
32-2,23643783,-435
32-3,23647689,616
32-4,23651595,482
32-5,23655501,-592
32-6,23659407,-677
32-7,23663313,362
32-8,23667219,655
32-9,23671125,-304
32-10,23675031,-773
32-11,23678937,111
32-12,23682843,750
32-13,23686749,-31
32-14,23690655,-811
32-15,23694561,-161
32-16,23698467,757
32-17,23702373,291
32-18,23706279,-709
32-19,23710185,-420
32-20,23714091,647
32-21,23717997,583
32-22,23721903,-485
32-23,23725809,-630
32-24,23729715,412
32-25,23733621,748
32-26,23737527,-262
32-27,23741433,-851
32-28,23745339,30
32-29,23749245,821
32-30,23753151,82
32-31,23757057,-833
32-32,23760963,-273
32-1,23764875,712
32-2,23768781,375
32-3,23772687,-651
32-4,23776593,-494
32-5,23780499,613
32-6,23784405,686
32-7,23788311,-398
32-8,23792217,-663
32-9,23796123,334
32-10,23800029,743
32-11,23803935,-189
32-12,23807841,-795
32-13,23811747,-5
32-14,23815653,781
32-15,23819559,148
32-16,23823465,-781
32-17,23827371,-328
32-18,23831277,671
32-19,23835183,410
32-20,23839089,-601
32-21,23842995,-522
32-22,23846901,498
32-23,23850807,613
32-24,23854713,-439
32-25,23858619,-814
32-26,23862525,140
32-27,23866431,656
32-28,23870337,-227
32-29,23874243,-899
32-30,23878149,-140
32-31,23882055,714
32-32,23885961,161
32-1,23889872,-803
32-2,23893778,-429
32-3,23897684,623
32-4,23901590,488
32-5,23905496,-525
32-6,23909402,-557
32-7,23913308,468
32-8,23917214,722
32-9,23921120,-305
32-10,23925026,-794
32-11,23928932,132
32-12,23932838,762
32-13,23936744,-64
32-14,23940650,-821
32-15,23944556,-121
32-16,23948462,768
32-17,23952368,245
32-18,23956274,-724
32-19,23960180,-401
32-20,23964086,615
32-21,23967992,500
32-22,23971898,-562
32-23,23975804,-682
32-24,23979710,358
32-25,23983616,659
32-26,23987522,-340
32-27,23991428,-827
32-28,23995334,67
32-29,23999240,715
32-30,24003146,-62
32-31,24007052,-863
32-32,24010958,-253
32-1,24014870,666
32-2,24018776,253
32-3,24022682,-729
32-4,24026588,-468
32-5,24030494,609
32-6,24034400,600
32-7,24038306,-420
32-8,24042212,-606
32-9,24046118,358
32-10,24050024,731
32-11,24053930,-172
32-12,24057836,-717
32-13,24061742,93
32-14,24065648,797
32-15,24069554,102
32-16,24073460,-785
32-17,24077366,-286
32-18,24081272,702
32-19,24085178,424
32-20,24089084,-599
32-21,24092990,-506
32-22,24096896,566
32-23,24100802,682
32-24,24104708,-379
32-25,24108614,-661
32-26,24112520,359
32-27,24116426,815
32-28,24120332,-116
32-29,24124238,-767
32-30,24128144,-23
32-31,24132050,739
32-32,24135956,120
32-1,24139959,-792
32-2,24143865,-329
32-3,24147771,703
32-4,24151677,450
32-5,24155583,-616
32-6,24159489,-576
32-7,24163395,485
32-8,24167301,656
32-9,24171207,-366
32-10,24175113,-745
32-11,24179019,183
32-12,24182925,722
32-13,24186831,-125
32-14,24190737,-844
32-15,24194643,-151
32-16,24198549,696
32-17,24202455,165
32-18,24206361,-802
32-19,24210267,-464
32-20,24214173,583
32-21,24218079,431
32-22,24221985,-648
32-23,24225891,-683
32-24,24229797,389
32-25,24233703,639
32-26,24237609,-366
32-27,24241515,-839
32-28,24245421,71
32-29,24249327,761
32-30,24253233,-20
32-31,24257139,-860
32-32,24261045,-239
32-1,24264865,675
32-2,24268771,218
32-3,24272677,-750
32-4,24276583,-462
32-5,24280489,573
32-6,24284395,504
32-7,24288301,-556
32-8,24292207,-704
32-9,24296113,336
32-10,24300019,691
32-11,24303925,-280
32-12,24307831,-812
32-13,24311737,70
32-14,24315643,784
32-15,24319549,40
32-16,24323455,-798
32-17,24327361,-207
32-18,24331267,748
32-19,24335173,350
32-20,24339079,-679
32-21,24342985,-440
32-22,24346891,664
32-23,24350797,646
32-24,24354703,-460
32-25,24358609,-715
32-26,24362515,289
32-27,24366421,713
32-28,24370327,-213
32-29,24374233,-774
32-30,24378139,38
32-31,24382045,756
32-32,24385951,104
32-1,24389863,-749
32-2,24393769,-246
32-3,24397675,750
32-4,24401581,472
32-5,24405487,-554
32-6,24409393,-452
32-7,24413299,616
32-8,24417205,728
32-9,24421111,-316
32-10,24425017,-609
32-11,24428923,372
32-12,24432829,816
32-13,24436735,-122
32-14,24440641,-805
32-15,24444547,-49
32-16,24448453,770
32-17,24452359,133
32-18,24456265,-838
32-19,24460171,-411
32-20,24464077,616
32-21,24467983,399
32-22,24471889,-650
32-23,24475795,-637
32-24,24479701,417
32-25,24483607,618
32-26,24487513,-417
32-27,24491419,-856
32-28,24495325,99
32-29,24499231,712
32-30,24503137,-184
32-31,24507043,-994
32-32,24510949,-274
32-1,24514860,657
32-2,24518766,180
32-3,24522672,-763
32-4,24526578,-428
32-5,24530484,614
32-6,24534390,488
32-7,24538296,-578
32-8,24542202,-630
32-9,24546108,439
32-10,24550014,715
32-11,24553920,-280
32-12,24557826,-754
32-13,24561732,153
32-14,24565638,807
32-15,24569544,15
32-16,24573450,-785
32-17,24577356,-164
32-18,24581262,740
32-19,24585168,316
32-20,24589074,-649
32-21,24592980,-401
32-22,24596886,632
32-23,24600792,579
32-24,24604698,-501
32-25,24608604,-672
32-26,24612510,358
32-27,24616416,671
32-28,24620322,-307
32-29,24624228,-814
32-30,24628134,-1
32-31,24632040,648
32-32,24635946,-47
32-1,24639858,-872
32-2,24643764,-331
32-3,24647670,613
32-4,24651576,253
32-5,24655482,-763
32-6,24659388,-610
32-7,24663294,428
32-8,24667200,455
32-9,24671106,-606
32-10,24675012,-848
32-11,24678918,192
32-12,24682824,694
32-13,24686730,-213
32-14,24690636,-871
32-15,24694542,-88
32-16,24698448,684
32-17,24702354,8
32-18,24706260,-885
32-19,24710166,-357
32-20,24714072,660
32-21,24717978,360
32-22,24721884,-699
32-23,24725790,-593
32-24,24729696,501
32-25,24733602,599
32-26,24737508,-480
32-27,24741414,-819
32-28,24745320,158
32-29,24749226,694
32-30,24753132,-208
32-31,24757038,-948
32-32,24760944,-187
32-1,24764856,671
32-2,24768762,105
32-3,24772668,-795
32-4,24776574,-391
32-5,24780480,600
32-6,24784386,406
32-7,24788292,-638
32-8,24792198,-646
32-9,24796104,399
32-10,24800010,586
32-11,24803916,-429
32-12,24807822,-813
32-13,24811728,118
32-14,24815634,716
32-15,24819540,-72
32-16,24823446,-835
32-17,24827352,-190
32-18,24831258,724
32-19,24835164,283
32-20,24839070,-666
32-21,24842976,-352
32-22,24846882,693
32-23,24850788,592
32-24,24854694,-483
32-25,24858600,-621
32-26,24862506,390
32-27,24866412,669
32-28,24870318,-331
32-29,24874224,-820
32-30,24878130,33
32-31,24882036,661
32-32,24885942,-72
32-1,24890128,-847
32-2,24894034,-202
32-3,24897940,758
32-4,24901846,328
32-5,24905752,-696
32-6,24909658,-482
32-7,24913564,569
32-8,24917470,550
32-9,24921376,-506
32-10,24925282,-709
32-11,24929188,266
32-12,24933094,646
32-13,24937000,-281
32-14,24940906,-848
32-15,24944812,30
32-16,24948718,795
32-17,24952624,80
32-18,24956530,-792
32-19,24960436,-255
32-20,24964342,722
32-21,24968248,379
32-22,24972154,-693
32-23,24976060,-572
32-24,24979966,506
32-25,24983872,572
32-26,24987778,-493
32-27,24991684,-764
32-28,24995590,253
32-29,24999496,754
32-30,25003402,-176
32-31,25007308,-895
32-32,25011214,-133
32-1,25014851,699
32-2,25018757,90
32-3,25022663,-826
32-4,25026569,-358
32-5,25030475,673
32-6,25034381,421
32-7,25038287,-658
32-8,25042193,-610
32-9,25046099,518
32-10,25050005,734
32-11,25053911,-326
32-12,25057817,-734
32-13,25061723,207
32-14,25065629,751
32-15,25069535,-107
32-16,25073441,-818
32-17,25077347,-87
32-18,25081253,780
32-19,25085159,234
32-20,25089065,-745
32-21,25092971,-426
32-22,25096877,608
32-23,25100783,476
32-24,25104689,-591
32-25,25108595,-635
32-26,25112501,452
32-27,25116407,721
32-28,25120313,-245
32-29,25124219,-629
32-30,25128125,259
32-31,25132031,804
32-32,25135937,-8
32-1,25139849,-778
32-2,25143755,-135
32-3,25147661,766
32-4,25151567,292
32-5,25155473,-680
32-6,25159379,-373
32-7,25163285,688
32-8,25167191,615
32-9,25171097,-488
32-10,25175003,-675
32-11,25178909,374
32-12,25182815,726
32-13,25186721,-282
32-14,25190627,-817
32-15,25194533,69
32-16,25198439,751
32-17,25202345,-10
32-18,25206251,-845
32-19,25210157,-242
32-20,25214063,721
32-21,25217969,325
32-22,25221875,-706
32-23,25225781,-531
32-24,25229687,520
32-25,25233593,532
32-26,25237499,-536
32-27,25241405,-741
32-28,25245311,329
32-29,25249217,775
32-30,25253123,-191
32-31,25257029,-818
32-32,25260935,-5
32-1,25264846,737
32-2,25268752,59
32-3,25272658,-820
32-4,25276564,-345
32-5,25280470,596
32-6,25284376,270
32-7,25288282,-762
32-8,25292188,-633
32-9,25296094,457
32-10,25300000,587
32-11,25303906,-448
32-12,25307812,-752
32-13,25311718,264
32-14,25315624,804
32-15,25319530,-66
32-16,25323436,-747
32-17,25327342,-43
32-18,25331248,720
32-19,25335154,114
32-20,25339060,-834
32-21,25342966,-440
32-22,25346872,612
32-23,25350778,426
32-24,25354684,-665
32-25,25358590,-674
32-26,25362496,418
32-27,25366402,622
32-28,25370308,-389
32-29,25374214,-712
32-30,25378120,263
32-31,25382026,796
32-32,25385932,-86
32-1,25389844,-864
32-2,25393750,-186
32-3,25397656,722
32-4,25401562,228
32-5,25405468,-764
32-6,25409374,-426
32-7,25413280,670
32-8,25417186,568
32-9,25421092,-497
32-10,25424998,-576
32-11,25428904,443
32-12,25432810,687
32-13,25436716,-323
32-14,25440622,-779
32-15,25444528,161
32-16,25448434,813
32-17,25452340,-25
32-18,25456246,-858
32-19,25460152,-207
32-20,25464058,724
32-21,25467964,259
32-22,25471870,-740
32-23,25475776,-451
32-24,25479682,615
32-25,25483588,545
32-26,25487494,-508
32-27,25491400,-632
32-28,25495306,427
32-29,25499212,816
32-30,25503118,-180
32-31,25507024,-816
32-32,25510930,6
32-1,25514963,724
32-2,25518869,-25
32-3,25522775,-890
32-4,25526681,-312
32-5,25530587,665
32-6,25534493,297
32-7,25538399,-757
32-8,25542305,-616
32-9,25546211,467
32-10,25550117,541
32-11,25554023,-507
32-12,25557929,-767
32-13,25561835,243
32-14,25565741,715
32-15,25569647,-190
32-16,25573553,-817
32-17,25577459,-30
32-18,25581365,734
32-19,25585271,80
32-20,25589177,-825
32-21,25593083,-330
32-22,25596989,684
32-23,25600895,382
32-24,25604801,-690
32-25,25608707,-592
32-26,25612613,514
32-27,25616519,668
32-28,25620425,-338
32-29,25624331,-612
32-30,25628237,356
32-31,25632143,813
32-32,25636049,-90
32-1,25639992,-789
32-2,25643898,-64
32-3,25647804,769
32-4,25651710,185
32-5,25655616,-759
32-6,25659522,-338
32-7,25663428,705
32-8,25667334,512
32-9,25671240,-574
32-10,25675146,-611
32-11,25679052,453
32-12,25682958,674
32-13,25686864,-335
32-14,25690770,-740
32-15,25694676,189
32-16,25698582,783
32-17,25702488,-57
32-18,25706394,-839
32-19,25710300,-160
32-20,25714206,728
32-21,25718112,194
32-22,25722018,-814
32-23,25725924,-476
32-24,25729830,596
32-25,25733736,494
32-26,25737642,-557
32-27,25741548,-693
32-28,25745454,329
32-29,25749360,709
32-30,25753266,-264
32-31,25757172,-794
32-32,25761078,133
32-1,25764837,815
32-2,25768743,21
32-3,25772649,-803
32-4,25776555,-203
32-5,25780461,723
32-6,25784367,306
32-7,25788273,-703
32-8,25792179,-477
32-9,25796085,595
32-10,25799991,566
32-11,25803897,-535
32-12,25807803,-727
32-13,25811709,307
32-14,25815615,696
32-15,25819521,-241
32-16,25823427,-793
32-17,25827333,48
32-18,25831239,771
32-19,25835145,80
32-20,25839051,-777
32-21,25842957,-277
32-22,25846863,664
32-23,25850769,324
32-24,25854675,-707
32-25,25858581,-560
32-26,25862487,530
32-27,25866393,593
32-28,25870299,-471
32-29,25874205,-696
32-30,25878111,299
32-31,25882017,705
32-32,25885923,-209
32-1,25889834,-854
32-2,25893740,-85
32-3,25897646,739
32-4,25901552,135
32-5,25905458,-779
32-6,25909364,-334
32-7,25913270,682
32-8,25917176,461
32-9,25921082,-603
32-10,25924988,-582
32-11,25928894,515
32-12,25932800,713
32-13,25936706,-326
32-14,25940612,-697
32-15,25944518,255
32-16,25948424,806
32-17,25952330,-63
32-18,25956236,-828
32-19,25960142,-131
32-20,25964048,744
32-21,25967954,207
32-22,25971860,-744
32-23,25975766,-374
32-24,25979672,644
32-25,25983578,453
32-26,25987484,-628
32-27,25991390,-685
32-28,25995296,389
32-29,25999202,711
32-30,26003108,-272
32-31,26007014,-754
32-32,26010920,148
32-1,26014832,738
32-2,26018738,-98
32-3,26022644,-876
32-4,26026550,-227
32-5,26030456,691
32-6,26034362,229
32-7,26038268,-792
32-8,26042174,-513
32-9,26046080,561
32-10,26049986,498
32-11,26053892,-549
32-12,26057798,-663
32-13,26061704,371
32-14,26065610,675
32-15,26069516,-329
32-16,26073422,-852
32-17,26077328,49
32-18,26081234,780
32-19,26085140,26
32-20,26089046,-860
32-21,26092952,-274
32-22,26096858,696
32-23,26100764,266
32-24,26104670,-787
32-25,26108576,-567
32-26,26112482,526
32-27,26116388,539
32-28,26120294,-516
32-29,26124200,-712
32-30,26128106,291
32-31,26132012,675
32-32,26135918,-280
32-1,26139982,-891
32-2,26143888,-40
32-3,26147794,775
32-4,26151700,91
32-5,26155606,-837
32-6,26159512,-322
32-7,26163418,681
32-8,26167324,362
32-9,26171230,-663
32-10,26175136,-535
32-11,26179042,528
32-12,26182948,634
32-13,26186854,-420
32-14,26190760,-756
32-15,26194666,233
32-16,26198572,758
32-17,26202478,-142
32-18,26206384,-837
32-19,26210290,-65
32-20,26214196,770
32-21,26218102,156
32-22,26222008,-786
32-23,26225914,-335
32-24,26229820,707
32-25,26233726,481
32-26,26237632,-570
32-27,26241538,-540
32-28,26245444,538
32-29,26249350,740
32-30,26253256,-347
32-31,26257162,-824
32-32,26261068,113
32-1,26264827,737
32-2,26268733,-71
32-3,26272639,-838
32-4,26276545,-160
32-5,26280451,754
32-6,26284357,254
32-7,26288263,-717
32-8,26292169,-384
32-9,26296075,647
32-10,26299981,535
32-11,26303887,-532
32-12,26307793,-654
32-13,26311699,397
32-14,26315605,709
32-15,26319511,-290
32-16,26323417,-778
32-17,26327323,114
32-18,26331229,751
32-19,26335135,-46
32-20,26339041,-877
32-21,26342947,-253
32-22,26346853,709
32-23,26350759,276
32-24,26354665,-743
32-25,26358571,-488
32-26,26362477,548
32-27,26366383,469
32-28,26370289,-585
32-29,26374195,-722
32-30,26378101,314
32-31,26382007,688
32-32,26385913,-253
32-1,26390008,-763
32-2,26393914,131
32-3,26397820,847
32-4,26401726,124
32-5,26405632,-741
32-6,26409538,-228
32-7,26413444,710
32-8,26417350,347
32-9,26421256,-685
32-10,26425162,-525
32-11,26429068,537
32-12,26432974,572
32-13,26436880,-501
32-14,26440786,-736
32-15,26444692,313
32-16,26448598,747
32-17,26452504,-231
32-18,26456410,-842
32-19,26460316,2
32-20,26464222,770
32-21,26468128,92
32-22,26472034,-834
32-23,26475940,-363
32-24,26479846,643
32-25,26483752,364
32-26,26487658,-660
32-27,26491564,-602
32-28,26495470,439
32-29,26499376,643
32-30,26503282,-381
32-31,26507188,-766
32-32,26511094,249
32-1,26514822,832
32-2,26518728,-45
32-3,26522634,-756
32-4,26526540,-24
32-5,26530446,808
32-6,26534352,204
32-7,26538258,-765
32-8,26542164,-369
32-9,26546070,658
32-10,26549976,461
32-11,26553882,-600
32-12,26557788,-604
32-13,26561694,434
32-14,26565600,594
32-15,26569506,-424
32-16,26573412,-777
32-17,26577318,173
32-18,26581224,765
32-19,26585130,-40
32-20,26589036,-819
32-21,26592942,-156
32-22,26596848,763
32-23,26600754,278
32-24,26604660,-704
32-25,26608566,-392
32-26,26612472,658
32-27,26616378,541
32-28,26620284,-505
32-29,26624190,-545
32-30,26628096,483
32-31,26632002,733
32-32,26635908,-266
32-1,26639820,-802
32-2,26643726,51
32-3,26647632,761
32-4,26651538,58
32-5,26655444,-755
32-6,26659350,-165
32-7,26663256,763
32-8,26667162,318
32-9,26671068,-699
32-10,26674974,-460
32-11,26678880,588
32-12,26682786,565
32-13,26686692,-502
32-14,26690598,-715
32-15,26694504,317
32-16,26698410,744
32-17,26702316,-201
32-18,26706222,-793
32-19,26710128,24
32-20,26714034,742
32-21,26717940,67
32-22,26721846,-787
32-23,26725752,-263
32-24,26729658,740
32-25,26733564,400
32-26,26737470,-670
32-27,26741376,-544
32-28,26745282,533
32-29,26749188,647
32-30,26753094,-415
32-31,26757000,-730
32-32,26760906,294
32-1,26764970,758
32-2,26768876,-199
32-3,26772782,-833
32-4,26776688,-29
32-5,26780594,754
32-6,26784500,109
32-7,26788406,-826
32-8,26792312,-397
32-9,26796218,614
32-10,26800124,372
32-11,26804030,-673
32-12,26807936,-593
32-13,26811842,512
32-14,26815748,693
32-15,26819654,-320
32-16,26823560,-651
32-17,26827466,304
32-18,26831372,809
32-19,26835278,-53
32-20,26839184,-739
32-21,26843090,6
32-22,26846996,880
32-23,26850902,311
32-24,26854808,-689
32-25,26858714,-333
32-26,26862620,692
32-27,26866526,481
32-28,26870432,-602
32-29,26874338,-621
32-30,26878244,423
32-31,26882150,628
32-32,26886056,-406
32-1,26889815,-847
32-2,26893721,105
32-3,26897627,748
32-4,26901533,-59
32-5,26905439,-833
32-6,26909345,-173
32-7,26913251,755
32-8,26917157,294
32-9,26921063,-743
32-10,26924969,-497
32-11,26928875,569
32-12,26932781,475
32-13,26936687,-651
32-14,26940593,-806
32-15,26944499,247
32-16,26948405,574
32-17,26952311,-417
32-18,26956217,-892
32-19,26960123,52
32-20,26964029,776
32-21,26967935,58
32-22,26971841,-747
32-23,26975747,-170
32-24,26979653,730
32-25,26983559,304
32-26,26987465,-719
32-27,26991371,-538
32-28,26995277,542
32-29,26999183,606
32-30,27003089,-480
32-31,27006995,-745
32-32,27010901,292
32-1,27014813,717
32-2,27018719,-239
32-3,27022625,-848
32-4,27026531,-29
32-5,27030437,748
32-6,27034343,83
32-7,27038249,-820
32-8,27042155,-328
32-9,27046061,669
32-10,27049967,367
32-11,27053873,-715
32-12,27057779,-645
32-13,27061685,407
32-14,27065591,479
32-15,27069497,-553
32-16,27073403,-796
32-17,27077309,215
32-18,27081215,688
32-19,27085121,-240
32-20,27089027,-923
32-21,27092933,-143
32-22,27096839,685
32-23,27100745,84
32-24,27104651,-835
32-25,27108557,-390
32-26,27112463,655
32-27,27116369,424
32-28,27120275,-651
32-29,27124181,-617
32-30,27128087,432
32-31,27131993,592
32-32,27135899,-451
32-1,27139994,-855
32-2,27143900,125
32-3,27147806,729
32-4,27151712,-137
32-5,27155618,-906
32-6,27159524,-209
32-7,27163430,687
32-8,27167336,180
32-9,27171242,-770
32-10,27175148,-405
32-11,27179054,645
32-12,27182960,519
32-13,27186866,-535
32-14,27190772,-606
32-15,27194678,443
32-16,27198584,725
32-17,27202490,-292
32-18,27206396,-760
32-19,27210302,193
32-20,27214208,814
32-21,27218114,7
32-22,27222020,-834
32-23,27225926,-345
32-24,27229832,598
32-25,27233738,285
32-26,27237644,-710
32-27,27241550,-488
32-28,27245456,586
32-29,27249362,582
32-30,27253268,-517
32-31,27257174,-735
32-32,27261080,324
32-1,27264808,690
32-2,27268714,-301
32-3,27272620,-863
32-4,27276526,-3
32-5,27280432,739
32-6,27284338,4
32-7,27288244,-866
32-8,27292150,-290
32-9,27296056,668
32-10,27299962,291
32-11,27303868,-749
32-12,27307774,-605
32-13,27311680,479
32-14,27315586,566
32-15,27319492,-476
32-16,27323398,-717
32-17,27327304,288
32-18,27331210,717
32-19,27335116,-193
32-20,27339022,-805
32-21,27342928,-15
32-22,27346834,768
32-23,27350740,150
32-24,27354646,-754
32-25,27358552,-312
32-26,27362458,692
32-27,27366364,424
32-28,27370270,-631
32-29,27374176,-534
32-30,27378082,496
32-31,27381988,563
32-32,27385894,-488
32-1,27389806,-823
32-2,27393712,156
32-3,27397618,687
32-4,27401524,-190
32-5,27405430,-874
32-6,27409336,-137
32-7,27413242,713
32-8,27417148,172
32-9,27421054,-783
32-10,27424960,-409
32-11,27428866,643
32-12,27432772,463
32-13,27436678,-628
32-14,27440584,-640
32-15,27444490,442
32-16,27448396,660
32-17,27452302,-388
32-18,27456208,-843
32-19,27460114,103
32-20,27464020,732
32-21,27467926,-102
32-22,27471832,-873
32-23,27475738,-181
32-24,27479644,737
32-25,27483550,233
32-26,27487456,-795
32-27,27491362,-516
32-28,27495268,570
32-29,27499174,531
32-30,27503080,-552
32-31,27506986,-685
32-32,27510892,393
32-1,27514804,710
32-2,27518710,-310
32-3,27522616,-841
32-4,27526522,29
32-5,27530428,701
32-6,27534334,-67
32-7,27538240,-909
32-8,27542146,-309
32-9,27546052,643
32-10,27549958,220
32-11,27553864,-815
32-12,27557770,-585
32-13,27561676,506
32-14,27565582,505
32-15,27569488,-565
32-16,27573394,-740
32-17,27577300,334
32-18,27581206,748
32-19,27585112,-231
32-20,27589018,-835
32-21,27592924,-3
32-22,27596830,753
32-23,27600736,78
32-24,27604642,-812
32-25,27608548,-311
32-26,27612454,675
32-27,27616360,353
32-28,27620266,-673
32-29,27624172,-530
32-30,27628078,513
32-31,27631984,601
32-32,27635890,-407
32-1,27639801,-700
32-2,27643707,261
32-3,27647613,739
32-4,27651519,-138
32-5,27655425,-763
32-6,27659331,-8
32-7,27663237,765
32-8,27667143,136
32-9,27671049,-807
32-10,27674955,-369
32-11,27678861,681
32-12,27682767,466
32-13,27686673,-598
32-14,27690579,-587
32-15,27694485,447
32-16,27698391,611
32-17,27702297,-402
32-18,27706203,-747
32-19,27710109,252
32-20,27714015,837
32-21,27717921,-13
32-22,27721827,-743
32-23,27725733,-55
32-24,27729639,791
32-25,27733545,256
32-26,27737451,-703
32-27,27741357,-352
32-28,27745263,686
32-29,27749169,545
32-30,27753075,-539
32-31,27756981,-639
32-32,27760887,410
32-1,27764799,689
32-2,27768705,-273
32-3,27772611,-658
32-4,27776517,258
32-5,27780423,841
32-6,27784329,41
32-7,27788235,-741
32-8,27792141,-121
32-9,27796047,769
32-10,27799953,292
32-11,27803859,-693
32-12,27807765,-413
32-13,27811671,609
32-14,27815577,529
32-15,27819483,-506
32-16,27823389,-622
32-17,27827295,398
32-18,27831201,715
32-19,27835107,-248
32-20,27839013,-758
32-21,27842919,122
32-22,27846825,827
32-23,27850731,75
32-24,27854637,-782
32-25,27858543,-201
32-26,27862449,738
32-27,27866355,299
32-28,27870261,-739
32-29,27874167,-506
32-30,27878073,562
32-31,27881979,557
32-32,27885885,-507
32-1,27890010,-742
32-2,27893916,260
32-3,27897822,668
32-4,27901728,-264
32-5,27905634,-839
32-6,27909540,-29
32-7,27913446,715
32-8,27917352,40
32-9,27921258,-882
32-10,27925164,-375
32-11,27929070,685
32-12,27932976,384
32-13,27936882,-716
32-14,27940788,-617
32-15,27944694,462
32-16,27948600,574
32-17,27952506,-446
32-18,27956412,-711
32-19,27960318,319
32-20,27964224,826
32-21,27968130,-76
32-22,27972036,-732
32-23,27975942,43
32-24,27979848,845
32-25,27983754,214
32-26,27987660,-729
32-27,27991566,-336
32-28,27995472,666
32-29,27999378,487
32-30,28003284,-596
32-31,28007190,-655
32-32,28011096,406
32-1,28014794,613
32-2,28018700,-424
32-3,28022606,-812
32-4,28026512,179
32-5,28030418,781
32-6,28034324,-100
32-7,28038230,-874
32-8,28042136,-167
32-9,28046042,726
32-10,28049948,216
32-11,28053854,-763
32-12,28057760,-437
32-13,28061666,627
32-14,28065572,521
32-15,28069478,-550
32-16,28073384,-636
32-17,28077290,425
32-18,28081196,725
32-19,28085102,-285
32-20,28089008,-783
32-21,28092914,137
32-22,28096820,820
32-23,28100726,61
32-24,28104632,-713
32-25,28108538,-59
32-26,28112444,881
32-27,28116350,422
32-28,28120256,-604
32-29,28124162,-352
32-30,28128068,660
32-31,28131974,552
32-32,28135880,-533
32-1,28139792,-723
32-2,28143698,306
32-3,28147604,713
32-4,28151510,-245
32-5,28155416,-815
32-6,28159322,59
32-7,28163228,802
32-8,28167134,73
32-9,28171040,-822
32-10,28174946,-297
32-11,28178852,666
32-12,28182758,316
32-13,28186664,-701
32-14,28190570,-507
32-15,28194476,573
32-16,28198382,593
32-17,28202288,-476
32-18,28206194,-708
32-19,28210100,308
32-20,28214006,743
32-21,28217912,-209
32-22,28221818,-870
32-23,28225724,-70
32-24,28229630,735
32-25,28233536,82
32-26,28237442,-830
32-27,28241348,-379
32-28,28245254,607
32-29,28249160,363
32-30,28253066,-685
32-31,28256972,-621
32-32,28260878,480
32-1,28264789,648
32-2,28268695,-388
32-3,28272601,-743
32-4,28276507,229
32-5,28280413,754
32-6,28284319,-137
32-7,28288225,-825
32-8,28292131,-86
32-9,28296037,754
32-10,28299943,207
32-11,28303849,-736
32-12,28307755,-350
32-13,28311661,689
32-14,28315567,504
32-15,28319473,-570
32-16,28323379,-587
32-17,28327285,510
32-18,28331191,742
32-19,28335097,-310
32-20,28339003,-735
32-21,28342909,205
32-22,28346815,799
32-23,28350721,-2
32-24,28354627,-751
32-25,28358533,-82
32-26,28362439,796
32-27,28366345,250
32-28,28370251,-728
32-29,28374157,-375
32-30,28378063,631
32-31,28381969,492
32-32,28385875,-553
32-1,28389787,-654
32-2,28393693,402
32-3,28397599,721
32-4,28401505,-275
32-5,28405411,-781
32-6,28409317,101
32-7,28413223,781
32-8,28417129,27
32-9,28421035,-806
32-10,28424941,-215
32-11,28428847,721
32-12,28432753,298
32-13,28436659,-728
32-14,28440565,-517
32-15,28444471,537
32-16,28448377,511
32-17,28452283,-563
32-18,28456189,-750
32-19,28460095,271
32-20,28464001,662
32-21,28467907,-266
32-22,28471813,-837
32-23,28475719,14
32-24,28479625,803
32-25,28483531,120
32-26,28487437,-767
32-27,28491343,-257
32-28,28495249,724
32-29,28499155,427
32-30,28503061,-639
32-31,28506967,-569
32-32,28510873,490
32-1,28514785,575
32-2,28518691,-454
32-3,28522597,-718
32-4,28526503,271
32-5,28530409,753
32-6,28534315,-158
32-7,28538221,-837
32-8,28542127,-57
32-9,28546033,789
32-10,28549939,207
32-11,28553845,-720
32-12,28557751,-317
32-13,28561657,665
32-14,28565563,417
32-15,28569469,-626
32-16,28573375,-576
32-17,28577281,490
32-18,28581187,680
32-19,28585093,-350
32-20,28588999,-753
32-21,28592905,206
32-22,28596811,788
32-23,28600717,-48
32-24,28604623,-768
32-25,28608529,-54
32-26,28612435,813
32-27,28616341,224
32-28,28620247,-756
32-29,28624153,-348
32-30,28628059,665
32-31,28631965,439
32-32,28635871,-656
32-1,28640118,-694
32-2,28644024,402
32-3,28647930,650
32-4,28651836,-384
32-5,28655742,-800
32-6,28659648,134
32-7,28663554,744
32-8,28667460,-31
32-9,28671366,-793
32-10,28675272,-153
32-11,28679178,790
32-12,28683084,339
32-13,28686990,-688
32-14,28690896,-409
32-15,28694802,631
32-16,28698708,504
32-17,28702614,-592
32-18,28706520,-732
32-19,28710426,303
32-20,28714332,627
32-21,28718238,-349
32-22,28722144,-841
32-23,28726050,54
32-24,28729956,769
32-25,28733862,58
32-26,28737768,-787
32-27,28741674,-247
32-28,28745580,711
32-29,28749486,369
32-30,28753392,-686
32-31,28757298,-565
32-32,28761204,494
32-1,28764780,504
32-2,28768686,-586
32-3,28772592,-794
32-4,28776498,263
32-5,28780404,714
32-6,28784310,-237
32-7,28788216,-872
32-8,28792122,-41
32-9,28796028,762
32-10,28799934,98
32-11,28803840,-808
32-12,28807746,-301
32-13,28811652,708
32-14,28815558,388
32-15,28819464,-680
32-16,28823370,-574
32-17,28827276,501
32-18,28831182,601
32-19,28835088,-497
32-20,28838994,-849
32-21,28842900,165
32-22,28846806,695
32-23,28850712,-201
32-24,28854618,-866
32-25,28858524,-79
32-26,28862430,773
32-27,28866336,161
32-28,28870242,-803
32-29,28874148,-356
32-30,28878054,645
32-31,28881960,340
32-32,28885866,-738
32-1,28889777,-699
32-2,28893683,394
32-3,28897589,619
32-4,28901495,-427
32-5,28905401,-832
32-6,28909307,152
32-7,28913213,743
32-8,28917119,-105
32-9,28921025,-831
32-10,28924931,-117
32-11,28928837,774
32-12,28932743,249
32-13,28936649,-755
32-14,28940555,-439
32-15,28944461,606
32-16,28948367,461
32-17,28952273,-613
32-18,28956179,-659
32-19,28960085,416
32-20,28963991,699
32-21,28967897,-301
32-22,28971803,-765
32-23,28975709,182
32-24,28979615,859
32-25,28983521,29
32-26,28987427,-813
32-27,28991333,-168
32-28,28995239,788
32-29,28999145,360
32-30,29003051,-673
32-31,29006957,-438
32-32,29010863,629
32-1,29014775,560
32-2,29018681,-511
32-3,29022587,-658
32-4,29026493,373
32-5,29030399,773
32-6,29034305,-191
32-7,29038211,-806
32-8,29042117,31
32-9,29046023,775
32-10,29049929,65
32-11,29053835,-793
32-12,29057741,-222
32-13,29061647,759
32-14,29065553,377
32-15,29069459,-658
32-16,29073365,-490
32-17,29077271,543
32-18,29081177,566
32-19,29085083,-488
32-20,29088989,-738
32-21,29092895,288
32-22,29096801,759
32-23,29100707,-177
32-24,29104613,-831
32-25,29108519,-22
32-26,29112425,774
32-27,29116331,78
32-28,29120237,-849
32-29,29124143,-309
32-30,29128049,708
32-31,29131955,373
32-32,29135861,-708
32-1,29139773,-607
32-2,29143679,526
32-3,29147585,689
32-4,29151491,-364
32-5,29155397,-692
32-6,29159303,290
32-7,29163209,820
32-8,29167115,-63
32-9,29171021,-805
32-10,29174927,-81
32-11,29178833,777
32-12,29182739,182
32-13,29186645,-794
32-14,29190551,-391
32-15,29194457,643
32-16,29198363,419
32-17,29202269,-685
32-18,29206175,-697
32-19,29210081,411
32-20,29213987,662
32-21,29217893,-369
32-22,29221799,-806
32-23,29225705,145
32-24,29229611,751
32-25,29233517,-119
32-26,29237423,-913
32-27,29241329,-221
32-28,29245235,710
32-29,29249141,241
32-30,29253047,-764
32-31,29256953,-475
32-32,29260859,606
32-1,29264770,519
32-2,29268676,-573
32-3,29272582,-684
32-4,29276488,359
32-5,29280394,643
32-6,29284300,-385
32-7,29288206,-909
32-8,29292112,-6
32-9,29296018,692
32-10,29299924,-80
32-11,29303830,-905
32-12,29307736,-262
32-13,29311642,737
32-14,29315548,355
32-15,29319454,-660
32-16,29323360,-439
32-17,29327266,628
32-18,29331172,610
32-19,29335078,-481
32-20,29338984,-695
32-21,29342890,362
32-22,29346796,806
32-23,29350702,-121
32-24,29354608,-691
32-25,29358514,145
32-26,29362420,888
32-27,29366326,177
32-28,29370232,-694
32-29,29374138,-95
32-30,29378044,896
32-31,29381950,509
32-32,29385856,-521
32-1,29389951,-347
32-2,29393857,750
32-3,29397763,843
32-4,29401669,-223
32-5,29405575,-517
32-6,29409481,479
32-7,29413387,964
32-8,29417293,67
32-9,29421199,-602
32-10,29425105,152
32-11,29429011,967
32-12,29432917,345
32-13,29436823,-618
32-14,29440729,-172
32-15,29444635,893
32-16,29448541,658
32-17,29452447,-417
32-18,29456353,-362
32-19,29460259,727
32-20,29464165,891
32-21,29468071,-172
32-22,29471977,-569
32-23,29475883,392
32-24,29479789,951
32-25,29483695,82
32-26,29487601,-638
32-27,29491507,79
32-28,29495413,937
32-29,29499319,410
32-30,29503225,-605
32-31,29507131,-330
32-32,29511037,720
32-1,29514766,579
32-2,29518672,-526
32-3,29522578,-579
32-4,29526484,492
32-5,29530390,744
32-6,29534296,-280
32-7,29538202,-732
32-8,29542108,209
32-9,29546014,847
32-10,29549920,24
32-11,29553826,-771
32-12,29557732,-94
32-13,29561638,840
32-14,29565544,335
32-15,29569450,-704
32-16,29573356,-431
32-17,29577262,627
32-18,29581168,558
32-19,29585074,-512
32-20,29588980,-644
32-21,29592886,415
32-22,29596792,762
32-23,29600698,-216
32-24,29604604,-742
32-25,29608510,157
32-26,29612416,912
32-27,29616322,153
32-28,29620228,-740
32-29,29624134,-126
32-30,29628040,828
32-31,29631946,366
32-32,29635852,-680
32-1,29639763,-474
32-2,29643669,606
32-3,29647575,628
32-4,29651481,-454
32-5,29655387,-696
32-6,29659293,309
32-7,29663199,730
32-8,29667105,-200
32-9,29671011,-802
32-10,29674917,29
32-11,29678823,807
32-12,29682729,145
32-13,29686635,-730
32-14,29690541,-227
32-15,29694447,758
32-16,29698353,445
32-17,29702259,-624
32-18,29706165,-535
32-19,29710071,545
32-20,29713977,655
32-21,29717883,-433
32-22,29721789,-797
32-23,29725695,195
32-24,29729601,740
32-25,29733507,-114
32-26,29737413,-786
32-27,29741319,-67
32-28,29745225,759
32-29,29749131,182
32-30,29753037,-797
32-31,29756943,-403
32-32,29760849,628
32-1,29764761,395
32-2,29768667,-670
32-3,29772573,-633
32-4,29776479,450
32-5,29780385,645
32-6,29784291,-399
32-7,29788197,-797
32-8,29792103,163
32-9,29796009,748
32-10,29799915,-86
32-11,29803821,-835
32-12,29807727,-157
32-13,29811633,719
32-14,29815539,202
32-15,29819445,-785
32-16,29823351,-450
32-17,29827257,601
32-18,29831163,443
32-19,29835069,-631
32-20,29838975,-689
32-21,29842881,337
32-22,29846787,593
32-23,29850693,-417
32-24,29854599,-905
32-25,29858505,21
32-26,29862411,679
32-27,29866317,-138
32-28,29870223,-944
32-29,29874129,-301
32-30,29878035,628
32-31,29881941,195
32-32,29885847,-830
32-1,29889759,-608
32-2,29893665,487
32-3,29897571,487
32-4,29901477,-578
32-5,29905383,-741
32-6,29909289,293
32-7,29913195,642
32-8,29917101,-337
32-9,29921007,-909
32-10,29924913,-75
32-11,29928819,657
32-12,29932725,-38
32-13,29936631,-899
32-14,29940537,-330
32-15,29944443,644
32-16,29948349,240
32-17,29952255,-813
32-18,29956161,-633
32-19,29960067,437
32-20,29963973,479
32-21,29967879,-589
32-22,29971785,-834
32-23,29975691,231
32-24,29979597,723
32-25,29983503,-215
32-26,29987409,-837
32-27,29991315,-19
32-28,29995221,778
32-29,29999127,155
32-30,30003033,-783
32-31,30006939,-339
32-32,30010845,670
32-1,30014756,357
32-2,30018662,-719
32-3,30022568,-623
32-4,30026474,464
32-5,30030380,609
32-6,30034286,-468
32-7,30038192,-860
32-8,30042098,127
32-9,30046004,666
32-10,30049910,-249
32-11,30053816,-959
32-12,30057722,-179
32-13,30061628,709
32-14,30065534,151
32-15,30069440,-792
32-16,30073346,-388
32-17,30077252,637
32-18,30081158,443
32-19,30085064,-619
32-20,30088970,-649
32-21,30092876,409
32-22,30096782,637
32-23,30100688,-398
32-24,30104594,-858
32-25,30108500,64
32-26,30112406,696
32-27,30116312,-146
32-28,30120218,-922
32-29,30124124,-181
32-30,30128030,710
32-31,30131936,145
32-32,30135842,-825
32-1,30139967,-497
32-2,30143873,531
32-3,30147779,433
32-4,30151685,-605
32-5,30155591,-684
32-6,30159497,365
32-7,30163403,640
32-8,30167309,-400
32-9,30171215,-901
32-10,30175121,28
32-11,30179027,716
32-12,30182933,-30
32-13,30186839,-839
32-14,30190745,-251
32-15,30194651,703
32-16,30198557,303
32-17,30202463,-746
32-18,30206369,-535
32-19,30210275,560
32-20,30214181,537
32-21,30218087,-567
32-22,30221993,-756
32-23,30225899,289
32-24,30229805,669
32-25,30233711,-302
32-26,30237617,-868
32-27,30241523,-9
32-28,30245429,768
32-29,30249335,124
32-30,30253241,-780
32-31,30257147,-316
32-32,30261053,689
32-1,30264751,403
32-2,30268657,-638
32-3,30272563,-528
32-4,30276469,539
32-5,30280375,620
32-6,30284281,-469
32-7,30288187,-785
32-8,30292093,219
32-9,30295999,738
32-10,30299905,-113
32-11,30303811,-769
32-12,30307717,-31
32-13,30311623,761
32-14,30315529,124
32-15,30319435,-805
32-16,30323341,-331
32-17,30327247,690
32-18,30331153,398
32-19,30335059,-730
32-20,30338965,-734
32-21,30342871,356
32-22,30346777,565
32-23,30350683,-462
32-24,30354589,-836
32-25,30358495,116
32-26,30362401,663
32-27,30366307,-224
32-28,30370213,-929
32-29,30374119,-106
32-30,30378025,756
32-31,30381931,123
32-32,30385837,-832
32-1,30389749,-441
32-2,30393655,598
32-3,30397561,435
32-4,30401467,-642
32-5,30405373,-691
32-6,30409279,360
32-7,30413185,630
32-8,30417091,-372
32-9,30420997,-862
32-10,30424903,42
32-11,30428809,686
32-12,30432715,-96
32-13,30436621,-869
32-14,30440527,-218
32-15,30444433,698
32-16,30448339,221
32-17,30452245,-797
32-18,30456151,-505
32-19,30460057,579
32-20,30463963,505
32-21,30467869,-586
32-22,30471775,-733
32-23,30475681,300
32-24,30479587,630
32-25,30483493,-358
32-26,30487399,-899
32-27,30491305,-16
32-28,30495211,739
32-29,30499117,46
32-30,30503023,-821
32-31,30506929,-259
32-32,30510835,744
32-1,30514747,375
32-2,30518653,-689
32-3,30522559,-530
32-4,30526465,562
32-5,30530371,641
32-6,30534277,-417
32-7,30538183,-667
32-8,30542089,357
32-9,30545995,778
32-10,30549901,-189
32-11,30553807,-811
32-12,30557713,10
32-13,30561619,774
32-14,30565525,108
32-15,30569431,-779
32-16,30573337,-274
32-17,30577243,736
32-18,30581149,423
32-19,30585055,-662
32-20,30588961,-591
32-21,30592867,458
32-22,30596773,576
32-23,30600679,-453
32-24,30604585,-759
32-25,30608491,249
32-26,30612397,755
32-27,30616303,-181
32-28,30620209,-854
32-29,30624115,-33
32-30,30628021,777
32-31,30631927,91
32-32,30635833,-896
32-1,30639744,-480
32-2,30643650,550
32-3,30647556,341
32-4,30651462,-718
32-5,30655368,-708
32-6,30659274,381
32-7,30663180,627
32-8,30667086,-366
32-9,30670992,-745
32-10,30674898,203
32-11,30678804,786
32-12,30682710,-18
32-13,30686616,-766
32-14,30690522,-111
32-15,30694428,781
32-16,30698334,268
32-17,30702240,-729
32-18,30706146,-401
32-19,30710052,653
32-20,30713958,541
32-21,30717864,-535
32-22,30721770,-636
32-23,30725676,405
32-24,30729582,668
32-25,30733488,-328
32-26,30737394,-790
32-27,30741300,101
32-28,30745206,789
32-29,30749112,62
32-30,30753018,-781
32-31,30756924,-217
32-32,30760830,723
32-1,30764742,317
32-2,30768648,-693
32-3,30772554,-458
32-4,30776460,591
32-5,30780366,529
32-6,30784272,-557
32-7,30788178,-747
32-8,30792084,249
32-9,30795990,641
32-10,30799896,-248
32-11,30803802,-770
32-12,30807708,93
32-13,30811614,819
32-14,30815520,77
32-15,30819426,-829
32-16,30823332,-305
32-17,30827238,679
32-18,30831144,328
32-19,30835050,-747
32-20,30838956,-600
32-21,30842862,505
32-22,30846768,580
32-23,30850674,-487
32-24,30854580,-779
32-25,30858486,192
32-26,30862392,647
32-27,30866298,-259
32-28,30870204,-853
32-29,30874110,-6
32-30,30878016,774
32-31,30881922,105
32-32,30885828,-795
32-1,30889740,-304
32-2,30893646,725
32-3,30897552,455
32-4,30901458,-595
32-5,30905364,-529
32-6,30909270,496
32-7,30913176,603
32-8,30917082,-444
32-9,30920988,-784
32-10,30924894,202
32-11,30928800,757
32-12,30932706,-94
32-13,30936612,-781
32-14,30940518,-36
32-15,30944424,806
32-16,30948330,227
32-17,30952236,-735
32-18,30956142,-341
32-19,30960048,710
32-20,30963954,511
32-21,30967860,-584
32-22,30971766,-622
32-23,30975672,406
32-24,30979578,596
32-25,30983484,-422
32-26,30987390,-830
32-27,30991296,93
32-28,30995202,734
32-29,30999108,10
32-30,31003014,-760
32-31,31006920,-175
32-32,31010826,701
32-1,31014768,214
32-2,31018674,-785
32-3,31022580,-465
32-4,31026486,612
32-5,31030392,519
32-6,31034298,-551
32-7,31038204,-659
32-8,31042110,388
32-9,31046016,708
32-10,31049922,-285
32-11,31053828,-809
32-12,31057734,72
32-13,31061640,738
32-14,31065546,-11
32-15,31069452,-799
32-16,31073358,-189
32-17,31077264,766
32-18,31081170,368
32-19,31085076,-671
32-20,31088982,-465
32-21,31092888,596
32-22,31096794,568
32-23,31100700,-513
32-24,31104606,-745
32-25,31108512,248
32-26,31112418,677
32-27,31116324,-244
32-28,31120230,-826
32-29,31124136,41
32-30,31128042,795
32-31,31131948,68
32-32,31135854,-816
32-1,31139735,-277
32-2,31143641,711
32-3,31147547,397
32-4,31151453,-658
32-5,31155359,-589
32-6,31159265,462
32-7,31163171,574
32-8,31167077,-491
32-9,31170983,-821
32-10,31174889,145
32-11,31178795,611
32-12,31182701,-276
32-13,31186607,-894
32-14,31190513,-102
32-15,31194419,691
32-16,31198325,75
32-17,31202231,-828
32-18,31206137,-384
32-19,31210043,648
32-20,31213949,447
32-21,31217855,-607
32-22,31221761,-606
32-23,31225667,426
32-24,31229573,582
32-25,31233479,-458
32-26,31237385,-819
32-27,31241291,148
32-28,31245197,722
32-29,31249103,-88
32-30,31253009,-827
32-31,31256915,-154
32-32,31260821,732
32-1,31264732,180
32-2,31268638,-826
32-3,31272544,-456
32-4,31276450,588
32-5,31280356,412
32-6,31284262,-655
32-7,31288168,-714
32-8,31292074,343
32-9,31295980,643
32-10,31299886,-346
32-11,31303792,-846
32-12,31307698,35
32-13,31311604,696
32-14,31315510,-72
32-15,31319416,-881
32-16,31323322,-239
32-17,31327228,712
32-18,31331134,257
32-19,31335040,-763
32-20,31338946,-463
32-21,31342852,644
32-22,31346758,549
32-23,31350664,-588
32-24,31354570,-747
32-25,31358476,308
32-26,31362382,684
32-27,31366288,-300
32-28,31370194,-847
32-29,31374100,85
32-30,31378006,805
32-31,31381912,27
32-32,31385818,-820
32-1,31389730,-255
32-2,31393636,705
32-3,31397542,351
32-4,31401448,-677
32-5,31405354,-517
32-6,31409260,519
32-7,31413166,529
32-8,31417072,-527
32-9,31420978,-757
32-10,31424884,270
32-11,31428790,712
32-12,31432696,-246
32-13,31436602,-868
32-14,31440508,-22
32-15,31444414,775
32-16,31448320,122
32-17,31452226,-783
32-18,31456132,-334
32-19,31460038,639
32-20,31463944,371
32-21,31467850,-660
32-22,31471756,-573
32-23,31475662,505
32-24,31479568,633
32-25,31483474,-425
32-26,31487380,-779
32-27,31491286,175
32-28,31495192,732
32-29,31499098,-100
32-30,31503004,-814
32-31,31506910,-85
32-32,31510816,763
32-1,31514728,161
32-2,31518634,-802
32-3,31522540,-402
32-4,31526446,626
32-5,31530352,434
32-6,31534258,-639
32-7,31538164,-660
32-8,31542070,404
32-9,31545976,617
32-10,31549882,-418
32-11,31553788,-809
32-12,31557694,206
32-13,31561600,846
32-14,31565506,11
32-15,31569412,-766
32-16,31573318,-121
32-17,31577224,773
32-18,31581130,315
32-19,31585036,-685
32-20,31588942,-396
32-21,31592848,679
32-22,31596754,552
32-23,31600660,-556
32-24,31604566,-650
32-25,31608472,391
32-26,31612378,691
32-27,31616284,-291
32-28,31620190,-781
32-29,31624096,118
32-30,31628002,743
32-31,31631908,-50
32-32,31635814,-843
32-1,31640031,-242
32-2,31643937,711
32-3,31647843,334
32-4,31651749,-687
32-5,31655655,-473
32-6,31659561,583
32-7,31663467,553
32-8,31667373,-513
32-9,31671279,-712
32-10,31675185,296
32-11,31679091,683
32-12,31682997,-266
32-13,31686903,-825
32-14,31690809,37
32-15,31694715,788
32-16,31698621,99
32-17,31702527,-781
32-18,31706433,-256
32-19,31710339,730
32-20,31714245,351
32-21,31718151,-716
32-22,31722057,-535
32-23,31725963,554
32-24,31729869,607
32-25,31733775,-466
32-26,31737681,-745
32-27,31741587,283
32-28,31745493,806
32-29,31749399,-61
32-30,31753305,-752
32-31,31757211,-18
32-32,31761117,824
32-1,31764723,220
32-2,31768629,-708
32-3,31772535,-241
32-4,31776441,743
32-5,31780347,435
32-6,31784253,-635
32-7,31788159,-582
32-8,31792065,485
32-9,31795971,651
32-10,31799877,-419
32-11,31803783,-834
32-12,31807689,146
32-13,31811595,719
32-14,31815501,-167
32-15,31819407,-857
32-16,31823313,-70
32-17,31827219,792
32-18,31831125,233
32-19,31835031,-694
32-20,31838937,-311
32-21,31842843,698
32-22,31846749,498
32-23,31850655,-575
32-24,31854561,-601
32-25,31858467,469
32-26,31862373,708
32-27,31866279,-356
32-28,31870185,-803
32-29,31874091,217
32-30,31877997,849
32-31,31881903,-36
32-32,31885809,-817
32-1,31889721,-138
32-2,31893627,769
32-3,31897533,304
32-4,31901439,-702
32-5,31905345,-455
32-6,31909251,581
32-7,31913157,506
32-8,31917063,-573
32-9,31920969,-718
32-10,31924875,328
32-11,31928781,650
32-12,31932687,-358
32-13,31936593,-874
32-14,31940499,41
32-15,31944405,738
32-16,31948311,-12
32-17,31952217,-819
32-18,31956123,-217
32-19,31960029,733
32-20,31963935,345
32-21,31967841,-694
32-22,31971747,-508
32-23,31975653,581
32-24,31979559,569
32-25,31983465,-528
32-26,31987371,-699
32-27,31991277,355
32-28,31995183,767
32-29,31999089,-160
32-30,32002995,-772
32-31,32006901,31
32-32,32010807,786
32-1,32014718,92
32-2,32018624,-823
32-3,32022530,-356
32-4,32026436,619
32-5,32030342,342
32-6,32034248,-692
32-7,32038154,-586
32-8,32042060,486
32-9,32045966,575
32-10,32049872,-484
32-11,32053778,-782
32-12,32057684,217
32-13,32061590,744
32-14,32065496,-145
32-15,32069402,-836
32-16,32073308,-45
32-17,32077214,799
32-18,32081120,180
32-19,32085026,-762
32-20,32088932,-339
32-21,32092838,676
32-22,32096744,437
32-23,32100650,-642
32-24,32104556,-615
32-25,32108462,467
32-26,32112368,659
32-27,32116274,-391
32-28,32120180,-778
32-29,32124086,221
32-30,32127992,797
32-31,32131898,-75
32-32,32135804,-835
32-1,32139716,-158
32-2,32143622,746
32-3,32147528,244
32-4,32151434,-770
32-5,32155340,-448
32-6,32159246,609
32-7,32163152,469
32-8,32167058,-615
32-9,32170964,-696
32-10,32174870,348
32-11,32178776,613
32-12,32182682,-401
32-13,32186588,-877
32-14,32190494,57
32-15,32194400,752
32-16,32198306,-26
32-17,32202212,-863
32-18,32206118,-245
32-19,32210024,694
32-20,32213930,257
32-21,32217836,-726
32-22,32221742,-448
32-23,32225648,625
32-24,32229554,567
32-25,32233460,-534
32-26,32237366,-689
32-27,32241272,357
32-28,32245178,726
32-29,32249084,-201
32-30,32252990,-789
32-31,32256896,-13
32-32,32260802,707
32-1,32264866,3
32-2,32268772,-872
32-3,32272678,-303
32-4,32276584,708
32-5,32280490,370
32-6,32284396,-651
32-7,32288302,-498
32-8,32292208,520
32-9,32296114,538
32-10,32300020,-528
32-11,32303926,-808
32-12,32307832,173
32-13,32311738,613
32-14,32315644,-312
32-15,32319550,-949
32-16,32323456,-132
32-17,32327362,699
32-18,32331268,52
32-19,32335174,-886
32-20,32339080,-413
32-21,32342986,595
32-22,32346892,296
32-23,32350798,-803
32-24,32354704,-759
32-25,32358610,334
32-26,32362516,500
32-27,32366422,-562
32-28,32370328,-885
32-29,32374234,156
32-30,32378140,673
32-31,32382046,-240
32-32,32385952,-936
32-1,32389711,-198
32-2,32393617,666
32-3,32397523,101
32-4,32401429,-895
32-5,32405335,-516
32-6,32409241,566
32-7,32413147,415
32-8,32417053,-669
32-9,32420959,-692
32-10,32424865,389
32-11,32428771,601
32-12,32432677,-429
32-13,32436583,-815
32-14,32440489,161
32-15,32444395,755
32-16,32448301,-105
32-17,32452207,-895
32-18,32456113,-210
32-19,32460019,729
32-20,32463925,242
32-21,32467831,-786
32-22,32471737,-512
32-23,32475643,543
32-24,32479549,460
32-25,32483455,-581
32-26,32487361,-650
32-27,32491267,375
32-28,32495173,667
32-29,32499079,-267
32-30,32502985,-781
32-31,32506891,42
32-32,32510797,726
32-1,32514709,-17
32-2,32518615,-860
32-3,32522521,-266
32-4,32526427,690
32-5,32530333,293
32-6,32534239,-710
32-7,32538145,-479
32-8,32542051,598
32-9,32545957,599
32-10,32549863,-482
32-11,32553769,-700
32-12,32557675,331
32-13,32561581,740
32-14,32565487,-215
32-15,32569393,-808
32-16,32573299,43
32-17,32577205,827
32-18,32581111,151
32-19,32585017,-738
32-20,32588923,-231
32-21,32592829,740
32-22,32596735,408
32-23,32600641,-643
32-24,32604547,-527
32-25,32608453,550
32-26,32612359,650
32-27,32616265,-424
32-28,32620171,-731
32-29,32624077,281
32-30,32627983,747
32-31,32631889,-177
32-32,32635795,-826
32-1,32639706,-49
32-2,32643612,781
32-3,32647518,184
32-4,32651424,-751
32-5,32655330,-320
32-6,32659236,680
32-7,32663142,445
32-8,32667048,-600
32-9,32670954,-587
32-10,32674860,472
32-11,32678766,652
32-12,32682672,-405
32-13,32686578,-789
32-14,32690484,174
32-15,32694390,716
32-16,32698296,-146
32-17,32702202,-861
32-18,32706108,-144
32-19,32710014,728
32-20,32713920,180
32-21,32717826,-805
32-22,32721732,-428
32-23,32725638,618
32-24,32729544,451
32-25,32733450,-588
32-26,32737356,-624
32-27,32741262,416
32-28,32745168,700
32-29,32749074,-285
32-30,32752980,-780
32-31,32756886,104
32-32,32760792,751
32-1,32764704,-39
32-2,32768610,-847
32-3,32772516,-232
32-4,32776422,670
32-5,32780328,207
32-6,32784234,-767
32-7,32788140,-429
32-8,32792046,647
32-9,32795952,555
32-10,32799858,-535
32-11,32803764,-683
32-12,32807670,378
32-13,32811576,701
32-14,32815482,-267
32-15,32819388,-699
32-16,32823294,159
32-17,32827200,785
32-18,32831106,123
32-19,32835012,-639
32-20,32838918,-166
32-21,32842824,667
32-22,32846730,364
32-23,32850636,-498
32-24,32854542,-353
32-25,32858448,519
32-26,32862354,529
32-27,32866260,-387
32-28,32870166,-612
32-29,32874072,273
32-30,32877978,671
32-31,32881884,-146
32-32,32885790,-675
32-1,32889854,34
32-2,32893760,687
32-3,32897666,113
32-4,32901572,-648
32-5,32905478,-212
32-6,32909384,672
32-7,32913290,445
32-8,32917196,-474
32-9,32921102,-410
32-10,32925008,529
32-11,32928914,623
32-12,32932820,-308
32-13,32936726,-604
32-14,32940632,212
32-15,32944538,623
32-16,32948444,-172
32-17,32952350,-786
32-18,32956256,-118
32-19,32960162,634
32-20,32964068,116
32-21,32967974,-727
32-22,32971880,-377
32-23,32975786,542
32-24,32979692,394
32-25,32983598,-529
32-26,32987504,-540
32-27,32991410,373
32-28,32995316,556
32-29,32999222,-298
32-30,33003128,-647
32-31,33007034,137
32-32,33010940,640
32-1,33014699,-82
32-2,33018605,-741
32-3,33022511,-138
32-4,33026417,641
32-5,33030323,183
32-6,33034229,-693
32-7,33038135,-421
32-8,33042041,484
32-9,33045947,390
32-10,33049853,-538
32-11,33053759,-633
32-12,33057665,295
32-13,33061571,574
32-14,33065477,-334
32-15,33069383,-802
32-16,33073289,-6
32-17,33077195,581
32-18,33081101,-82
32-19,33085007,-754
32-20,33088913,-229
32-21,33092819,557
32-22,33096725,214
32-23,33100631,-620
32-24,33104537,-387
32-25,33108443,544
32-26,33112349,539
32-27,33116255,-352
32-28,33120161,-485
32-29,33124067,426
32-30,33127973,744
32-31,33131879,-142
32-32,33135785,-695
32-1,33139697,23
32-2,33143603,693
32-3,33147509,77
32-4,33151415,-726
32-5,33155321,-261
32-6,33159227,611
32-7,33163133,308
32-8,33167039,-605
32-9,33170945,-481
32-10,33174851,435
32-11,33178757,483
32-12,33182663,-429
32-13,33186569,-670
32-14,33190475,207
32-15,33194381,650
32-16,33198287,-145
32-17,33202193,-731
32-18,33206099,-39
32-19,33210005,669
32-20,33213911,80
32-21,33217817,-767
32-22,33221723,-315
32-23,33225629,643
32-24,33229535,349
32-25,33233441,-697
32-26,33237347,-603
32-27,33241253,483
32-28,33245159,659
32-29,33249065,-341
32-30,33252971,-738
32-31,33256877,129
32-32,33260783,672
32-1,33264695,-126
32-2,33268601,-836
32-3,33272507,-135
32-4,33276413,719
32-5,33280319,146
32-6,33284225,-819
32-7,33288131,-412
32-8,33292037,640
32-9,33295943,460
32-10,33299849,-603
32-11,33303755,-636
32-12,33307661,417
32-13,33311567,666
32-14,33315473,-334
32-15,33319379,-771
32-16,33323285,152
32-17,33327191,775
32-18,33331097,-24
32-19,33335003,-812
32-20,33338909,-203
32-21,33342815,659
32-22,33346721,171
32-23,33350627,-809
32-24,33354533,-518
32-25,33358439,540
32-26,33362345,485
32-27,33366251,-594
32-28,33370157,-730
32-29,33374063,359
32-30,33377969,668
32-31,33381875,-340
32-32,33385781,-798
32-1,33389692,90
32-2,33393598,742
32-3,33397504,15
32-4,33401410,-807
32-5,33405316,-249
32-6,33409222,691
32-7,33413128,317
32-8,33417034,-702
32-9,33420940,-538
32-10,33424846,501
32-11,33428752,506
32-12,33432658,-556
32-13,33436564,-750
32-14,33440470,280
32-15,33444376,674
32-16,33448282,-263
32-17,33452188,-848
32-18,33456094,-49
32-19,33460000,702
32-20,33463906,54
32-21,33467812,-817
32-22,33471718,-295
32-23,33475624,700
32-24,33479530,377
32-25,33483436,-652
32-26,33487342,-523
32-27,33491248,508
32-28,33495154,596
32-29,33499060,-408
32-30,33502966,-728
32-31,33506872,196
32-32,33510778,662
32-1,33514690,-248
32-2,33518596,-905
32-3,33522502,-130
32-4,33526408,653
32-5,33530314,45
32-6,33534220,-856
32-7,33538126,-418
32-8,33542032,627
32-9,33545938,445
32-10,33549844,-611
32-11,33553750,-597
32-12,33557656,499
32-13,33561562,719
32-14,33565468,-317
32-15,33569374,-729
32-16,33573280,219
32-17,33577186,798
32-18,33581092,-62
32-19,33584998,-825
32-20,33588904,-129
32-21,33592810,740
32-22,33596716,208
32-23,33600622,-716
32-24,33604528,-353
32-25,33608434,640
32-26,33612340,505
32-27,33616246,-534
32-28,33620152,-595
32-29,33624058,477
32-30,33627964,724
32-31,33631870,-291
32-32,33635776,-732
32-1,33639687,169
32-2,33643593,802
32-3,33647499,-7
32-4,33651405,-839
32-5,33655311,-201
32-6,33659217,736
32-7,33663123,276
32-8,33667029,-737
32-9,33670935,-486
32-10,33674841,562
32-11,33678747,528
32-12,33682653,-515
32-13,33686559,-695
32-14,33690465,315
32-15,33694371,699
32-16,33698277,-222
32-17,33702183,-749
32-18,33706089,87
32-19,33709995,754
32-20,33713901,21
32-21,33717807,-800
32-22,33721713,-239
32-23,33725619,676
32-24,33729525,261
32-25,33733431,-755
32-26,33737337,-564
32-27,33741243,486
32-28,33745149,569
32-29,33749055,-422
32-30,33752961,-702
32-31,33756867,237
32-32,33760773,678
32-1,33764685,-202
32-2,33768591,-788
32-3,33772497,34
32-4,33776403,839
32-5,33780309,222
32-6,33784215,-677
32-7,33788121,-231
32-8,33792027,757
32-9,33795933,467
32-10,33799839,-633
32-11,33803745,-587
32-12,33807651,489
32-13,33811557,619
32-14,33815463,-449
32-15,33819369,-792
32-16,33823275,195
32-17,33827181,715
32-18,33831087,-158
32-19,33834993,-847
32-20,33838899,-91
32-21,33842805,796
32-22,33846711,218
32-23,33850617,-740
32-24,33854523,-314
32-25,33858429,721
32-26,33862335,544
32-27,33866241,-503
32-28,33870147,-518
32-29,33874053,553
32-30,33877959,756
32-31,33881865,-293
32-32,33885771,-724
32-1,33889713,219
32-2,33893619,848
32-3,33897525,9
32-4,33901431,-796
32-5,33905337,-134
32-6,33909243,735
32-7,33913149,204
32-8,33917055,-785
32-9,33920961,-477
32-10,33924867,537
32-11,33928773,410
32-12,33932679,-636
32-13,33936585,-716
32-14,33940491,326
32-15,33944397,617
32-16,33948303,-365
32-17,33952209,-830
32-18,33956115,56
32-19,33960021,717
32-20,33963927,-1
32-21,33967833,-789
32-22,33971739,-220
32-23,33975645,688
32-24,33979551,271
32-25,33983457,-749
32-26,33987363,-540
32-27,33991269,485
32-28,33995175,474
32-29,33999081,-522
32-30,34002987,-717
32-31,34006893,260
32-32,34010799,656
32-1,34014680,-275
32-2,34018586,-814
32-3,34022492,54
32-4,34026398,785
32-5,34030304,87
32-6,34034210,-799
32-7,34038116,-302
32-8,34042022,646
32-9,34045928,295
32-10,34049834,-760
32-11,34053740,-662
32-12,34057646,379
32-13,34061552,481
32-14,34065458,-511
32-15,34069364,-767
32-16,34073270,213
32-17,34077176,678
32-18,34081082,-229
32-19,34084988,-865
32-20,34088894,-109
32-21,34092800,617
32-22,34096706,-37
32-23,34100612,-926
32-24,34104518,-476
32-25,34108424,516
32-26,34112330,302
32-27,34116236,-729
32-28,34120142,-670
32-29,34124048,458
32-30,34127954,611
32-31,34131860,-481
32-32,34135766,-829
32-1,34139678,128
32-2,34143584,659
32-3,34147490,-165
32-4,34151396,-863
32-5,34155302,-143
32-6,34159208,745
32-7,34163114,233
32-8,34167020,-739
32-9,34170926,-424
32-10,34174832,581
32-11,34178738,425
32-12,34182644,-613
32-13,34186550,-623
32-14,34190456,446
32-15,34194362,688
32-16,34198268,-292
32-17,34202174,-688
32-18,34206080,224
32-19,34209986,817
32-20,34213892,17
32-21,34217798,-773
32-22,34221704,-156
32-23,34225610,728
32-24,34229516,228
32-25,34233422,-771
32-26,34237328,-472
32-27,34241234,585
32-28,34245140,564
32-29,34249046,-436
32-30,34252952,-603
32-31,34256858,394
32-32,34260764,756
32-1,34264676,-193
32-2,34268582,-711
32-3,34272488,122
32-4,34276394,776
32-5,34280300,57
32-6,34284206,-793
32-7,34288112,-266
32-8,34292018,692
32-9,34295924,333
32-10,34299830,-658
32-11,34303736,-419
32-12,34307642,639
32-13,34311548,625
32-14,34315454,-426
32-15,34319360,-635
32-16,34323266,371
32-17,34327172,776
32-18,34331078,-182
32-19,34334984,-779
32-20,34338890,63
32-21,34342796,829
32-22,34346702,165
32-23,34350608,-722
32-24,34354514,-262
32-25,34358420,673
32-26,34362326,337
32-27,34366232,-718
32-28,34370138,-598
32-29,34374044,496
32-30,34377950,593
32-31,34381856,-458
32-32,34385762,-738
32-1,34389673,278
32-2,34393579,807
32-3,34397485,-79
32-4,34401391,-756
32-5,34405297,-8
32-6,34409203,770
32-7,34413109,145
32-8,34417015,-783
32-9,34420921,-367
32-10,34424827,649
32-11,34428733,445
32-12,34432639,-595
32-13,34436545,-599
32-14,34440451,420
32-15,34444357,605
32-16,34448263,-397
32-17,34452169,-802
32-18,34456075,97
32-19,34459981,662
32-20,34463887,-134
32-21,34467793,-859
32-22,34471699,-199
32-23,34475605,651
32-24,34479511,156
32-25,34483417,-777
32-26,34487323,-437
32-27,34491229,587
32-28,34495135,450
32-29,34499041,-618
32-30,34502947,-713
32-31,34506853,305
32-32,34510759,582
32-1,34514671,-385
32-2,34518577,-822
32-3,34522483,118
32-4,34526389,779
32-5,34530295,-5
32-6,34534201,-801
32-7,34538107,-189
32-8,34542013,722
32-9,34545919,311
32-10,34549825,-666
32-11,34553731,-420
32-12,34557637,628
32-13,34561543,583
32-14,34565449,-475
32-15,34569355,-651
32-16,34573261,331
32-17,34577167,683
32-18,34581073,-232
32-19,34584979,-750
32-20,34588885,83
32-21,34592791,767
32-22,34596697,62
32-23,34600603,-758
32-24,34604509,-213
32-25,34608415,729
32-26,34612321,362
32-27,34616227,-703
32-28,34620133,-545
32-29,34624039,553
32-30,34627945,579
32-31,34631851,-486
32-32,34635757,-714
32-1,34639699,293
32-2,34643605,765
32-3,34647511,-119
32-4,34651417,-765
32-5,34655323,-20
32-6,34659229,769
32-7,34663135,183
32-8,34667041,-709
32-9,34670947,-281
32-10,34674853,678
32-11,34678759,389
32-12,34682665,-675
32-13,34686571,-606
32-14,34690477,464
32-15,34694383,597
32-16,34698289,-439
32-17,34702195,-766
32-18,34706101,192
32-19,34710007,688
32-20,34713913,-201
32-21,34717819,-880
32-22,34721725,-115
32-23,34725631,746
32-24,34729537,196
32-25,34733443,-749
32-26,34737349,-395
32-27,34741255,607
32-28,34745161,488
32-29,34749067,-494
32-30,34752973,-579
32-31,34756879,417
32-32,34760785,693
32-1,34764666,-315
32-2,34768572,-753
32-3,34772478,190
32-4,34776384,770
32-5,34780290,-62
32-6,34784196,-814
32-7,34788102,-148
32-8,34792008,749
32-9,34795914,247
32-10,34799820,-775
32-11,34803726,-492
32-12,34807632,561
32-13,34811538,467
32-14,34815444,-596
32-15,34819350,-708
32-16,34823256,325
32-17,34827162,654
32-18,34831068,-291
32-19,34834974,-791
32-20,34838880,50
32-21,34842786,719
32-22,34846692,0
32-23,34850598,-828
32-24,34854504,-279
32-25,34858410,637
32-26,34862316,223
32-27,34866222,-819
32-28,34870128,-599
32-29,34874034,529
32-30,34877940,545
32-31,34881846,-536
32-32,34885752,-747
32-1,34889664,248
32-2,34893570,645
32-3,34897476,-287
32-4,34901382,-888
32-5,34905288,-60
32-6,34909194,695
32-7,34913100,4
32-8,34917006,-871
32-9,34920912,-334
32-10,34924818,652
32-11,34928724,309
32-12,34932630,-714
32-13,34936536,-558
32-14,34940442,490
32-15,34944348,550
32-16,34948254,-485
32-17,34952160,-759
32-18,34956066,208
32-19,34959972,670
32-20,34963878,-219
32-21,34967784,-868
32-22,34971690,-74
32-23,34975596,780
32-24,34979502,180
32-25,34983408,-753
32-26,34987314,-331
32-27,34991220,641
32-28,34995126,380
32-29,34999032,-665
32-30,35002938,-647
32-31,35006844,380
32-32,35010750,537
32-1,35014661,-493
32-2,35018567,-824
32-3,35022473,182
32-4,35026379,735
32-5,35030285,-99
32-6,35034191,-752
32-7,35038097,-2
32-8,35042003,840
32-9,35045909,256
32-10,35049815,-727
32-11,35053721,-372
32-12,35057627,655
32-13,35061533,493
32-14,35065439,-592
32-15,35069345,-667
32-16,35073251,413
32-17,35077157,720
32-18,35081063,-261
32-19,35084969,-729
32-20,35088875,153
32-21,35092781,780
32-22,35096687,13
32-23,35100593,-742
32-24,35104499,-85
32-25,35108405,834
32-26,35112311,380
32-27,35116217,-651
32-28,35120123,-395
32-29,35124029,697
32-30,35127935,593
32-31,35131841,-534
32-32,35135747,-664
32-1,35139659,351
32-2,35143565,684
32-3,35147471,-237
32-4,35151377,-745
32-5,35155283,125
32-6,35159189,828
32-7,35163095,64
32-8,35167001,-823
32-9,35170907,-253
32-10,35174813,722
32-11,35178719,338
32-12,35182625,-682
32-13,35186531,-481
32-14,35190437,565
32-15,35194343,542
32-16,35198249,-544
32-17,35202155,-775
32-18,35206061,246
32-19,35209967,678
32-20,35213873,-271
32-21,35217779,-886
32-22,35221685,-39
32-23,35225591,756
32-24,35229497,64
32-25,35233403,-885
32-26,35237309,-390
32-27,35241215,641
32-28,35245121,365
32-29,35249027,-664
32-30,35252933,-575
32-31,35256839,481
32-32,35260745,602
32-1,35264657,-453
32-2,35268563,-751
32-3,35272469,300
32-4,35276375,846
32-5,35280281,-73
32-6,35284187,-791
32-7,35288093,-30
32-8,35291999,810
32-9,35295905,214
32-10,35299811,-730
32-11,35303717,-343
32-12,35307623,642
32-13,35311529,427
32-14,35315435,-630
32-15,35319341,-628
32-16,35323247,467
32-17,35327153,683
32-18,35331059,-384
32-19,35334965,-799
32-20,35338871,177
32-21,35342777,774
32-22,35346683,-80
32-23,35350589,-825
32-24,35354495,-135
32-25,35358401,713
32-26,35362307,170
32-27,35366213,-826
32-28,35370119,-501
32-29,35374025,555
32-30,35377931,383
32-31,35381837,-741
32-32,35385743,-795
32-1,35389715,297
32-2,35393621,579
32-3,35397527,-415
32-4,35401433,-882
32-5,35405339,45
32-6,35409245,745
32-7,35413151,-9
32-8,35417057,-829
32-9,35420963,-207
32-10,35424869,741
32-11,35428775,311
32-12,35432681,-729
32-13,35436587,-528
32-14,35440493,543
32-15,35444399,529
32-16,35448305,-553
32-17,35452211,-718
32-18,35456117,335
32-19,35460023,698
32-20,35463929,-278
32-21,35467835,-838
32-22,35471741,17
32-23,35475647,761
32-24,35479553,62
32-25,35483459,-821
32-26,35487365,-276
32-27,35491271,697
32-28,35495177,353
32-29,35499083,-625
32-30,35502989,-488
32-31,35506895,529
32-32,35510801,604
32-1,35514652,-480
32-2,35518558,-788
32-3,35522464,251
32-4,35526370,738
32-5,35530276,-195
32-6,35534182,-832
32-7,35538088,-27
32-8,35541994,756
32-9,35545900,131
32-10,35549806,-770
32-11,35553712,-341
32-12,35557618,650
32-13,35561524,407
32-14,35565430,-647
32-15,35569336,-578
32-16,35573242,520
32-17,35577148,670
32-18,35581054,-394
32-19,35584960,-742
32-20,35588866,240
32-21,35592772,777
32-22,35596678,-88
32-23,35600584,-791
32-24,35604490,-62
32-25,35608396,793
32-26,35612302,233
32-27,35616208,-749
32-28,35620114,-375
32-29,35624020,707
32-30,35627926,496
32-31,35631832,-668
32-32,35635738,-701
32-1,35639650,388
32-2,35643556,642
32-3,35647462,-349
32-4,35651368,-790
32-5,35655274,130
32-6,35659180,739
32-7,35663086,-98
32-8,35666992,-891
32-9,35670898,-216
32-10,35674804,726
32-11,35678710,241
32-12,35682616,-789
32-13,35686522,-470
32-14,35690428,654
32-15,35694334,594
32-16,35698240,-492
32-17,35702146,-627
32-18,35706052,410
32-19,35709958,724
32-20,35713864,-269
32-21,35717770,-789
32-22,35721676,78
32-23,35725582,752
32-24,35729488,-9
32-25,35733394,-846
32-26,35737300,-238
32-27,35741206,718
32-28,35745112,330
32-29,35749018,-646
32-30,35752924,-455
32-31,35756830,560
32-32,35760736,556
32-1,35764647,-519
32-2,35768553,-727
32-3,35772459,337
32-4,35776365,773
32-5,35780271,-162
32-6,35784177,-755
32-7,35788083,71
32-8,35791989,813
32-9,35795895,104
32-10,35799801,-761
32-11,35803707,-198
32-12,35807613,799
32-13,35811519,473
32-14,35815425,-586
32-15,35819331,-499
32-16,35823237,562
32-17,35827143,664
32-18,35831049,-394
32-19,35834955,-683
32-20,35838861,317
32-21,35842767,796
32-22,35846673,-100
32-23,35850579,-756
32-24,35854485,5
32-25,35858391,830
32-26,35862297,230
32-27,35866203,-746
32-28,35870109,-326
32-29,35874015,751
32-30,35877921,485
32-31,35881827,-678
32-32,35885733,-638
32-1,35889645,499
32-2,35893551,678
32-3,35897457,-390
32-4,35901363,-797
32-5,35905269,144
32-6,35909175,734
32-7,35913081,-71
32-8,35916987,-809
32-9,35920893,-136
32-10,35924799,730
32-11,35928705,178
32-12,35932611,-823
32-13,35936517,-475
32-14,35940423,587
32-15,35944329,471
32-16,35948235,-581
32-17,35952141,-642
32-18,35956047,438
32-19,35959953,708
32-20,35963859,-357
32-21,35967765,-842
32-22,35971671,114
32-23,35975577,779
32-24,35979483,-25
32-25,35983389,-829
32-26,35987295,-200
32-27,35991201,697
32-28,35995107,243
32-29,35999013,-765
32-30,36002919,-544
32-31,36006825,509
32-32,36010731,484
32-1,36014643,-576
32-2,36018549,-734
32-3,36022455,307
32-4,36026361,668
32-5,36030267,-322
32-6,36034173,-890
32-7,36038079,-11
32-8,36041985,723
32-9,36045891,12
32-10,36049797,-806
32-11,36053703,-200
32-12,36057609,756
32-13,36061515,320
32-14,36065421,-732
32-15,36069327,-524
32-16,36073233,546
32-17,36077139,548
32-18,36081045,-515
32-19,36084951,-709
32-20,36088857,318
32-21,36092763,708
32-22,36096669,-255
32-23,36100575,-864
32-24,36104481,-31
32-25,36108387,790
32-26,36112293,168
32-27,36116199,-731
32-28,36120105,-232
32-29,36124011,790
32-30,36127917,478
32-31,36131823,-635
32-32,36135729,-580
32-1,36139671,508
32-2,36143577,644
32-3,36147483,-424
32-4,36151389,-748
32-5,36155295,271
32-6,36159201,804
32-7,36163107,-105
32-8,36167013,-832
32-9,36170919,-80
32-10,36174825,791
32-11,36178731,207
32-12,36182637,-750
32-13,36186543,-326
32-14,36190449,708
32-15,36194355,485
32-16,36198261,-579
32-17,36202167,-565
32-18,36206073,491
32-19,36209979,659
32-20,36213885,-399
32-21,36217791,-794
32-22,36221697,163
32-23,36225603,745
32-24,36229509,-106
32-25,36233415,-870
32-26,36237321,-168
32-27,36241227,699
32-28,36245133,185
32-29,36249039,-713
32-30,36252945,-396
32-31,36256851,580
32-32,36260757,456
32-1,36264638,-637
32-2,36268544,-760
32-3,36272450,313
32-4,36276356,659
32-5,36280262,-336
32-6,36284168,-884
32-7,36288074,17
32-8,36291980,728
32-9,36295886,-53
32-10,36299792,-885
32-11,36303698,-257
32-12,36307604,698
32-13,36311510,286
32-14,36315416,-700
32-15,36319322,-444
32-16,36323228,629
32-17,36327134,593
32-18,36331040,-534
32-19,36334946,-774
32-20,36338852,252
32-21,36342758,667
32-22,36346664,-265
32-23,36350570,-832
32-24,36354476,34
32-25,36358382,815
32-26,36362288,132
32-27,36366194,-782
32-28,36370100,-265
32-29,36374006,775
32-30,36377912,420
32-31,36381818,-720
32-32,36385724,-607
32-1,36389635,466
32-2,36393541,522
32-3,36397447,-528
32-4,36401353,-790
32-5,36405259,220
32-6,36409165,702
32-7,36413071,-216
32-8,36416977,-882
32-9,36420883,-96
32-10,36424789,712
32-11,36428695,98
32-12,36432601,-804
32-13,36436507,-355
32-14,36440413,666
32-15,36444319,418
32-16,36448225,-671
32-17,36452131,-634
32-18,36456037,423
32-19,36459943,546
32-20,36463849,-497
32-21,36467755,-822
32-22,36471661,188
32-23,36475567,773
32-24,36479473,-106
32-25,36483379,-847
32-26,36487285,-97
32-27,36491191,744
32-28,36495097,181
32-29,36499003,-687
32-30,36502909,-311
32-31,36506815,649
32-32,36510721,476
32-1,36514633,-600
32-2,36518539,-664
32-3,36522445,386
32-4,36526351,622
32-5,36530257,-391
32-6,36534163,-833
32-7,36538069,100
32-8,36541975,733
32-9,36545881,-70
32-10,36549787,-832
32-11,36553693,-153
32-12,36557599,793
32-13,36561505,323
32-14,36565411,-714
32-15,36569317,-431
32-16,36573223,635
32-17,36577129,547
32-18,36581035,-488
32-19,36584941,-583
32-20,36588847,428
32-21,36592753,727
32-22,36596659,-265
32-23,36600565,-811
32-24,36604471,56
32-25,36608377,758
32-26,36612283,7
32-27,36616189,-851
32-28,36620095,-250
32-29,36624001,742
32-30,36627907,315
32-31,36631813,-743
32-32,36635719,-513
32-1,36639631,548
32-2,36643537,532
32-3,36647443,-518
32-4,36651349,-723
32-5,36655255,307
32-6,36659161,723
32-7,36663067,-233
32-8,36666973,-813
32-9,36670879,38
32-10,36674785,782
32-11,36678691,100
32-12,36682597,-758
32-13,36686503,-257
32-14,36690409,692
32-15,36694315,351
32-16,36698221,-729
32-17,36702127,-661
32-18,36706033,406
32-19,36709939,538
32-20,36713845,-499
32-21,36717751,-803
32-22,36721657,181
32-23,36725563,675
32-24,36729469,-203
32-25,36733375,-858
32-26,36737281,-117
32-27,36741187,679
32-28,36745093,126
32-29,36748999,-738
32-30,36752905,-313
32-31,36756811,713
32-32,36760717,512
32-1,36764628,-577
32-2,36768534,-576
32-3,36772440,515
32-4,36776346,709
32-5,36780252,-341
32-6,36784158,-755
32-7,36788064,163
32-8,36791970,712
32-9,36795876,-111
32-10,36799782,-815
32-11,36803688,-84
32-12,36807594,818
32-13,36811500,275
32-14,36815406,-734
32-15,36819312,-413
32-16,36823218,619
32-17,36827124,486
32-18,36831030,-577
32-19,36834936,-648
32-20,36838842,409
32-21,36842748,690
32-22,36846654,-316
32-23,36850560,-792
32-24,36854466,121
32-25,36858372,778
32-26,36862278,-3
32-27,36866184,-841
32-28,36870090,-203
32-29,36873996,825
32-30,36877902,397
32-31,36881808,-697
32-32,36885714,-479
32-1,36889626,604
32-2,36893532,601
32-3,36897438,-433
32-4,36901344,-606
32-5,36905250,408
32-6,36909156,767
32-7,36913062,-241
32-8,36916968,-864
32-9,36920874,-27
32-10,36924780,716
32-11,36928686,-2
32-12,36932592,-880
32-13,36936498,-332
32-14,36940404,653
32-15,36944310,319
32-16,36948216,-675
32-17,36952122,-463
32-18,36956028,607
32-19,36959934,605
32-20,36963840,-472
32-21,36967746,-711
32-22,36971652,310
32-23,36975558,793
32-24,36979464,-118
32-25,36983370,-772
32-26,36987276,9
32-27,36991182,758
32-28,36995088,102
32-29,36998994,-761
32-30,37002900,-293
32-31,37006806,666
32-32,37010712,370
32-1,37014624,-686
32-2,37018530,-593
32-3,37022436,492
32-4,37026342,609
32-5,37030248,-452
32-6,37034154,-795
32-7,37038060,175
32-8,37041966,694
32-9,37045872,-202
32-10,37049778,-908
32-11,37053684,-128
32-12,37057590,755
32-13,37061496,191
32-14,37065402,-747
32-15,37069308,-364
32-16,37073214,644
32-17,37077120,466
32-18,37081026,-585
32-19,37084932,-601
32-20,37088838,454
32-21,37092744,651
32-22,37096650,-377
32-23,37100556,-794
32-24,37104462,100
32-25,37108368,662
32-26,37112274,-153
32-27,37116180,-884
32-28,37120086,-116
32-29,37123992,897
32-30,37127898,402
32-31,37131804,-662
32-32,37135710,-380
32-1,37139652,673
32-2,37143558,554
32-3,37147464,-542
32-4,37151370,-679
32-5,37155276,338
32-6,37159182,644
32-7,37163088,-315
32-8,37166994,-783
32-9,37170900,118
32-10,37174806,800
32-11,37178712,43
32-12,37182618,-804
32-13,37186524,-215
32-14,37190430,743
32-15,37194336,323
32-16,37198242,-720
32-17,37202148,-525
32-18,37206054,523
32-19,37209960,515
32-20,37213866,-548
32-21,37217772,-721
32-22,37221678,343
32-23,37225584,727
32-24,37229490,-273
32-25,37233396,-862
32-26,37237302,11
32-27,37241208,790
32-28,37245114,144
32-29,37249020,-719
32-30,37252926,-243
32-31,37256832,721
32-32,37260738,407
32-1,37264619,-639
32-2,37268525,-512
32-3,37272431,572
32-4,37276337,669
32-5,37280243,-383
32-6,37284149,-673
32-7,37288055,320
32-8,37291961,793
32-9,37295867,-113
32-10,37299773,-769
32-11,37303679,1
32-12,37307585,802
32-13,37311491,190
32-14,37315397,-708
32-15,37319303,-266
32-16,37323209,734
32-17,37327115,494
32-18,37331021,-580
32-19,37334927,-575
32-20,37338833,474
32-21,37342739,633
32-22,37346645,-408
32-23,37350551,-756
32-24,37354457,227
32-25,37358363,749
32-26,37362269,-142
32-27,37366175,-859
32-28,37370081,-120
32-29,37373987,789
32-30,37377893,233
32-31,37381799,-785
32-32,37385705,-418
32-1,37389616,614
32-2,37393522,412
32-3,37397428,-668
32-4,37401334,-715
32-5,37405240,346
32-6,37409146,625
32-7,37413052,-366
32-8,37416958,-791
32-9,37420864,170
32-10,37424770,808
32-11,37428676,-19
32-12,37432582,-844
32-13,37436488,-220
32-14,37440394,702
32-15,37444300,235
32-16,37448206,-774
32-17,37452112,-492
32-18,37456018,567
32-19,37459924,507
32-20,37463830,-555
32-21,37467736,-708
32-22,37471642,339
32-23,37475548,699
32-24,37479454,-302
32-25,37483360,-867
32-26,37487266,12
32-27,37491172,720
32-28,37495078,-20
32-29,37498984,-831
32-30,37502890,-234
32-31,37506796,710
32-32,37510702,326
32-1,37514614,-687
32-2,37518520,-468
32-3,37522426,626
32-4,37526332,612
32-5,37530238,-499
32-6,37534144,-734
32-7,37538050,280
32-8,37541956,697
32-9,37545862,-223
32-10,37549768,-829
32-11,37553674,-39
32-12,37557580,754
32-13,37561486,122
32-14,37565392,-788
32-15,37569298,-297
32-16,37573204,718
32-17,37577110,443
32-18,37581016,-616
32-19,37584922,-560
32-20,37588828,510
32-21,37592734,639
32-22,37596640,-401
32-23,37600546,-683
32-24,37604452,314
32-25,37608358,797
32-26,37612264,-99
32-27,37616170,-795
32-28,37620076,-22
32-29,37623982,846
32-30,37627888,233
32-31,37631794,-720
32-32,37635700,-293
32-1,37639642,723
32-2,37643548,496
32-3,37647454,-594
32-4,37651360,-596
32-5,37655266,484
32-6,37659172,683
32-7,37663078,-341
32-8,37666984,-746
32-9,37670890,198
32-10,37674796,817
32-11,37678702,3
32-12,37682608,-748
32-13,37686514,-51
32-14,37690420,837
32-15,37694326,293
32-16,37698232,-710
32-17,37702138,-366
32-18,37706044,711
32-19,37709950,596
32-20,37713856,-470
32-21,37717762,-537
32-22,37721668,513
32-23,37725574,787
32-24,37729480,-224
32-25,37733386,-735
32-26,37737292,164
32-27,37741198,819
32-28,37745104,11
32-29,37749010,-793
32-30,37752916,-174
32-31,37756822,722
32-32,37760728,284
32-1,37764701,-716
32-2,37768607,-483
32-3,37772513,568
32-4,37776419,535
32-5,37780325,-547
32-6,37784231,-747
32-7,37788137,281
32-8,37792043,641
32-9,37795949,-341
32-10,37799855,-873
32-11,37803761,31
32-12,37807667,766
32-13,37811573,29
32-14,37815479,-823
32-15,37819385,-232
32-16,37823291,758
32-17,37827197,390
32-18,37831103,-664
32-19,37835009,-521
32-20,37838915,535
32-21,37842821,580
32-22,37846727,-478
32-23,37850633,-740
32-24,37854539,260
32-25,37858445,743
32-26,37862351,-151
32-27,37866257,-837
32-28,37870163,-54
32-29,37874069,816
32-30,37877975,153
32-31,37881881,-845
32-32,37885787,-353
32-1,37889607,689
32-2,37893513,397
32-3,37897419,-680
32-4,37901325,-625
32-5,37905231,456
32-6,37909137,626
32-7,37913043,-420
32-8,37916949,-784
32-9,37920855,176
32-10,37924761,708
32-11,37928667,-147
32-12,37932573,-837
32-13,37936479,-80
32-14,37940385,793
32-15,37944291,207
32-16,37948197,-743
32-17,37952103,-296
32-18,37956009,771
32-19,37959915,548
32-20,37963821,-580
32-21,37967727,-635
32-22,37971633,404
32-23,37975539,632
32-24,37979445,-378
32-25,37983351,-820
32-26,37987257,118
32-27,37991163,738
32-28,37995069,-91
32-29,37998975,-857
32-30,38002881,-200
32-31,38006787,678
32-32,38010693,192
32-1,38014605,-799
32-2,38018511,-510
32-3,38022417,529
32-4,38026323,421
32-5,38030229,-654
32-6,38034135,-771
32-7,38038041,277
32-8,38041947,618
32-9,38045853,-350
32-10,38049759,-891
32-11,38053665,-20
32-12,38057571,691
32-13,38061477,-52
32-14,38065383,-869
32-15,38069289,-248
32-16,38073195,698
32-17,38077101,252
32-18,38081007,-792
32-19,38084913,-554
32-20,38088819,499
32-21,38092725,450
32-22,38096631,-618
32-23,38100537,-801
32-24,38104443,247
32-25,38108349,666
32-26,38112255,-275
32-27,38116161,-867
32-28,38120067,-18
32-29,38123973,793
32-30,38127879,114
32-31,38131785,-806
32-32,38135691,-279
32-1,38139602,731
32-2,38143508,414
32-3,38147414,-654
32-4,38151320,-567
32-5,38155226,505
32-6,38159132,607
32-7,38163038,-449
32-8,38166944,-755
32-9,38170850,219
32-10,38174756,709
32-11,38178662,-175
32-12,38182568,-840
32-13,38186474,-67
32-14,38190380,758
32-15,38194286,139
32-16,38198192,-796
32-17,38202098,-326
32-18,38206004,726
32-19,38209910,466
32-20,38213816,-628
32-21,38217722,-590
32-22,38221628,488
32-23,38225534,671
32-24,38229440,-391
32-25,38233346,-804
32-26,38237252,190
32-27,38241158,763
32-28,38245064,-112
32-29,38248970,-808
32-30,38252876,-125
32-31,38256782,682
32-32,38260688,162
32-1,38264600,-803
32-2,38268506,-464
32-3,38272412,612
32-4,38276318,506
32-5,38280224,-538
32-6,38284130,-605
32-7,38288036,424
32-8,38291942,687
32-9,38295848,-315
32-10,38299754,-782
32-11,38303660,148
32-12,38307566,800
32-13,38311472,-9
32-14,38315378,-815
32-15,38319284,-181
32-16,38323190,722
32-17,38327096,243
32-18,38331002,-774
32-19,38334908,-500
32-20,38338814,575
32-21,38342720,529
32-22,38346626,-543
32-23,38350532,-723
32-24,38354438,272
32-25,38358344,603
32-26,38362250,-367
32-27,38366156,-915
32-28,38370062,-10
32-29,38373968,766
32-30,38377874,-11
32-31,38381780,-938
32-32,38385686,-329
32-1,38389811,696
32-2,38393717,328
32-3,38397623,-695
32-4,38401529,-489
32-5,38405435,585
32-6,38409341,607
32-7,38413247,-444
32-8,38417153,-690
32-9,38421059,291
32-10,38424965,724
32-11,38428871,-216
32-12,38432777,-876
32-13,38436683,-58
32-14,38440589,778
32-15,38444495,134
32-16,38448401,-792
32-17,38452307,-286
32-18,38456213,743
32-19,38460119,437
32-20,38464025,-665
32-21,38467931,-626
32-22,38471837,443
32-23,38475743,590
32-24,38479649,-470
32-25,38483555,-826
32-26,38487461,158
32-27,38491367,673
32-28,38495273,-212
32-29,38499179,-855
32-30,38503085,-123
32-31,38506991,622
32-32,38510897,43
32-1,38514595,-838
32-2,38518501,-417
32-3,38522407,607
32-4,38526313,407
32-5,38530219,-649
32-6,38534125,-650
32-7,38538031,395
32-8,38541937,606
32-9,38545843,-373
32-10,38549749,-741
32-11,38553655,221
32-12,38557561,837
32-13,38561467,14
32-14,38565373,-773
32-15,38569279,-108
32-16,38573185,821
32-17,38577091,350
32-18,38580997,-642
32-19,38584903,-334
32-20,38588809,697
32-21,38592715,567
32-22,38596621,-485
32-23,38600527,-551
32-24,38604433,522
32-25,38608339,808
32-26,38612245,-222
32-27,38616151,-727
32-28,38620057,186
32-29,38623963,872
32-30,38627869,90
32-31,38631775,-765
32-32,38635681,-169
32-1,38639593,756
32-2,38643499,280
32-3,38647405,-781
32-4,38651311,-554
32-5,38655217,512
32-6,38659123,494
32-7,38663029,-550
32-8,38666935,-713
32-9,38670841,333
32-10,38674747,706
32-11,38678653,-282
32-12,38682559,-844
32-13,38686465,18
32-14,38690371,758
32-15,38694277,86
32-16,38698183,-741
32-17,38702089,-180
32-18,38705995,799
32-19,38709901,430
32-20,38713807,-642
32-21,38717713,-516
32-22,38721619,545
32-23,38725525,611
32-24,38729431,-438
32-25,38733337,-690
32-26,38737243,337
32-27,38741149,791
32-28,38745055,-133
32-29,38748961,-773
32-30,38752867,-18
32-31,38756773,762
32-32,38760679,141
32-1,38764590,-780
32-2,38768496,-318
32-3,38772402,687
32-4,38776308,399
32-5,38780214,-649
32-6,38784120,-544
32-7,38788026,549
32-8,38791932,675
32-9,38795838,-392
32-10,38799744,-727
32-11,38803650,271
32-12,38807556,808
32-13,38811462,-82
32-14,38815368,-810
32-15,38819274,-89
32-16,38823180,768
32-17,38827086,196
32-18,38830992,-807
32-19,38834898,-470
32-20,38838804,572
32-21,38842710,424
32-22,38846616,-638
32-23,38850522,-670
32-24,38854428,398
32-25,38858334,658
32-26,38862240,-320
32-27,38866146,-768
32-28,38870052,143
32-29,38873958,790
32-30,38877864,-61
32-31,38881770,-904
32-32,38885676,-232
32-1,38889588,682
32-2,38893494,178
32-3,38897400,-825
32-4,38901306,-527
32-5,38905212,552
32-6,38909118,467
32-7,38913024,-626
32-8,38916930,-743
32-9,38920836,309
32-10,38924742,623
32-11,38928648,-367
32-12,38932554,-893
32-13,38936460,-17
32-14,38940366,688
32-15,38944272,-35
32-16,38948178,-830
32-17,38952084,-202
32-18,38955990,759
32-19,38959896,346
32-20,38963802,-686
32-21,38967708,-484
32-22,38971614,587
32-23,38975520,608
32-24,38979426,-454
32-25,38983332,-674
32-26,38987238,355
32-27,38991144,754
32-28,38995050,-189
32-29,38998956,-741
32-30,39002862,55
32-31,39006768,731
32-32,39010674,42
32-1,39014738,-819
32-2,39018644,-302
32-3,39022550,664
32-4,39026456,321
32-5,39030362,-718
32-6,39034268,-574
32-7,39038174,509
32-8,39042080,604
32-9,39045986,-433
32-10,39049892,-704
32-11,39053798,295
32-12,39057704,772
32-13,39061610,-152
32-14,39065516,-840
32-15,39069422,-85
32-16,39073328,729
32-17,39077234,142
32-18,39081140,-766
32-19,39085046,-345
32-20,39088952,654
32-21,39092858,431
32-22,39096764,-618
32-23,39100670,-589
32-24,39104576,489
32-25,39108482,657
32-26,39112388,-405
32-27,39116294,-803
32-28,39120200,177
32-29,39124106,805
32-30,39128012,-52
32-31,39131918,-847
32-32,39135824,-136
32-1,39139644,752
32-2,39143550,198
32-3,39147456,-775
32-4,39151362,-437
32-5,39155268,589
32-6,39159174,457
32-7,39163080,-611
32-8,39166986,-679
32-9,39170892,382
32-10,39174798,659
32-11,39178704,-308
32-12,39182610,-768
32-13,39186516,91
32-14,39190422,699
32-15,39194328,-68
32-16,39198234,-817
32-17,39202140,-184
32-18,39206046,698
32-19,39209952,259
32-20,39213858,-705
32-21,39217764,-436
32-22,39221670,621
32-23,39225576,561
32-24,39229482,-512
32-25,39233388,-638
32-26,39237294,428
32-27,39241200,778
32-28,39245106,-165
32-29,39249012,-658
32-30,39252918,165
32-31,39256824,787
32-32,39260730,19
32-1,39264581,-832
32-2,39268487,-267
32-3,39272393,689
32-4,39276299,346
32-5,39280205,-638
32-6,39284111,-447
32-7,39288017,645
32-8,39291923,697
32-9,39295829,-370
32-10,39299735,-606
32-11,39303641,414
32-12,39307547,836
32-13,39311453,-127
32-14,39315359,-743
32-15,39319265,65
32-16,39323171,788
32-17,39327077,108
32-18,39330983,-786
32-19,39334889,-333
32-20,39338795,636
32-21,39342701,346
32-22,39346607,-703
32-23,39350513,-622
32-24,39354419,447
32-25,39358325,592
32-26,39362231,-420
32-27,39366137,-742
32-28,39370043,225
32-29,39373949,756
32-30,39377855,-141
32-31,39381761,-875
32-32,39385667,-133
32-1,39389579,710
32-2,39393485,116
32-3,39397391,-856
32-4,39401297,-470
32-5,39405203,589
32-6,39409109,434
32-7,39413015,-601
32-8,39416921,-616
32-9,39420827,418
32-10,39424733,655
32-11,39428639,-311
32-12,39432545,-703
32-13,39436451,216
32-14,39440357,801
32-15,39444263,-13
32-16,39448169,-768
32-17,39452075,-84
32-18,39455981,815
32-19,39459887,319
32-20,39463793,-660
32-21,39467699,-372
32-22,39471605,638
32-23,39475511,522
32-24,39479417,-545
32-25,39483323,-664
32-26,39487229,342
32-27,39491135,616
32-28,39495041,-358
32-29,39498947,-832
32-30,39502853,54
32-31,39506759,738
32-32,39510665,-5
32-1,39514576,-818
32-2,39518482,-182
32-3,39522388,747
32-4,39526294,261
32-5,39530200,-755
32-6,39534106,-498
32-7,39538012,543
32-8,39541918,495
32-9,39545824,-574
32-10,39549730,-770
32-11,39553636,247
32-12,39557542,646
32-13,39561448,-270
32-14,39565354,-807
32-15,39569260,33
32-16,39573166,756
32-17,39577072,61
32-18,39580978,-811
32-19,39584884,-269
32-20,39588790,738
32-21,39592696,410
32-22,39596602,-626
32-23,39600508,-491
32-24,39604414,536
32-25,39608320,568
32-26,39612226,-471
32-27,39616132,-726
32-28,39620038,298
32-29,39623944,800
32-30,39627850,-137
32-31,39631756,-800
32-32,39635662,33
32-1,39639574,838
32-2,39643480,198
32-3,39647386,-711
32-4,39651292,-316
32-5,39655198,637
32-6,39659104,418
32-7,39663010,-629
32-8,39666916,-622
32-9,39670822,438
32-10,39674728,605
32-11,39678634,-409
32-12,39682540,-733
32-13,39686446,236
32-14,39690352,788
32-15,39694258,-71
32-16,39698164,-808
32-17,39702070,-107
32-18,39705976,727
32-19,39709882,182
32-20,39713788,-740
32-21,39717694,-376
32-22,39721600,640
32-23,39725506,484
32-24,39729412,-594
32-25,39733318,-670
32-26,39737224,371
32-27,39741130,594
32-28,39745036,-411
32-29,39748942,-804
32-30,39752848,98
32-31,39756754,673
32-32,39760660,-116
32-1,39764571,-869
32-2,39768477,-215
32-3,39772383,681
32-4,39776289,171
32-5,39780195,-847
32-6,39784101,-535
32-7,39788007,552
32-8,39791913,485
32-9,39795819,-567
32-10,39799725,-685
32-11,39803631,344
32-12,39807537,667
32-13,39811443,-295
32-14,39815349,-801
32-15,39819255,74
32-16,39823161,751
32-17,39827067,-22
32-18,39830973,-874
32-19,39834879,-284
32-20,39838785,675
32-21,39842691,291
32-22,39846597,-727
32-23,39850503,-530
32-24,39854409,519
32-25,39858315,503
32-26,39862221,-563
32-27,39866127,-774
32-28,39870033,271
32-29,39873939,705
32-30,39877845,-287
32-31,39881751,-913
32-32,39885657,-39
32-1,39889661,772
32-2,39893567,130
32-3,39897473,-738
32-4,39901379,-231
32-5,39905285,749
32-6,39909191,422
32-7,39913097,-636
32-8,39917003,-546
32-9,39920909,506
32-10,39924815,618
32-11,39928721,-409
32-12,39932627,-713
32-13,39936533,258
32-14,39940439,737
32-15,39944345,-179
32-16,39948251,-870
32-17,39952157,-135
32-18,39956063,657
32-19,39959969,45
32-20,39963875,-878
32-21,39967781,-422
32-22,39971687,615
32-23,39975593,370
32-24,39979499,-701
32-25,39983405,-666
32-26,39987311,410
32-27,39991217,605
32-28,39995123,-390
32-29,39999029,-745
32-30,40002935,170
32-31,40006841,707
32-32,40010747,-133
32-1,40014567,-883
32-2,40018473,-177
32-3,40022379,728
32-4,40026285,207
32-5,40030191,-766
32-6,40034097,-437
32-7,40038003,588
32-8,40041909,471
32-9,40045815,-571
32-10,40049721,-648
32-11,40053627,408
32-12,40057533,702
32-13,40061439,-308
32-14,40065345,-810
32-15,40069251,84
32-16,40073157,742
32-17,40077063,-34
32-18,40080969,-804
32-19,40084875,-137
32-20,40088781,795
32-21,40092687,344
32-22,40096593,-691
32-23,40100499,-461
32-24,40104405,628
32-25,40108311,605
32-26,40112217,-470
32-27,40116123,-677
32-28,40120029,336
32-29,40123935,769
32-30,40127841,-180
32-31,40131747,-787
32-32,40135653,50
32-1,40139564,751
32-2,40143470,5
32-3,40147376,-865
32-4,40151282,-308
32-5,40155188,638
32-6,40159094,221
32-7,40163000,-819
32-8,40166906,-625
32-9,40170812,459
32-10,40174718,525
32-11,40178624,-505
32-12,40182530,-741
32-13,40186436,265
32-14,40190342,720
32-15,40194248,-180
32-16,40198154,-795
32-17,40202060,0
32-18,40205966,761
32-19,40209872,109
32-20,40213778,-772
32-21,40217684,-287
32-22,40221590,715
32-23,40225496,451
32-24,40229402,-620
32-25,40233308,-556
32-26,40237214,549
32-27,40241120,685
32-28,40245026,-384
32-29,40248932,-713
