32-1,5978072,6995
32-2,5981978,24548
32-3,5985884,24240
32-4,5989790,7278
32-5,5993696,-9539
32-6,5997602,-9129
32-7,6001508,-10161
32-8,6005414,-8680
32-9,6009320,15228
32-10,6013226,24122
32-11,6017132,9189
32-12,6021038,-10033
32-13,6024944,-9597
32-14,6028850,-7618
32-15,6032756,-12974
32-16,6036662,-2018
32-17,6040568,23719
32-18,6044474,20482
32-19,6048380,-4513
32-20,6052286,-11838
32-21,6056192,-7465
32-22,6060098,-9760
32-23,6064004,-12338
32-24,6067910,6636
32-25,6071816,24165
32-26,6075722,11393
32-27,6079628,-9912
32-28,6083534,-10054
32-29,6087440,-6949
32-30,6091346,-9927
32-31,6095252,-7425
32-32,6099158,13770
32-1,6103252,24098
32-2,6107158,11781
32-3,6111064,-8981
32-4,6114970,-9470
32-5,6118876,-7666
32-6,6122782,-12581
32-7,6126688,-3595
32-8,6130594,21451
32-9,6134500,23907
32-10,6138406,3868
32-11,6142312,-12525
32-12,6146218,-10140
32-13,6150124,-9757
32-14,6154030,-13770
32-15,6157936,3949
32-16,6161842,24085
32-17,6165748,14183
32-18,6169654,-11467
32-19,6173560,-15233
32-20,6177466,-11023
32-21,6181372,-15359
32-22,6185278,-13297
32-23,6189184,13487
32-24,6193090,24264
32-25,6196996,466
32-26,6200902,-18537
32-27,6204808,-15599
32-28,6208714,-15647
32-29,6212620,-20638
32-30,6216526,-11830
32-31,6220432,19414
32-32,6224338,24736
32-1,6228097,-615
32-2,6232003,-20699
32-3,6235909,-22259
32-4,6239815,-17439
32-5,6243721,-5925
32-6,6247627,10370
32-7,6251533,25130
32-8,6255439,14627
32-9,6259345,1602
32-10,6263251,12628
32-11,6267157,18117
32-12,6271063,15798
32-13,6274969,14217
32-14,6278875,18326
32-15,6282781,18084
32-16,6286687,5018
32-17,6290593,12715
32-18,6294499,23173
32-19,6298405,22883
32-20,6302311,21404
32-21,6306217,17986
32-22,6310123,18661
32-23,6314029,11757
32-24,6317935,5349
32-25,6321841,19085
32-26,6325747,21415
32-27,6329653,20288
32-28,6333559,20350
32-29,6337465,18255
32-30,6341371,19513
32-31,6345277,15203
32-32,6349183,11630
32-1,6353065,18477
32-2,6356971,19598
32-3,6360877,18661
32-4,6364783,19119
32-5,6368689,18867
32-6,6372595,18468
32-7,6376501,18344
32-8,6380407,18075
32-9,6384313,17890
32-10,6388219,17627
32-11,6392125,17457
32-12,6396031,17196
32-13,6399937,17004
32-14,6403843,16747
32-15,6407749,16567
32-16,6411655,16439
32-17,6415561,15929
32-18,6419467,16041
32-19,6423373,15666
32-20,6427279,13331
32-21,6431185,13567
32-22,6435091,13875
32-23,6438997,14272
32-24,6442903,14813
32-25,6446809,14141
32-26,6450715,14591
32-27,6454621,11390
32-28,6458527,5994
32-29,6462433,9767
32-30,6466339,6688
32-31,6470245,3377
32-32,6474151,4703
32-1,6478062,10108
32-2,6481968,13754
32-3,6485874,4685
32-4,6489780,4057
32-5,6493686,4873
32-6,6497592,-3715
32-7,6501498,4637
32-8,6505404,8168
32-9,6509310,6239
32-10,6513216,2650
32-11,6517122,-15529
32-12,6521028,-511
32-13,6524934,13382
32-14,6528840,-18667
32-15,6532746,-32768
32-16,6536652,-31472
32-17,6540558,-28594
32-18,6544464,-31609
32-19,6548370,-6968
32-20,6552276,30711
32-21,6556182,-535
32-22,6560088,-31505
32-23,6563994,-31111
32-24,6567900,-27082
32-25,6571806,-30385
32-26,6575712,-30005
32-27,6579618,2723
32-28,6583524,25573
32-29,6587430,-658
32-30,6591336,-18420
32-31,6595242,-18218
32-32,6599148,-20187
32-1,6603060,-21269
32-2,6606966,-13905
32-3,6610872,18591
32-4,6614778,32767
32-5,6618684,20698
32-6,6622590,-10299
32-7,6626496,-17600
32-8,6630402,-14397
32-9,6634308,-20004
32-10,6638214,-6681
32-11,6642120,30216
32-12,6646026,31091
32-13,6649932,-2978
32-14,6653838,-15957
32-15,6657744,-13047
32-16,6661650,-15104
32-17,6665556,-12939
32-18,6669462,-9205
32-19,6673368,-10662
32-20,6677274,-11621
32-21,6681180,-11242
32-22,6685086,-10944
32-23,6688992,-8811
32-24,6692898,-12595
32-25,6696804,-6456
32-26,6700710,22278
32-27,6704616,32767
32-28,6708522,32358
32-29,6712428,31544
32-30,6716334,9575
32-31,6720240,-8262
32-32,6724146,-12173
32-1,6728057,-4685
32-2,6731963,16594
32-3,6735869,8703
32-4,6739775,-10758
32-5,6743681,-7483
32-6,6747587,-6668
32-7,6751493,-8936
32-8,6755399,-13165
32-9,6759305,-1209
32-10,6763211,28054
32-11,6767117,19963
32-12,6771023,-7271
32-13,6774929,-7448
32-14,6778835,-3570
32-15,6782741,-13165
32-16,6786647,-3381
32-17,6790553,24306
32-18,6794459,17466
32-19,6798365,-6654
32-20,6802271,-8852
32-21,6806177,-7101
32-22,6810083,-9150
32-23,6813989,-12333
32-24,6817895,3834
32-25,6821801,31779
32-26,6825707,20570
32-27,6829613,-5005
32-28,6833519,-7088
32-29,6837425,-2723
32-30,6841331,-4999
32-31,6845237,-5973
32-32,6849143,16486
32-1,6853147,31305
32-2,6857053,12325
32-3,6860959,-7251
32-4,6864865,-3649
32-5,6868771,-3005
32-6,6872677,-11306
32-7,6876583,-4918
32-8,6880489,24985
32-9,6884395,30513
32-10,6888301,3870
32-11,6892207,-8166
32-12,6896113,-4087
32-13,6900019,-7147
32-14,6903925,-12834
32-15,6907831,6440
32-16,6911737,27380
32-17,6915643,10001
32-18,6919549,-7681
32-19,6923455,-5926
32-20,6927361,-6249
32-21,6931267,-10161
32-22,6935173,-9635
32-23,6939079,14846
32-24,6942985,30552
32-25,6946891,11489
32-26,6950797,-6403
32-27,6954703,-4079
32-28,6958609,-4603
32-29,6962515,-8077
32-30,6966421,1485
32-31,6970327,26734
32-32,6974233,29960
32-1,6978083,5281
32-2,6981989,-6721
32-3,6985895,-2505
32-4,6989801,-2730
32-5,6993707,-8657
32-6,6997613,3935
32-7,7001519,29725
32-8,7005425,24854
32-9,7009331,-1346
32-10,7013237,-7238
32-11,7017143,-3076
32-12,7021049,-8438
32-13,7024955,-9099
32-14,7028861,15833
32-15,7032767,28884
32-16,7036673,6227
32-17,7040579,-8509
32-18,7044485,-6706
32-19,7048391,-7588
32-20,7052297,-12478
32-21,7056203,-4421
32-22,7060109,23584
32-23,7064015,25940
32-24,7067921,317
32-25,7071827,-7597
32-26,7075733,-4364
32-27,7079639,-7489
32-28,7083545,-10464
32-29,7087451,5255
32-30,7091357,28943
32-31,7095263,23452
32-32,7099169,-1151
32-1,7103050,-7131
32-2,7106956,-5399
32-3,7110862,-7229
32-4,7114768,-4695
32-5,7118674,15486
32-6,7122580,28411
32-7,7126486,14769
32-8,7130392,-6038
32-9,7134298,-6760
32-10,7138204,-5092
32-11,7142110,-11809
32-12,7146016,-5368
32-13,7149922,22241
32-14,7153828,24291
32-15,7157734,-601
32-16,7161640,-8838
32-17,7165546,-6304
32-18,7169452,-9114
32-19,7173358,-13533
32-20,7177264,2281
32-21,7181170,27543
32-22,7185076,16618
32-23,7188982,-6188
32-24,7192888,-8088
32-25,7196794,-6988
32-26,7200700,-11183
32-27,7204606,-11532
32-28,7208512,10222
32-29,7212418,28041
32-30,7216324,15538
32-31,7220230,-6492
32-32,7224136,-7458
32-1,7228048,-8136
32-2,7231954,-13533
32-3,7235860,-3953
32-4,7239766,21083
32-5,7243672,27724
32-6,7247578,17755
32-7,7251484,-3891
32-8,7255390,-7896
32-9,7259296,-6422
32-10,7263202,-13756
32-11,7267108,770
32-12,7271014,27323
32-13,7274920,16185
32-14,7278826,-7184
32-15,7282732,-9240
32-16,7286638,-6815
32-17,7290544,-10691
32-18,7294450,-12258
32-19,7298356,9716
32-20,7302262,27451
32-21,7306168,9210
32-22,7310074,-9204
32-23,7313980,-7932
32-24,7317886,-7731
32-25,7321792,-13479
32-26,7325698,-8733
32-27,7329604,19167
32-28,7333510,25766
32-29,7337416,-291
32-30,7341322,-9494
32-31,7345228,-5359
32-32,7349134,-9269
32-1,7353107,-13651
32-2,7357013,-2470
32-3,7360919,24732
32-4,7364825,27210
32-5,7368731,4184
32-6,7372637,-10830
32-7,7376543,-8785
32-8,7380449,-10824
32-9,7384355,-13939
32-10,7388261,11094
32-11,7392167,27231
32-12,7396073,7681
32-13,7399979,-462
32-14,7403885,24285
32-15,7407791,26495
32-16,7411697,23518
32-17,7415603,25869
32-18,7419509,25546
32-19,7423415,20172
32-20,7427321,16196
32-21,7431227,23289
32-22,7435133,24479
32-23,7439039,23135
32-24,7442945,23855
32-25,7446851,23465
32-26,7450757,23005
32-27,7454663,22918
32-28,7458569,22643
32-29,7462475,22353
32-30,7466381,22028
32-31,7470287,21606
32-32,7474193,20901
32-1,7478043,21345
32-2,7481949,19132
32-3,7485855,20838
32-4,7489761,20577
32-5,7493667,-6626
32-6,7497573,-32768
32-7,7501479,-32407
32-8,7505385,-27015
32-9,7509291,-31665
32-10,7513197,-31270
32-11,7517103,3834
32-12,7521009,32767
32-13,7524915,32358
32-14,7528821,29728
32-15,7532727,31581
32-16,7536633,30578
32-17,7540539,30437
32-18,7544445,30389
32-19,7548351,29932
32-20,7552257,29647
32-21,7556163,29174
32-22,7560069,28867
32-23,7563975,28367
32-24,7567881,28074
32-25,7571787,27698
32-26,7575693,27354
32-27,7579599,27021
32-28,7583505,26720
32-29,7587411,26447
32-30,7591317,26098
32-31,7595223,25772
32-32,7599129,25454
32-1,7603163,25132
32-2,7607069,24819
32-3,7610975,24508
32-4,7614881,24202
32-5,7618787,23899
32-6,7622693,23600
32-7,7626599,23304
32-8,7630505,23013
32-9,7634411,22725
32-10,7638317,22440
32-11,7642223,22159
32-12,7646129,21882
32-13,7650035,21608
32-14,7653941,21337
32-15,7657847,21070
32-16,7661753,20806
32-17,7665659,20546
32-18,7669565,20289
32-19,7673471,20035
32-20,7677377,19784
32-21,7681283,19536
32-22,7685189,19292
32-23,7689095,19050
32-24,7693001,18812
32-25,7696907,18576
32-26,7700813,18343
32-27,7704719,18114
32-28,7708625,17887
32-29,7712531,17663
32-30,7716437,17442
32-31,7720343,17223
32-32,7724249,17007
32-1,7728100,16794
32-2,7732006,16584
32-3,7735912,16376
32-4,7739818,16171
32-5,7743724,15968
32-6,7747630,15768
32-7,7751536,15571
32-8,7755442,15376
32-9,7759348,15183
32-10,7763254,14993
32-11,7767160,14805
32-12,7771066,14619
32-13,7774972,14436
32-14,7778878,14255
32-15,7782784,14076
32-16,7786690,13900
32-17,7790596,13726
32-18,7794502,13554
32-19,7798408,13384
32-20,7802314,13216
32-21,7806220,13050
32-22,7810126,12887
32-23,7814032,12725
32-24,7817938,12566
32-25,7821844,12408
32-26,7825750,12253
32-27,7829656,12099
32-28,7833562,11947
32-29,7837468,11797
32-30,7841374,11649
32-31,7845280,11503
32-32,7849186,11359
32-1,7853036,11217
32-2,7856942,11076
32-3,7860848,10937
32-4,7864754,10800
32-5,7868660,10664
32-6,7872566,10530
32-7,7876472,10398
32-8,7880378,10268
32-9,7884284,10139
32-10,7888190,10012
32-11,7892096,9886
32-12,7896002,9762
32-13,7899908,9639
32-14,7903814,9518
32-15,7907720,9399
32-16,7911626,9281
32-17,7915532,9164
32-18,7919438,9049
32-19,7923344,8936
32-20,7927250,8823
32-21,7931156,8713
32-22,7935062,8603
32-23,7938968,8495
32-24,7942874,8388
32-25,7946780,8283
32-26,7950686,8179
32-27,7954592,8076
32-28,7958498,7975
32-29,7962404,7874
32-30,7966310,7775
32-31,7970216,7678
32-32,7974122,7581
32-1,7978156,7486
32-2,7982062,7392
32-3,7985968,7299
32-4,7989874,7207
32-5,7993780,7116
32-6,7997686,7027
32-7,8001592,6938
32-8,8005498,6851
32-9,8009404,6765
32-10,8013310,6680
32-11,8017216,6596
32-12,8021122,6513
32-13,8025028,6431
32-14,8028934,6350
32-15,8032840,6270
32-16,8036746,6191
32-17,8040652,6113
32-18,8044558,6036
32-19,8048464,5960
32-20,8052370,5885
32-21,8056276,5811
32-22,8060182,5737
32-23,8064088,5665
32-24,8067994,5594
32-25,8071900,5523
32-26,8075806,5454
32-27,8079712,5385
32-28,8083618,5317
32-29,8087524,5250
32-30,8091430,5184
32-31,8095336,5118
32-32,8099242,5054
32-1,8103031,4990
32-2,8106937,4927
32-3,8110843,4865
32-4,8114749,4803
32-5,8118655,4743
32-6,8122561,4683
32-7,8126467,4624
32-8,8130373,4566
32-9,8134279,4508
32-10,8138185,4451
32-11,8142091,4395
32-12,8145997,4339
32-13,8149903,4284
32-14,8153809,4230
32-15,8157715,4177
32-16,8161621,4124
32-17,8165527,4072
32-18,8169433,4020
32-19,8173339,3969
32-20,8177245,3919
32-21,8181151,3870
32-22,8185057,3821
32-23,8188963,3772
32-24,8192869,3725
32-25,8196775,3677
32-26,8200681,3631
32-27,8204587,3585
32-28,8208493,3539
32-29,8212399,3495
32-30,8216305,3450
32-31,8220211,3407
32-32,8224117,3363
32-1,8228029,3321
32-2,8231935,3279
32-3,8235841,3237
32-4,8239747,3196
32-5,8243653,3156
32-6,8247559,3116
32-7,8251465,3076
32-8,8255371,3037
32-9,8259277,2999
32-10,8263183,2961
32-11,8267089,2923
32-12,8270995,2886
32-13,8274901,2849
32-14,8278807,2813
32-15,8282713,2777
32-16,8286619,2742
32-17,8290525,2707
32-18,8294431,2673
32-19,8298337,2639
32-20,8302243,2605
32-21,8306149,2572
32-22,8310055,2539
32-23,8313961,2507
32-24,8317867,2475
32-25,8321773,2443
32-26,8325679,2412
32-27,8329585,2381
32-28,8333491,2351
32-29,8337397,2321
32-30,8341303,2292
32-31,8345209,2262
32-32,8349115,2233
32-1,8353179,2205
32-2,8357085,2177
32-3,8360991,2149
32-4,8364897,2121
32-5,8368803,2094
32-6,8372709,2068
32-7,8376615,2041
32-8,8380521,2015
32-9,8384427,1989
32-10,8388333,1964
32-11,8392239,1939
32-12,8396145,1914
32-13,8400051,1889
32-14,8403957,1865
32-15,8407863,1841
32-16,8411769,1818
32-17,8415675,1794
32-18,8419581,1771
32-19,8423487,1749
32-20,8427393,1726
32-21,8431299,1704
32-22,8435205,1682
32-23,8439111,1660
32-24,8443017,1639
32-25,8446923,1618
32-26,8450829,1597
32-27,8454735,1577
32-28,8458641,1556
32-29,8462547,1536
32-30,8466453,1517
32-31,8470359,1497
32-32,8474265,1478
32-1,8478024,1459
32-2,8481930,1440
32-3,8485836,1422
32-4,8489742,1403
32-5,8493648,1385
32-6,8497554,1367
32-7,8501460,1349
32-8,8505366,1332
32-9,8509272,1314
32-10,8513178,1297
32-11,8517084,1281
32-12,8520990,1264
32-13,8524896,1248
32-14,8528802,1231
32-15,8532708,1215
32-16,8536614,1200
32-17,8540520,1184
32-18,8544426,1169
32-19,8548332,1153
32-20,8552238,1138
32-21,8556144,1124
32-22,8560050,1109
32-23,8563956,1094
32-24,8567862,1080
32-25,8571768,1066
32-26,8575674,1052
32-27,8579580,1038
32-28,8583486,1025
32-29,8587392,1011
32-30,8591298,998
32-31,8595204,985
32-32,8599110,972
32-1,8603113,959
32-2,8607019,947
32-3,8610925,934
32-4,8614831,922
32-5,8618737,910
32-6,8622643,898
32-7,8626549,886
32-8,8630455,874
32-9,8634361,863
32-10,8638267,851
32-11,8642173,840
32-12,8646079,829
32-13,8649985,818
32-14,8653891,807
32-15,8657797,797
32-16,8661703,786
32-17,8665609,776
32-18,8669515,765
32-19,8673421,755
32-20,8677327,745
32-21,8681233,735
32-22,8685139,725
32-23,8689045,716
32-24,8692951,706
32-25,8696857,697
32-26,8700763,687
32-27,8704669,678
32-28,8708575,669
32-29,8712481,660
32-30,8716387,651
32-31,8720293,643
32-32,8724199,634
32-1,8728020,625
32-2,8731926,617
32-3,8735832,609
32-4,8739738,600
32-5,8743644,592
32-6,8747550,584
32-7,8751456,576
32-8,8755362,568
32-9,8759268,561
32-10,8763174,553
32-11,8767080,545
32-12,8770986,538
32-13,8774892,531
32-14,8778798,523
32-15,8782704,516
32-16,8786610,509
32-17,8790516,502
32-18,8794422,495
32-19,8798328,488
32-20,8802234,482
32-21,8806140,475
32-22,8810046,468
32-23,8813952,462
32-24,8817858,455
32-25,8821764,449
32-26,8825670,443
32-27,8829576,437
32-28,8833482,431
32-29,8837388,425
32-30,8841294,419
32-31,8845200,413
32-32,8849106,407
32-1,8853017,401
32-2,8856923,396
32-3,8860829,390
32-4,8864735,385
32-5,8868641,379
32-6,8872547,374
32-7,8876453,369
32-8,8880359,363
32-9,8884265,358
32-10,8888171,353
32-11,8892077,348
32-12,8895983,343
32-13,8899889,338
32-14,8903795,333
32-15,8907701,329
32-16,8911607,324
32-17,8915513,319
32-18,8919419,315
32-19,8923325,310
32-20,8927231,306
32-21,8931137,301
32-22,8935043,297
32-23,8938949,292
32-24,8942855,288
32-25,8946761,284
32-26,8950667,280
32-27,8954573,276
32-28,8958479,272
32-29,8962385,268
32-30,8966291,264
32-31,8970197,260
32-32,8974103,256
32-1,8978015,252
32-2,8981921,248
32-3,8985827,245
32-4,8989733,241
32-5,8993639,237
32-6,8997545,234
32-7,9001451,230
32-8,9005357,227
32-9,9009263,223
32-10,9013169,220
32-11,9017075,216
32-12,9020981,213
32-13,9024887,210
32-14,9028793,207
32-15,9032699,203
32-16,9036605,200
32-17,9040511,197
32-18,9044417,194
32-19,9048323,191
32-20,9052229,188
32-21,9056135,185
32-22,9060041,182
32-23,9063947,179
32-24,9067853,176
32-25,9071759,173
32-26,9075665,171
32-27,9079571,168
32-28,9083477,165
32-29,9087383,162
32-30,9091289,160
32-31,9095195,157
32-32,9099101,155
32-1,9103196,152
32-2,9107102,150
32-3,9111008,147
32-4,9114914,145
32-5,9118820,142
32-6,9122726,140
32-7,9126632,137
32-8,9130538,135
32-9,9134444,133
32-10,9138350,131
32-11,9142256,128
32-12,9146162,126
32-13,9150068,124
32-14,9153974,122
32-15,9157880,119
32-16,9161786,117
32-17,9165692,115
32-18,9169598,113
32-19,9173504,111
32-20,9177410,109
32-21,9181316,107
32-22,9185222,105
32-23,9189128,103
32-24,9193034,101
32-25,9196940,99
32-26,9200846,98
32-27,9204752,96
32-28,9208658,94
32-29,9212564,92
32-30,9216470,91
32-31,9220376,88
32-32,9224282,86
32-1,9228254,83
32-2,9232160,82
32-3,9236066,79
32-4,9239972,77
32-5,9243878,76
32-6,9247784,74
32-7,9251690,72
32-8,9255596,69
32-9,9259502,67
32-10,9263408,57
32-11,9267314,68
32-12,9271220,54
32-13,9275126,42
32-14,9279032,101
32-15,9282938,-97
32-16,9286844,-615
32-17,9290750,-1013
32-18,9294656,-1279
32-19,9298562,-1581
32-20,9302468,-1861
32-21,9306374,-2064
32-22,9310280,-2239
32-23,9314186,-2545
32-24,9318092,-2901
32-25,9321998,-3155
32-26,9325904,-3375
32-27,9329810,-3621
32-28,9333716,-3841
32-29,9337622,-3918
32-30,9341528,-4043
32-31,9345434,-4410
32-32,9349340,-4731
32-1,9353008,-4921
32-2,9356914,-5099
32-3,9360820,-5241
32-4,9364726,-5396
32-5,9368632,-5515
32-6,9372538,-5642
32-7,9376444,-5894
32-8,9380350,-6123
32-9,9384256,-6259
32-10,9388162,-6384
32-11,9392068,-6527
32-12,9395974,-6599
32-13,9399880,-6610
32-14,9403786,-6741
32-15,9407692,-6948
32-16,9411598,-7121
32-17,9415504,-7281
32-18,9419410,-7433
32-19,9423316,-7559
32-20,9427222,-7597
32-21,9431128,-7664
32-22,9435034,-7858
32-23,9438940,-8039
32-24,9442846,-8216
32-25,9446752,-8355
32-26,9450658,-8397
32-27,9454564,-8466
32-28,9458470,-8453
32-29,9462376,-8347
32-30,9466282,-8432
32-31,9470188,-8564
32-32,9474094,-8519
32-1,9478005,-8501
32-2,9481911,-8549
32-3,9485817,-8462
32-4,9489723,-8367
32-5,9493629,-8496
32-6,9497535,-8813
32-7,9501441,-9195
32-8,9505347,-9515
32-9,9509253,-9743
32-10,9513159,-9911
32-11,9517065,-9932
32-12,9520971,-9895
32-13,9524877,-9948
32-14,9528783,-10067
32-15,9532689,-10212
32-16,9536595,-10255
32-17,9540501,-10230
32-18,9544407,-10221
32-19,9548313,-10126
32-20,9552219,-10092
32-21,9556125,-10158
32-22,9560031,-10152
32-23,9563937,-10105
32-24,9567843,-10055
32-25,9571749,-10011
32-26,9575655,-9928
32-27,9579561,-9847
32-28,9583467,-9872
32-29,9587373,-9876
32-30,9591279,-9907
32-31,9595185,-10020
32-32,9599091,-10045
32-1,9603003,-10015
32-2,9606909,-9956
32-3,9610815,-9852
32-4,9614721,-9873
32-5,9618627,-9996
32-6,9622533,-10056
32-7,9626439,-10055
32-8,9630345,-10071
32-9,9634251,-10052
32-10,9638157,-9907
32-11,9642063,-9811
32-12,9645969,-9876
32-13,9649875,-9909
32-14,9653781,-9870
32-15,9657687,-9864
32-16,9661593,-9870
32-17,9665499,-9808
32-18,9669405,-9701
32-19,9673311,-9726
32-20,9677217,-9822
32-21,9681123,-9841
32-22,9685029,-9845
32-23,9688935,-9861
32-24,9692841,-9900
32-25,9696747,-9857
32-26,9700653,-9705
32-27,9704559,-9717
32-28,9708465,-9777
32-29,9712371,-9683
32-30,9716277,-9699
32-31,9720183,-9800
32-32,9724089,-9713
32-1,9728001,-9565
32-2,9731907,-9515
32-3,9735813,-9537
32-4,9739719,-9633
32-5,9743625,-9689
32-6,9747531,-9656
32-7,9751437,-9640
32-8,9755343,-9575
32-9,9759249,-9403
32-10,9763155,-9284
32-11,9767061,-9259
32-12,9770967,-9210
32-13,9774873,-9053
32-14,9778779,-8875
32-15,9782685,-8756
32-16,9786591,-8565
32-17,9790497,-8395
32-18,9794403,-8435
32-19,9798309,-8433
32-20,9802215,-8283
32-21,9806121,-8178
32-22,9810027,-8135
32-23,9813933,-8060
32-24,9817839,-7901
32-25,9821745,-7812
32-26,9825651,-7895
32-27,9829557,-7992
32-28,9833463,-8001
32-29,9837369,-7989
32-30,9841275,-8131
32-31,9845181,-8310
32-32,9849087,-8257
33-1,9849458,-8211
33-2,9853364,-8298
33-3,9857270,-8323
33-4,9861176,-8324
33-5,9865082,-8339
33-6,9868988,-8317
33-7,9872894,-8229
33-8,9876800,-8110
33-9,9880706,-8118
33-10,9884612,-8226
33-11,9888518,-8278
33-12,9892424,-8256
33-13,9896330,-8233
33-14,9900236,-8243
33-15,9904142,-8187
33-16,9908048,-8136
33-17,9911954,-8240
33-18,9915860,-8349
33-19,9919766,-8350
33-20,9923672,-8330
33-21,9927578,-8343
33-22,9931484,-8299
33-23,9935390,-8127
33-24,9939296,-8027
33-25,9943202,-8016
33-26,9947108,-7875
33-27,9951014,-7682
33-28,9954920,-7502
33-29,9958826,-7268
33-30,9962732,-7020
33-31,9966638,-6799
33-32,9970544,-6703
33-33,9974450,-6769
32-1,9981902,-6855
32-2,9985808,-6958
32-3,9989714,-7152
32-4,9993620,-7203
32-5,9997526,-6859
32-6,10001432,-6457
32-7,10005338,-6394
32-8,10009244,-6520
32-9,10013150,-6666
32-10,10017056,-6839
32-11,10020962,-6974
32-12,10024868,-6954
32-13,10028774,-6785
32-14,10032680,-6703
32-15,10036586,-6768
32-16,10040492,-6756
32-17,10044398,-6630
32-18,10048304,-6544
32-19,10052210,-6553
32-20,10056116,-6480
32-21,10060022,-6288
32-22,10063928,-6253
32-23,10067834,-6332
32-24,10071740,-6279
32-25,10075646,-6174
32-26,10079552,-6209
32-27,10083458,-6235
32-28,10087364,-6004
32-29,10091270,-5855
32-30,10095176,-6010
32-31,10099082,-6052
32-32,10102988,-5985
32-1,10106900,-5983
32-2,10110806,-5876
32-3,10114712,-5768
32-4,10118618,-5777
32-5,10122524,-5763
32-6,10126430,-5701
32-7,10130336,-5656
32-8,10134242,-5603
32-9,10138148,-5537
32-10,10142054,-5540
32-11,10145960,-5530
32-12,10149866,-5454
32-13,10153772,-5457
32-14,10157678,-5485
32-15,10161584,-5429
32-16,10165490,-5369
32-17,10169396,-5392
32-18,10173302,-5395
32-19,10177208,-5253
32-20,10181114,-5180
32-21,10185020,-5242
32-22,10188926,-5212
32-23,10192832,-5123
32-24,10196738,-5069
32-25,10200644,-5063
32-26,10204550,-5025
32-27,10208456,-4897
32-28,10212362,-4815
32-29,10216268,-4812
32-30,10220174,-4871
32-31,10224080,-4908
32-32,10227986,-4877
32-1,10231897,-4897
32-2,10235803,-4878
32-3,10239709,-4788
32-4,10243615,-4757
32-5,10247521,-4789
32-6,10251427,-4865
32-7,10255333,-4880
32-8,10259239,-4827
32-9,10263145,-4773
32-10,10267051,-4589
32-11,10270957,-4377
32-12,10274863,-4322
32-13,10278769,-4291
32-14,10282675,-4210
32-15,10286581,-4141
32-16,10290487,-4150
32-17,10294393,-4169
32-18,10298299,-4000
32-19,10302205,-3845
32-20,10306111,-3905
32-21,10310017,-3942
32-22,10313923,-3904
32-23,10317829,-3921
32-24,10321735,-3996
32-25,10325641,-3977
32-26,10329547,-3810
32-27,10333453,-3814
32-28,10337359,-3885
32-29,10341265,-3761
32-30,10345171,-3741
32-31,10349077,-3842
32-32,10352983,-3839
32-1,10356895,-3789
32-2,10360801,-3714
32-3,10364707,-3667
32-4,10368613,-3742
32-5,10372519,-3830
32-6,10376425,-3801
32-7,10380331,-3733
32-8,10384237,-3692
32-9,10388143,-3551
32-10,10392049,-3401
32-11,10395955,-3445
32-12,10399861,-3559
32-13,10403767,-3574
32-14,10407673,-3547
32-15,10411579,-3573
32-16,10415485,-3564
32-17,10419391,-3442
32-18,10423297,-3356
32-19,10427203,-3399
32-20,10431109,-3459
32-21,10435015,-3446
32-22,10438921,-3454
32-23,10442827,-3491
32-24,10446733,-3404
32-25,10450639,-3268
32-26,10454545,-3279
32-27,10458451,-3396
32-28,10462357,-3392
32-29,10466263,-3254
32-30,10470169,-3252
32-31,10474075,-3276
32-32,10477981,-3124
32-1,10481893,-3021
32-2,10485799,-3028
32-3,10489705,-3038
32-4,10493611,-3061
32-5,10497517,-3083
32-6,10501423,-3105
32-7,10505329,-3049
32-8,10509235,-2905
32-9,10513141,-2816
32-10,10517047,-2782
32-11,10520953,-2767
32-12,10524859,-2789
32-13,10528765,-2812
32-14,10532671,-2783
32-15,10536577,-2665
32-16,10540483,-2555
32-17,10544389,-2551
32-18,10548295,-2549
32-19,10552201,-2533
32-20,10556107,-2581
32-21,10560013,-2630
32-22,10563919,-2607
32-23,10567825,-2524
32-24,10571731,-2474
32-25,10575637,-2496
32-26,10579543,-2535
32-27,10583449,-2616
32-28,10587355,-2637
32-29,10591261,-2536
32-30,10595167,-2491
32-31,10599073,-2469
32-32,10602979,-2436
32-1,10607043,-2463
32-2,10610949,-2430
32-3,10614855,-2344
32-4,10618761,-2336
32-5,10622667,-2337
32-6,10626573,-2256
32-7,10630479,-2192
32-8,10634385,-2215
32-9,10638291,-2249
32-10,10642197,-2260
32-11,10646103,-2260
32-12,10650009,-2281
32-13,10653915,-2292
32-14,10657821,-2214
32-15,10661727,-2155
32-16,10665633,-2162
32-17,10669539,-2156
32-18,10673445,-2144
32-19,10677351,-2157
32-20,10681257,-2197
32-21,10685163,-2162
32-22,10689069,-2043
32-23,10692975,-1996
32-24,10696881,-1998
32-25,10700787,-1972
32-26,10704693,-1948
32-27,10708599,-1983
32-28,10712505,-1990
32-29,10716411,-1855
32-30,10720317,-1762
32-31,10724223,-1807
32-32,10728129,-1846
32-1,10731888,-1866
32-2,10735794,-1879
32-3,10739700,-1881
32-4,10743606,-1878
32-5,10747512,-1829
32-6,10751418,-1782
32-7,10755324,-1777
32-8,10759230,-1794
32-9,10763136,-1810
32-10,10767042,-1798
32-11,10770948,-1787
32-12,10774854,-1775
32-13,10778760,-1714
32-14,10782666,-1667
32-15,10786572,-1682
32-16,10790478,-1692
32-17,10794384,-1680
32-18,10798290,-1662
32-19,10802196,-1641
32-20,10806102,-1615
32-21,10810008,-1580
32-22,10813914,-1583
32-23,10817820,-1612
32-24,10821726,-1618
32-25,10825632,-1612
32-26,10829538,-1608
32-27,10833444,-1608
32-28,10837350,-1553
32-29,10841256,-1491
32-30,10845162,-1554
32-31,10849068,-1619
32-32,10852974,-1600
32-1,10856885,-1593
32-2,10860791,-1600
32-3,10864697,-1592
32-4,10868603,-1523
32-5,10872509,-1447
32-6,10876415,-1457
32-7,10880321,-1481
32-8,10884227,-1482
32-9,10888133,-1473
32-10,10892039,-1456
32-11,10895945,-1458
32-12,10899851,-1452
32-13,10903757,-1444
32-14,10907663,-1474
32-15,10911569,-1499
32-16,10915475,-1480
32-17,10919381,-1496
32-18,10923287,-1525
32-19,10927193,-1453
32-20,10931099,-1380
32-21,10935005,-1399
32-22,10938911,-1423
32-23,10942817,-1415
32-24,10946723,-1408
32-25,10950629,-1430
32-26,10954535,-1422
32-27,10958441,-1371
32-28,10962347,-1355
32-29,10966253,-1324
32-30,10970159,-1294
32-31,10974065,-1332
32-32,10977971,-1360
32-1,10981883,-1339
32-2,10985789,-1291
32-3,10989695,-1236
32-4,10993601,-1243
32-5,10997507,-1301
32-6,11001413,-1313
32-7,11005319,-1274
32-8,11009225,-1256
32-9,11013131,-1256
32-10,11017037,-1218
32-11,11020943,-1186
32-12,11024849,-1187
32-13,11028755,-1179
32-14,11032661,-1168
32-15,11036567,-1159
32-16,11040473,-1141
32-17,11044379,-1128
32-18,11048285,-1097
32-19,11052191,-1077
32-20,11056097,-1095
32-21,11060003,-1098
32-22,11063909,-1066
32-23,11067815,-1025
32-24,11071721,-1014
32-25,11075627,-1000
32-26,11079533,-969
32-27,11083439,-1001
32-28,11087345,-1031
32-29,11091251,-1013
32-30,11095157,-1058
32-31,11099063,-1101
32-32,11102969,-1048
32-1,11106881,-976
32-2,11110787,-955
32-3,11114693,-994
32-4,11118599,-1020
32-5,11122505,-989
32-6,11126411,-965
32-7,11130317,-968
32-8,11134223,-945
32-9,11138129,-900
32-10,11142035,-913
32-11,11145941,-954
32-12,11149847,-969
32-13,11153753,-986
32-14,11157659,-1014
32-15,11161565,-1049
32-16,11165471,-1028
32-17,11169377,-950
32-18,11173283,-957
32-19,11177189,-992
32-20,11181095,-986
32-21,11185001,-961
32-22,11188907,-925
32-23,11192813,-934
32-24,11196719,-919
32-25,11200625,-855
32-26,11204531,-846
32-27,11208437,-872
32-28,11212343,-870
32-29,11216249,-820
32-30,11220155,-793
32-31,11224061,-808
32-32,11227967,-779
32-1,11231873,-8215
32-2,11235779,3795
32-3,11239685,4102
32-4,11243591,2098
32-5,11247497,3202
32-6,11251403,2468
32-7,11255309,-2757
32-8,11259215,-2223
32-9,11263121,3302
32-10,11267027,3512
32-11,11270933,2096
32-12,11274839,1891
32-13,11278745,3531
32-14,11282651,839
32-15,11286557,-6166
32-16,11290463,-2700
32-17,11294369,3881
32-18,11298275,3124
32-19,11302181,1693
32-20,11306087,2358
32-21,11309993,3233
32-22,11313899,-1071
32-23,11317805,-4695
32-24,11321711,783
32-25,11325617,4432
32-26,11329523,1395
32-27,11333429,2098
32-28,11337335,3374
32-29,11341241,-11711
32-30,11345147,-31742
32-31,11349053,-28756
32-32,11352959,-11668
32-1,11356865,-225
32-2,11360771,3647
32-3,11364677,2726
32-4,11368583,3362
32-5,11372489,1602
32-6,11376395,-3400
32-7,11380301,-442
32-8,11384207,4221
32-9,11388113,3403
32-10,11392019,2156
32-11,11395925,2503
32-12,11399831,3708
32-13,11403737,-1032
32-14,11407643,-5705
32-15,11411549,203
32-16,11415455,4228
32-17,11419361,2116
32-18,11423267,1311
32-19,11427173,2177
32-20,11431079,1866
32-21,11434985,-2838
32-22,11438891,-3082
32-23,11442797,2075
32-24,11446703,2515
32-25,11450609,1272
32-26,11454515,61
32-27,11458421,2780
32-28,11462327,1006
32-29,11466233,-21140
32-30,11470139,-32768
32-31,11474045,-23233
32-32,11477951,-6518
32-1,11481857,2133
32-2,11485763,4422
32-3,11489669,6251
32-4,11493575,-120
32-5,11497481,-11802
32-6,11501387,-5935
32-7,11505293,5652
32-8,11509199,5606
32-9,11513105,3365
32-10,11517011,4673
32-11,11520917,4863
32-12,11524823,-1245
32-13,11528729,-2778
32-14,11532635,4194
32-15,11536541,5889
32-16,11540447,3859
32-17,11544353,3933
32-18,11548259,4740
32-19,11552165,3439
32-20,11556071,687
32-21,11559977,2814
32-22,11563883,5675
32-23,11567789,4280
32-24,11571695,3607
32-25,11575601,4428
32-26,11579507,3298
32-27,11583413,2905
32-28,11587319,-142
32-29,11591225,-15645
32-30,11595131,-25427
32-31,11599037,-12303
32-32,11602943,1766
32-1,11606849,4733
32-2,11610755,4200
32-3,11614661,1455
32-4,11618567,2022
32-5,11622473,4599
32-6,11626379,3934
32-7,11630285,3939
32-8,11634191,2557
32-9,11638097,4345
32-10,11642003,5201
32-11,11645909,-14394
32-12,11649815,-32499
32-13,11653721,-32093
32-14,11657627,-30507
32-15,11661533,-30338
32-16,11665439,-20486
32-17,11669345,-5645
32-18,11673251,-2721
32-19,11677157,-10015
32-20,11681063,-5299
32-21,11684969,5291
32-22,11688875,8495
32-23,11692781,7216
32-24,11696687,6748
32-25,11700593,10554
32-26,11704499,-1412
32-27,11708405,-26622
32-28,11712311,-30514
32-29,11716217,-28777
32-30,11720123,-29477
32-31,11724029,-29405
32-32,11727935,-28448
32-1,11731841,-24670
32-2,11735747,-24818
32-3,11739653,-28065
32-4,11743559,-27714
32-5,11747465,-26952
32-6,11751371,-26882
32-7,11755277,-26696
32-8,11759183,-25125
32-9,11763089,-22273
32-10,11766995,-24031
32-11,11770901,-25471
32-12,11774807,-25067
32-13,11778713,-24555
32-14,11782619,-24458
32-15,11786525,-20809
32-16,11790431,-12831
32-17,11794337,-13227
32-18,11798243,-22093
32-19,11802149,-23368
32-20,11806055,-22466
32-21,11809961,-21265
32-22,11813867,-19308
32-23,11817773,-13656
32-24,11821679,-7215
32-25,11825585,-11892
32-26,11829491,-20305
32-27,11833397,-19815
32-28,11837303,-17954
32-29,11841209,-18362
32-30,11845115,-17837
32-31,11849021,-15805
32-32,11852927,-13984
32-1,11856833,-14993
32-2,11860739,-15893
32-3,11864645,-15145
32-4,11868551,-14722
32-5,11872457,-14391
32-6,11876363,-13576
32-7,11880269,-12042
32-8,11884175,-11388
32-9,11888081,-12072
32-10,11891987,-12136
32-11,11895893,-11609
32-12,11899799,-10854
32-13,11903705,-10062
32-14,11907611,-7782
32-15,11911517,-4657
32-16,11915423,-6082
32-17,11919329,-9289
32-18,11923235,-9203
32-19,11927141,-8255
32-20,11931047,-7664
32-21,11934953,-6519
32-22,11938859,-2964
32-23,11942765,-550
32-24,11946671,-4186
32-25,11950577,-7194
32-26,11954483,-6331
32-27,11958389,-5605
32-28,11962295,-5087
32-29,11966201,-5051
32-30,11970107,-5039
32-31,11974013,-4404
32-32,11977919,-4330
33-1,11981825,-4280
33-2,11985731,-4022
33-3,11989637,-3876
33-4,11993543,-3676
33-5,11997449,-3246
33-6,12001355,-2525
33-7,12005261,-2272
33-8,12009167,-2431
33-9,12013073,-2408
33-10,12016979,-2159
33-11,12020885,-1773
33-12,12024791,-1275
33-13,12028697,396
33-14,12032603,1744
33-15,12036509,334
33-16,12040415,-1032
33-17,12044321,-735
33-18,12048227,-350
33-19,12052133,-70
33-20,12056039,909
33-21,12059945,3218
33-22,12063851,3721
33-23,12067757,1192
33-24,12071663,225
33-25,12075569,837
33-26,12079475,804
33-27,12083381,1773
33-28,12087287,2821
33-29,12091193,2026
33-30,12095099,1328
33-31,12099005,1706
33-32,12102911,1813
33-33,12106817,1690
32-1,12110723,1812
32-2,12114629,1981
32-3,12118535,2232
32-4,12122441,2487
32-5,12126347,2645
32-6,12130253,2672
32-7,12134159,2639
32-8,12138065,2793
32-9,12141971,2952
32-10,12145877,3278
32-11,12149783,4290
32-12,12153689,4636
32-13,12157595,3729
32-14,12161501,3295
32-15,12165407,3496
32-16,12169313,3645
32-17,12173219,3754
32-18,12177125,4445
32-19,12181031,5641
32-20,12184937,5314
32-21,12188843,4046
32-22,12192749,3856
32-23,12196655,4067
32-24,12200561,4094
32-25,12204467,4393
32-26,12208373,5563
32-27,12212279,6335
32-28,12216185,5221
32-29,12220091,4318
32-30,12223997,4518
32-31,12227903,4441
32-32,12231809,4424
32-1,12235715,4597
32-2,12239621,4665
32-3,12243527,4782
32-4,12247433,4859
32-5,12251339,4782
32-6,12255245,4645
32-7,12259151,5106
32-8,12263057,5372
32-9,12266963,7231
32-10,12270869,11694
32-11,12274775,10834
32-12,12278681,5557
32-13,12282587,4338
32-14,12286493,5599
32-15,12290399,6924
32-16,12294305,8721
32-17,12298211,15631
32-18,12302117,22216
32-19,12306023,13791
32-20,12309929,3394
32-21,12313835,3977
32-22,12317741,6131
32-23,12321647,7232
32-24,12325553,10879
32-25,12329459,20231
32-26,12333365,22588
32-27,12337271,9528
32-28,12341177,2119
32-29,12345083,4304
32-30,12348989,4674
32-31,12352895,4700
32-32,12356801,8342
32-1,12360707,15603
32-2,12364613,14250
32-3,12368519,4618
32-4,12372425,2456
32-5,12376331,3993
32-6,12380237,3122
32-7,12384143,3245
32-8,12388049,4327
32-9,12391955,5310
32-10,12395861,4565
32-11,12399767,3288
32-12,12403673,3183
32-13,12407579,3459
32-14,12411485,3833
32-15,12415391,4649
32-16,12419297,7569
32-17,12423203,8691
32-18,12427109,4957
32-19,12431015,2745
32-20,12434921,3385
32-21,12438827,3572
32-22,12442733,3700
32-23,12446639,4966
32-24,12450545,7380
32-25,12454451,6896
32-26,12458357,3659
32-27,12462263,2895
32-28,12466169,3415
32-29,12470075,3165
32-30,12473981,3116
32-31,12477887,3334
32-32,12481793,3668
32-1,12485699,3602
32-2,12489605,3344
32-3,12493511,3377
32-4,12497417,3328
32-5,12501323,3253
32-6,12505229,3295
32-7,12509135,3343
32-8,12513041,3405
32-9,12516947,3477
32-10,12520853,3434
32-11,12524759,3316
32-12,12528665,3319
32-13,12532571,3369
32-14,12536477,3409
32-15,12540383,3511
32-16,12544289,3596
32-17,12548195,3579
32-18,12552101,3514
32-19,12556007,3435
32-20,12559913,3383
32-21,12563819,3434
32-22,12567725,3498
32-23,12571631,3579
32-24,12575537,3710
32-25,12579443,3783
32-26,12583349,3614
32-27,12587255,3657
32-28,12591161,3977
32-29,12595067,3851
32-30,12598973,4652
32-31,12602879,5885
32-32,12606785,4836
32-1,12610691,3568
32-2,12614597,3779
32-3,12618503,3783
32-4,12622409,3549
32-5,12626315,3865
32-6,12630221,5054
32-7,12634127,5297
32-8,12638033,3993
32-9,12641939,3345
32-10,12645845,3636
32-11,12649751,4536
32-12,12653657,5336
32-13,12657563,8497
32-14,12661469,12876
32-15,12665375,9490
32-16,12669281,3169
32-17,12673187,2757
32-18,12677093,3704
32-19,12680999,3743
32-20,12684905,4760
32-21,12688811,8258
32-22,12692717,10375
32-23,12696623,5967
32-24,12700529,2214
32-25,12704435,2847
32-26,12708341,3349
32-27,12712247,3609
32-28,12716153,3473
32-29,12720059,2870
32-30,12723965,2827
32-31,12727871,2840
32-32,12731777,2748
32-1,12735683,2593
32-2,12739589,2525
32-3,12743495,2502
32-4,12747401,2673
32-5,12751307,3088
32-6,12755213,3050
32-7,12759119,2740
32-8,12763025,2598
32-9,12766931,2579
32-10,12770837,2601
32-11,12774743,2661
32-12,12778649,3187
32-13,12782555,3588
32-14,12786461,3024
32-15,12790367,2491
32-16,12794273,2470
32-17,12798179,2463
32-18,12802085,2452
32-19,12805991,2594
32-20,12809897,3025
32-21,12813803,3151
32-22,12817709,2688
32-23,12821615,2424
32-24,12825521,2435
32-25,12829427,2402
32-26,12833333,2471
32-27,12837239,2544
32-28,12841145,2512
32-29,12845051,2586
32-30,12848957,2658
32-31,12852863,2514
32-32,12856769,2389
32-1,12860675,2401
32-2,12864581,2391
32-3,12868487,2344
32-4,12872393,2376
32-5,12876299,2515
32-6,12880205,2529
32-7,12884111,2390
32-8,12888017,2323
32-9,12891923,2337
32-10,12895829,2348
32-11,12899735,2320
32-12,12903641,2345
32-13,12907547,2462
32-14,12911453,2440
32-15,12915359,2306
32-16,12919265,2277
32-17,12923171,2298
32-18,12927077,2299
32-19,12930983,2319
32-20,12934889,2398
32-21,12938795,2437
32-22,12942701,2336
32-23,12946607,2254
32-24,12950513,2253
32-25,12954419,2242
32-26,12958325,2270
32-27,12962231,2307
32-28,12966137,2372
32-29,12970043,2422
32-30,12973949,2291
32-31,12977855,2164
32-32,12981761,2201
32-1,12985667,2209
32-2,12989573,2160
32-3,12993479,2231
32-4,12997385,2371
32-5,13001291,2363
32-6,13005197,2241
32-7,13009103,2172
32-8,13013009,2174
32-9,13016915,2184
32-10,13020821,2191
32-11,13024727,2277
32-12,13028633,2321
32-13,13032539,2212
32-14,13036445,2132
32-15,13040351,2090
32-16,13044257,2065
32-17,13048163,2088
32-18,13052069,2121
32-19,13055975,2220
32-20,13059881,2239
32-21,13063787,2089
32-22,13067693,1975
32-23,13071599,1958
32-24,13075505,1962
32-25,13079411,1961
32-26,13083317,2021
32-27,13087223,2133
32-28,13091129,2156
32-29,13095035,2110
32-30,13098941,2030
32-31,13102847,1946
32-32,13106753,1935
32-1,13110659,1962
32-2,13114565,2043
32-3,13118471,2154
32-4,13122377,2136
32-5,13126283,2023
32-6,13130189,1961
32-7,13134095,1947
32-8,13138001,1894
32-9,13141907,1877
32-10,13145813,1982
32-11,13149719,1997
32-12,13153625,1875
32-13,13157531,1824
32-14,13161437,1846
32-15,13165343,1852
32-16,13169249,1818
32-17,13173155,1855
32-18,13177061,1970
32-19,13180967,1923
32-20,13184873,1790
32-21,13188779,1767
32-22,13192685,1766
32-23,13196591,1722
32-24,13200497,1684
32-25,13204403,1757
32-26,13208309,1846
32-27,13212215,1767
32-28,13216121,1690
32-29,13220027,1718
32-30,13223933,1658
32-31,13227839,1533
32-32,13231745,1534
32-1,13235651,1653
32-2,13239557,1728
32-3,13243463,1651
32-4,13247369,1506
32-5,13251275,1470
32-6,13255181,1504
32-7,13259087,1454
32-8,13262993,1483
32-9,13266899,1635
32-10,13270805,1587
32-11,13274711,1441
32-12,13278617,1426
32-13,13282523,1412
32-14,13286429,1380
32-15,13290335,1373
32-16,13294241,1441
32-17,13298147,1526
32-18,13302053,1425
32-19,13305959,1314
32-20,13309865,1325
32-21,13313771,1336
32-22,13317677,1315
32-23,13321583,1299
32-24,13325489,1396
32-25,13329395,1476
32-26,13333301,1389
32-27,13337207,1327
32-28,13341113,1359
32-29,13345019,1402
32-30,13348925,1341
32-31,13352831,1274
32-32,13356737,1393
32-1,13360643,1497
32-2,13364549,1429
32-3,13368455,1319
32-4,13372361,1273
32-5,13376267,1278
32-6,13380173,1257
32-7,13384079,1350
32-8,13387985,1474
32-9,13391891,1359
32-10,13395797,1227
32-11,13399703,1248
32-12,13403609,1256
32-13,13407515,1203
32-14,13411421,1160
32-15,13415327,1250
32-16,13419233,1334
32-17,13423139,1213
32-18,13427045,1081
32-19,13430951,1080
32-20,13434857,1102
32-21,13438763,1081
32-22,13442669,1102
32-23,13446575,1198
32-24,13450481,1187
32-25,13454387,1074
32-26,13458293,1020
32-27,13462199,1014
32-28,13466105,1055
32-29,13470011,1123
32-30,13473917,1133
32-31,13477823,1120
32-32,13481729,1118
32-1,13485635,1066
32-2,13489541,959
32-3,13493447,939
32-4,13497353,984
32-5,13501259,988
32-6,13505165,1049
32-7,13509071,1083
32-8,13512977,973
32-9,13516883,929
32-10,13520789,977
32-11,13524695,934
32-12,13528601,845
32-13,13532507,865
32-14,13536413,971
32-15,13540319,987
32-16,13544225,892
32-17,13548131,837
32-18,13552037,851
32-19,13555943,802
32-20,13559849,705
32-21,13563755,802
32-22,13567661,980
32-23,13571567,905
32-24,13575473,772
32-25,13579379,791
32-26,13583285,772
32-27,13587191,723
32-28,13591097,791
32-29,13595003,919
32-30,13598909,955
32-31,13602815,918
32-32,13606721,903
32-1,13610627,842
32-2,13614533,795
32-3,13618439,803
32-4,13622345,796
32-5,13626251,857
32-6,13630157,881
32-7,13634063,761
32-8,13637969,676
32-9,13641875,707
32-10,13645781,722
32-11,13649687,634
32-12,13653593,645
32-13,13657499,791
32-14,13661405,772
32-15,13665311,637
32-16,13669217,602
32-17,13673123,632
32-18,13677029,618
32-19,13680935,594
32-20,13684841,719
32-21,13688747,838
32-22,13692653,745
32-23,13696559,639
32-24,13700465,635
32-25,13704371,629
32-26,13708277,587
32-27,13712183,588
32-28,13716089,719
32-29,13719995,809
32-30,13723901,696
32-31,13727807,558
32-32,13731713,544
32-1,13735619,579
32-2,13739525,591
32-3,13743431,652
32-4,13747337,765
32-5,13751243,780
32-6,13755149,694
32-7,13759055,615
32-8,13762961,592
32-9,13766867,607
32-10,13770773,601
32-11,13774679,630
32-12,13778585,695
32-13,13782491,646
32-14,13786397,530
32-15,13790303,493
32-16,13794209,518
32-17,13798115,477
32-18,13802021,447
32-19,13805927,594
32-20,13809833,695
32-21,13813739,603
32-22,13817645,538
32-23,13821551,549
32-24,13825457,528
32-25,13829363,489
32-26,13833269,536
32-27,13837175,641
32-28,13841081,687
32-29,13844987,673
32-30,13848893,552
32-31,13852799,444
32-32,13856705,477
32-1,13860611,471
32-2,13864517,473
32-3,13868423,568
32-4,13872329,570
32-5,13876235,494
32-6,13880141,438
32-7,13884047,410
32-8,13887953,412
32-9,13891859,444
32-10,13895765,523
32-11,13899671,559
32-12,13903577,486
32-13,13907483,432
32-14,13911389,438
32-15,13915295,435
32-16,13919201,400
32-17,13923107,416
32-18,13927013,516
32-19,13930919,511
32-20,13934825,381
32-21,13938731,310
32-22,13942637,328
32-23,13946543,369
32-24,13950449,368
32-25,13954355,392
32-26,13958261,462
32-27,13962167,448
32-28,13966073,422
32-29,13969979,441
32-30,13973885,386
32-31,13977791,317
32-32,13981697,359
32-1,13985603,440
32-2,13989509,465
32-3,13993415,423
32-4,13997321,317
32-5,14001227,217
32-6,14005133,214
32-7,14009039,236
32-8,14012945,274
32-9,14016851,387
32-10,14020757,384
32-11,14024663,230
32-12,14028569,176
32-13,14032475,239
32-14,14036381,271
32-15,14040287,252
32-16,14044193,280
32-17,14048099,365
32-18,14052005,352
32-19,14055911,250
32-20,14059817,206
32-21,14063723,211
32-22,14067629,206
32-23,14071535,218
32-24,14075441,322
32-25,14079347,405
32-26,14083253,354
32-27,14087159,302
32-28,14091065,347
32-29,14094971,406
32-30,14098877,351
32-31,14102783,293
32-32,14106689,373
32-1,14110595,401
32-2,14114501,322
32-3,14118407,262
32-4,14122313,227
32-5,14126219,219
32-6,14130125,208
32-7,14134031,258
32-8,14137937,345
32-9,14141843,294
32-10,14145749,167
32-11,14149655,136
32-12,14153561,176
32-13,14157467,180
32-14,14161373,179
32-15,14165279,271
32-16,14169185,340
32-17,14173091,269
32-18,14176997,172
32-19,14180903,177
32-20,14184809,224
32-21,14188715,231
32-22,14192621,268
32-23,14196527,357
32-24,14200433,371
32-25,14204339,256
32-26,14208245,162
32-27,14212151,196
32-28,14216057,260
32-29,14219963,269
32-30,14223869,272
32-31,14227775,317
32-32,14231681,370
32-1,14235587,343
32-2,14239493,249
32-3,14243399,188
32-4,14247305,142
32-5,14251211,132
32-6,14255117,207
32-7,14259023,250
32-8,14262929,201
32-9,14266835,126
32-10,14270741,79
32-11,14274647,78
32-12,14278553,84
32-13,14282459,115
32-14,14286365,180
32-15,14290271,172
32-16,14294177,110
32-17,14298083,66
32-18,14301989,33
32-19,14305895,51
32-20,14309801,88
32-21,14313707,124
32-22,14317613,198
32-23,14321519,206
32-24,14325425,120
32-25,14329331,54
32-26,14333237,68
32-27,14337143,118
32-28,14341049,166
32-29,14344955,250
32-30,14348861,287
32-31,14352767,230
32-32,14356673,215
32-1,14360579,193
32-2,14364485,108
32-3,14368391,60
32-4,14372297,77
32-5,14376203,150
32-6,14380109,200
32-7,14384015,127
32-8,14387921,18
32-9,14391827,12
32-10,14395733,63
32-11,14399639,60
32-12,14403545,76
32-13,14407451,174
32-14,14411357,216
32-15,14415263,136
32-16,14419169,51
32-17,14423075,26
32-18,14426981,10
32-19,14430887,17
32-20,14434793,108
32-21,14438699,221
32-22,14442605,224
32-23,14446511,99
32-24,14450417,16
32-25,14454323,36
32-26,14458229,36
32-27,14462135,61
32-28,14466041,181
32-29,14469947,242
32-30,14473853,213
32-31,14477759,168
32-32,14481665,116
32-1,14485571,62
32-2,14489477,17
32-3,14493383,50
32-4,14497289,147
32-5,14501195,172
32-6,14505101,111
32-7,14509007,23
32-8,14512913,-29
32-9,14516819,-51
32-10,14520725,-63
32-11,14524631,13
32-12,14528537,107
32-13,14532443,78
32-14,14536349,-20
32-15,14540255,-92
32-16,14544161,-93
32-17,14548067,-67
32-18,14551973,-20
32-19,14555879,72
32-20,14559785,113
32-21,14563691,81
32-22,14567597,16
32-23,14571503,-53
32-24,14575409,-69
32-25,14579315,-51
32-26,14583221,10
32-27,14587127,86
32-28,14591033,113
32-29,14594939,157
32-30,14598845,131
32-31,14602751,20
32-32,14606657,-29
32-1,14610563,-62
32-2,14614469,-42
32-3,14618375,45
32-4,14622281,36
32-5,14626187,-1
32-6,14630093,8
32-7,14633999,-8
32-8,14637905,-38
32-9,14641811,-9
32-10,14645717,97
32-11,14649623,131
32-12,14653529,36
32-13,14657435,-54
32-14,14661341,-70
32-15,14665247,-38
32-16,14669153,-30
32-17,14673059,-19
32-18,14676965,45
32-19,14680871,68
32-20,14684777,28
32-21,14688683,-33
32-22,14692589,-64
32-23,14696495,-19
32-24,14700401,19
32-25,14704307,65
32-26,14708213,143
32-27,14712119,125
32-28,14716025,82
32-29,14719931,115
32-30,14723837,57
32-31,14727743,-87
32-32,14731649,-87
32-1,14735555,46
32-2,14739461,133
32-3,14743367,146
32-4,14747273,132
32-5,14751179,95
32-6,14755085,8
32-7,14758991,-83
32-8,14762897,-48
32-9,14766803,73
32-10,14770709,92
32-11,14774615,26
32-12,14778521,-29
32-13,14782427,-73
32-14,14786333,-104
32-15,14790239,-114
32-16,14794145,-47
32-17,14798051,58
32-18,14801957,74
32-19,14805863,16
32-20,14809769,-55
32-21,14813675,-92
32-22,14817581,-104
32-23,14821487,-108
32-24,14825393,-27
32-25,14829299,31
32-26,14833205,-35
32-27,14837111,-88
32-28,14841017,-58
32-29,14844923,-4
32-30,14848829,-29
32-31,14852735,-73
32-32,14856641,-37
32-1,14860547,-12
32-2,14864453,7
32-3,14868359,33
32-4,14872265,1
32-5,14876171,-50
32-6,14880077,-60
32-7,14883983,18
32-8,14887889,76
32-9,14891795,14
32-10,14895701,-27
32-11,14899607,-41
32-12,14903513,-79
32-13,14907419,-83
32-14,14911325,-58
32-15,14915231,11
32-16,14919137,73
32-17,14923043,27
32-18,14926949,-62
32-19,14930855,-109
32-20,14934761,-125
32-21,14938667,-122
32-22,14942573,-48
32-23,14946479,76
32-24,14950385,128
32-25,14954291,97
32-26,14958197,39
32-27,14962103,-9
32-28,14966009,-10
32-29,14969915,-8
32-30,14973821,-33
32-31,14977727,-8
32-32,14981633,46
32-1,14985539,44
32-2,14989445,7
32-3,14993351,-24
32-4,14997257,-73
32-5,15001163,-104
32-6,15005069,-26
32-7,15008975,71
32-8,15012881,38
32-9,15016787,-16
32-10,15020693,-10
32-11,15024599,-22
32-12,15028505,-37
32-13,15032411,2
32-14,15036317,71
32-15,15040223,107
32-16,15044129,94
32-17,15048035,42
32-18,15051941,-15
32-19,15055847,-48
32-20,15059753,-32
32-21,15063659,63
32-22,15067565,156
32-23,15071471,145
32-24,15075377,96
32-25,15079283,47
32-26,15083189,-15
32-27,15087095,-41
32-28,15091001,-2
32-29,15094907,91
32-30,15098813,171
32-31,15102719,166
32-32,15106625,103
32-1,15110531,44
32-2,15114437,9
32-3,15118343,-36
32-4,15122249,-55
32-5,15126155,11
32-6,15130061,68
32-7,15133967,52
32-8,15137873,45
32-9,15141779,61
32-10,15145685,43
32-11,15149591,-3
32-12,15153497,24
32-13,15157403,113
32-14,15161309,114
32-15,15165215,43
32-16,15169121,9
32-17,15173027,0
32-18,15176933,-33
32-19,15180839,-25
32-20,15184745,68
32-21,15188651,126
32-22,15192557,75
32-23,15196463,8
32-24,15200369,-8
32-25,15204275,-19
32-26,15208181,-51
32-27,15212087,-31
32-28,15215993,78
32-29,15219899,159
32-30,15223805,115
32-31,15227711,40
32-32,15231617,24
32-1,15235523,-2
32-2,15239429,-56
32-3,15243335,-39
32-4,15247241,18
32-5,15251147,33
32-6,15255053,7
32-7,15258959,-32
32-8,15262865,-36
32-9,15266771,-59
32-10,15270677,-113
32-11,15274583,-78
32-12,15278489,-24
32-13,15282395,-36
32-14,15286301,-50
32-15,15290207,-85
32-16,15294113,-145
32-17,15298019,-183
32-18,15301925,-139
32-19,15305831,-11
32-20,15309737,55
32-21,15313643,33
32-22,15317549,0
32-23,15321455,-50
32-24,15325361,-104
32-25,15329267,-138
32-26,15333173,-90
32-27,15337079,29
32-28,15340985,109
32-29,15344891,115
32-30,15348797,49
32-31,15352703,-7
32-32,15356609,-21
32-1,15360515,-17
32-2,15364421,70
32-3,15368327,150
32-4,15372233,159
32-5,15376139,161
32-6,15380045,101
32-7,15383951,18
32-8,15387857,-30
32-9,15391763,-46
32-10,15395669,4
32-11,15399575,50
32-12,15403481,34
32-13,15407387,-15
32-14,15411293,-58
32-15,15415199,-105
32-16,15419105,-159
32-17,15423011,-108
32-18,15426917,8
32-19,15430823,35
32-20,15434729,9
32-21,15438635,-46
32-22,15442541,-106
32-23,15446447,-143
32-24,15450353,-168
32-25,15454259,-97
32-26,15458165,12
32-27,15462071,25
32-28,15465977,23
32-29,15469883,41
32-30,15473789,3
32-31,15477695,-61
32-32,15481601,-54
32-1,15485507,21
32-2,15489413,64
32-3,15493319,45
32-4,15497225,35
32-5,15501131,45
32-6,15505037,20
32-7,15508943,-10
32-8,15512849,8
32-9,15516755,34
32-10,15520661,11
32-11,15524567,-13
32-12,15528473,-37
32-13,15532379,-82
32-14,15536285,-103
32-15,15540191,-93
32-16,15544097,-33
32-17,15548003,58
32-18,15551909,93
32-19,15555815,67
32-20,15559721,17
32-21,15563627,-15
32-22,15567533,-53
32-23,15571439,-92
32-24,15575345,-43
32-25,15579251,8
32-26,15583157,-39
32-27,15587063,-102
32-28,15590969,-95
32-29,15594875,-41
32-30,15598781,-59
32-31,15602687,-102
32-32,15606593,-55
33-1,15610499,-7
33-2,15614405,-4
33-3,15618311,-9
33-4,15622217,-43
33-5,15626123,-76
33-6,15630029,-66
33-7,15633935,-27
33-8,15637841,12
33-9,15641747,4
33-10,15645653,-47
33-11,15649559,-64
33-12,15653465,-69
33-13,15657371,-131
33-14,15661277,-161
33-15,15665183,-70
33-16,15669089,10
33-17,15672995,-23
33-18,15676901,-51
33-19,15680807,-19
33-20,15684713,-14
33-21,15688619,-58
33-22,15692525,-60
33-23,15696431,6
33-24,15700337,31
33-25,15704243,-3
33-26,15708149,-16
33-27,15712055,-25
33-28,15715961,-14
33-29,15719867,38
33-30,15723773,39
33-31,15727679,-2
33-32,15731585,-12
33-33,15735491,-17
32-1,15739397,-22
32-2,15743303,-4
32-3,15747209,-13
32-4,15751115,-36
32-5,15755021,-15
32-6,15758927,-7
32-7,15762833,-28
32-8,15766739,-23
32-9,15770645,-9
32-10,15774551,1
32-11,15778457,-13
32-12,15782363,-9
32-13,15786269,70
32-14,15790175,124
32-15,15794081,83
32-16,15797987,13
32-17,15801893,-38
32-18,15805799,-49
32-19,15809705,-40
32-20,15813611,-7
32-21,15817517,45
32-22,15821423,70
32-23,15825329,60
32-24,15829235,28
32-25,15833141,1
32-26,15837047,13
32-27,15840953,65
32-28,15844859,129
32-29,15848765,150
32-30,15852671,129
32-31,15856577,100
32-32,15860483,74
32-1,15864389,74
32-2,15868295,59
32-3,15872201,30
32-4,15876107,29
32-5,15880013,9
32-6,15883919,-29
32-7,15887825,-49
32-8,15891731,-51
32-9,15895637,-47
32-10,15899543,-36
32-11,15903449,20
32-12,15907355,51
32-13,15911261,4
32-14,15915167,-18
32-15,15919073,-5
32-16,15922979,-7
32-17,15926885,-32
32-18,15930791,-61
32-19,15934697,-32
32-20,15938603,30
32-21,15942509,39
32-22,15946415,3
32-23,15950321,-26
32-24,15954227,-58
32-25,15958133,-87
32-26,15962039,-39
32-27,15965945,40
32-28,15969851,60
32-29,15973757,52
32-30,15977663,30
32-31,15981569,23
32-32,15985475,55
32-1,15989381,47
32-2,15993287,27
32-3,15997193,48
32-4,16001099,25
32-5,16005005,-29
32-6,16008911,-36
32-7,16012817,-35
32-8,16016723,-61
32-9,16020629,-63
32-10,16024535,-23
32-11,16028441,-14
32-12,16032347,-60
32-13,16036253,-104
32-14,16040159,-127
32-15,16044065,-133
32-16,16047971,-141
32-17,16051877,-121
32-18,16055783,-54
32-19,16059689,-28
32-20,16063595,-33
32-21,16067501,-11
32-22,16071407,7
32-23,16075313,9
32-24,16079219,-20
32-25,16083125,-42
32-26,16087031,-18
32-27,16090937,-24
32-28,16094843,-30
32-29,16098749,18
32-30,16102655,28
32-31,16106561,3
32-32,16110467,3
32-1,16114373,18
32-2,16118279,67
32-3,16122185,100
32-4,16126091,50
32-5,16129997,12
32-6,16133903,43
32-7,16137809,40
32-8,16141715,3
32-9,16145621,48
32-10,16149527,79
32-11,16153433,13
32-12,16157339,-31
32-13,16161245,-32
32-14,16165151,-37
32-15,16169057,-40
32-16,16172963,-21
32-17,16176869,2
32-18,16180775,-23
32-19,16184681,-45
32-20,16188587,-34
32-21,16192493,-35
32-22,16196399,-70
32-23,16200305,-109
32-24,16204211,-59
32-25,16208117,40
32-26,16212023,56
32-27,16215929,10
32-28,16219835,-12
32-29,16223741,-3
32-30,16227647,-30
32-31,16231553,-68
32-32,16235459,-43
32-1,16239365,-1
32-2,16243271,31
32-3,16247177,48
32-4,16251083,38
32-5,16254989,39
32-6,16258895,39
32-7,16262801,26
32-8,16266707,48
32-9,16270613,60
32-10,16274519,14
32-11,16278425,0
32-12,16282331,22
32-13,16286237,10
32-14,16290143,-6
32-15,16294049,19
32-16,16297955,62
32-17,16301861,56
32-18,16305767,0
32-19,16309673,-20
32-20,16313579,8
32-21,16317485,29
32-22,16321391,26
32-23,16325297,59
32-24,16329203,124
32-25,16333109,146
32-26,16337015,150
32-27,16340921,130
32-28,16344827,105
32-29,16348733,131
32-30,16352639,101
32-31,16356545,44
32-32,16360451,42
32-1,16364357,-18
32-2,16368263,-102
32-3,16372169,-120
32-4,16376075,-128
32-5,16379981,-144
32-6,16383887,-132
32-7,16387793,-101
32-8,16391699,-79
32-9,16395605,-59
32-10,16399511,-40
32-11,16403417,-38
32-12,16407323,-48
32-13,16411229,-48
32-14,16415135,-21
32-15,16419041,-3
32-16,16422947,-22
32-17,16426853,-35
32-18,16430759,-39
32-19,16434665,-70
32-20,16438571,-118
32-21,16442477,-98
32-22,16446383,-56
32-23,16450289,-90
32-24,16454195,-115
32-25,16458101,-92
32-26,16462007,-67
32-27,16465913,-83
32-28,16469819,-88
32-29,16473725,-24
32-30,16477631,-6
32-31,16481537,-32
32-32,16485443,-23
32-1,16489349,-53
32-2,16493255,-74
32-3,16497161,-51
32-4,16501067,-39
32-5,16504973,-11
32-6,16508879,-15
32-7,16512785,-44
32-8,16516691,-28
32-9,16520597,-14
32-10,16524503,-18
32-11,16528409,-32
32-12,16532315,-51
32-13,16536221,-47
32-14,16540127,-80
32-15,16544033,-145
32-16,16547939,-141
32-17,16551845,-89
32-18,16555751,-73
32-19,16559657,-66
32-20,16563563,-20
32-21,16567469,2
32-22,16571375,-29
32-23,16575281,-25
32-24,16579187,-29
32-25,16583093,-87
32-26,16586999,-70
32-27,16590905,-9
32-28,16594811,-10
32-29,16598717,12
32-30,16602623,20
32-31,16606529,-40
32-32,16610435,-69
32-1,16614341,-59
32-2,16618247,-51
32-3,16622153,-58
32-4,16626059,-54
32-5,16629965,-9
32-6,16633871,3
32-7,16637777,-13
32-8,16641683,6
32-9,16645589,-1
32-10,16649495,-50
32-11,16653401,-57
32-12,16657307,-1
32-13,16661213,37
32-14,16665119,5
32-15,16669025,-49
32-16,16672931,-86
32-17,16676837,-116
32-18,16680743,-115
32-19,16684649,-69
32-20,16688555,-11
32-21,16692461,23
32-22,16696367,26
32-23,16700273,28
32-24,16704179,13
32-25,16708085,-36
32-26,16711991,-35
32-27,16715897,17
32-28,16719803,35
32-29,16723709,30
32-30,16727615,7
32-31,16731521,-17
32-32,16735427,-14
32-1,16739333,-6
32-2,16743239,35
32-3,16747145,98
32-4,16751051,125
32-5,16754957,95
32-6,16758863,39
32-7,16762769,14
32-8,16766675,11
32-9,16770581,3
32-10,16774487,29
32-11,16778393,70
32-12,16782299,66
32-13,16786205,21
32-14,16790111,-9
32-15,16794017,-19
32-16,16797923,-48
32-17,16801829,-44
32-18,16805735,31
32-19,16809641,83
32-20,16813547,62
32-21,16817453,11
32-22,16821359,-29
32-23,16825265,-42
32-24,16829171,-57
32-25,16833077,-35
32-26,16836983,45
32-27,16840889,69
32-28,16844795,49
32-29,16848701,51
32-30,16852607,29
32-31,16856513,-13
32-32,16860419,-33
32-1,16864325,-15
32-2,16868231,39
32-3,16872137,58
32-4,16876043,30
32-5,16879949,-3
32-6,16883855,-50
32-7,16887761,-71
32-8,16891667,-42
32-9,16895573,-19
32-10,16899479,-26
32-11,16903385,-37
32-12,16907291,-63
32-13,16911197,-92
32-14,16915103,-106
32-15,16919009,-114
32-16,16922915,-86
32-17,16926821,-42
32-18,16930727,-50
32-19,16934633,-78
32-20,16938539,-77
32-21,16942445,-57
32-22,16946351,-43
32-23,16950257,-56
32-24,16954163,-59
32-25,16958069,-22
32-26,16961975,-3
32-27,16965881,-40
32-28,16969787,-32
32-29,16973693,38
32-30,16977599,37
32-31,16981505,17
32-32,16985411,64
32-1,16989317,103
32-2,16993223,121
32-3,16997129,108
32-4,17001035,68
32-5,17004941,74
32-6,17008847,89
32-7,17012753,52
32-8,17016659,5
32-9,17020565,-21
32-10,17024471,-39
32-11,17028377,-48
32-12,17032283,-61
32-13,17036189,-75
32-14,17040095,-60
32-15,17044001,-42
32-16,17047907,-31
32-17,17051813,19
32-18,17055719,41
32-19,17059625,-10
32-20,17063531,-31
32-21,17067437,-42
32-22,17071343,-43
32-23,17075249,65
32-24,17079155,125
32-25,17083061,62
32-26,17086967,60
32-27,17090873,53
32-28,17094779,1
32-29,17098685,18
32-30,17102591,12
32-31,17106497,-34
32-32,17110403,-41
32-1,17114309,-72
32-2,17118215,-106
32-3,17122121,-116
32-4,17126027,-139
32-5,17129933,-139
32-6,17133839,-94
32-7,17137745,-43
32-8,17141651,-21
32-9,17145557,-48
32-10,17149463,-95
32-11,17153369,-124
32-12,17157275,-146
32-13,17161181,-137
32-14,17165087,-80
32-15,17168993,-71
32-16,17172899,-120
32-17,17176805,-152
32-18,17180711,-141
32-19,17184617,-117
32-20,17188523,-141
32-21,17192429,-140
32-22,17196335,-62
32-23,17200241,-6
32-24,17204147,-22
32-25,17208053,-77
32-26,17211959,-63
32-27,17215865,-7
32-28,17219771,-17
32-29,17223677,16
32-30,17227583,66
32-31,17231489,43
32-32,17235395,38
32-1,17239301,30
32-2,17243207,17
32-3,17247113,20
32-4,17251019,-9
32-5,17254925,-17
32-6,17258831,-31
32-7,17262737,-98
32-8,17266643,-129
32-9,17270549,-119
32-10,17274455,-114
32-11,17278361,-99
32-12,17282267,-107
32-13,17286173,-145
32-14,17290079,-162
32-15,17293985,-157
32-16,17297891,-146
32-17,17301797,-130
32-18,17305703,-103
32-19,17309609,-78
32-20,17313515,-78
32-21,17317421,-74
32-22,17321327,-66
32-23,17325233,-94
32-24,17329139,-101
32-25,17333045,-72
32-26,17336951,-49
32-27,17340857,-31
32-28,17344763,-5
32-29,17348669,19
32-30,17352575,-19
32-31,17356481,-76
32-32,17360387,-83
32-1,17364293,-79
32-2,17368199,-68
32-3,17372105,-47
32-4,17376011,-12
32-5,17379917,51
32-6,17383823,58
32-7,17387729,12
32-8,17391635,0
32-9,17395541,6
32-10,17399447,1
32-11,17403353,15
32-12,17407259,33
32-13,17411165,10
32-14,17415071,-34
32-15,17418977,-50
32-16,17422883,-45
32-17,17426789,-44
32-18,17430695,-30
32-19,17434601,4
32-20,17438507,12
32-21,17442413,-6
32-22,17446319,-28
32-23,17450225,-56
32-24,17454131,-63
32-25,17458037,-31
32-26,17461943,-15
32-27,17465849,-23
32-28,17469755,34
32-29,17473661,127
32-30,17477567,94
32-31,17481473,-10
32-32,17485379,-20
32-1,17489285,-5
32-2,17493191,-26
32-3,17497097,-18
32-4,17501003,-29
32-5,17504909,-58
32-6,17508815,-63
32-7,17512721,-85
32-8,17516627,-90
32-9,17520533,-79
32-10,17524439,-69
32-11,17528345,-23
32-12,17532251,-8
32-13,17536157,-44
32-14,17540063,-60
32-15,17543969,-40
32-16,17547875,-9
32-17,17551781,-11
32-18,17555687,-14
32-19,17559593,0
32-20,17563499,-18
32-21,17567405,-22
32-22,17571311,-6
32-23,17575217,-13
32-24,17579123,-18
32-25,17583029,-12
32-26,17586935,8
32-27,17590841,9
32-28,17594747,17
32-29,17598653,51
32-30,17602559,7
32-31,17606465,-32
32-32,17610371,2
32-1,17614277,-20
32-2,17618183,-27
32-3,17622089,21
32-4,17625995,8
32-5,17629901,-42
32-6,17633807,-51
32-7,17637713,-35
32-8,17641619,-54
32-9,17645525,-84
32-10,17649431,-92
32-11,17653337,-115
32-12,17657243,-120
32-13,17661149,-82
32-14,17665055,-69
32-15,17668961,-78
32-16,17672867,-51
32-17,17676773,-25
32-18,17680679,-57
32-19,17684585,-84
32-20,17688491,-66
32-21,17692397,-53
32-22,17696303,-55
32-23,17700209,-45
32-24,17704115,-34
32-25,17708021,-21
32-26,17711927,-2
32-27,17715833,-15
32-28,17719739,-28
32-29,17723645,-14
32-30,17727551,-45
32-31,17731457,-77
32-32,17735363,-8
32-1,17739269,39
32-2,17743175,-40
32-3,17747081,-122
32-4,17750987,-123
32-5,17754893,-108
32-6,17758799,-119
32-7,17762705,-103
32-8,17766611,-78
32-9,17770517,-128
32-10,17774423,-185
32-11,17778329,-164
32-12,17782235,-140
32-13,17786141,-153
32-14,17790047,-135
32-15,17793953,-97
32-16,17797859,-98
32-17,17801765,-107
32-18,17805671,-100
32-19,17809577,-87
32-20,17813483,-45
32-21,17817389,-18
32-22,17821295,-35
32-23,17825201,-33
32-24,17829107,-18
32-25,17833013,-52
32-26,17836919,-81
32-27,17840825,-66
32-28,17844731,-47
32-29,17848637,-21
32-30,17852543,-21
32-31,17856449,-52
32-32,17860355,-53
32-1,17864261,-66
32-2,17868167,-100
32-3,17872073,-82
32-4,17875979,-70
32-5,17879885,-78
32-6,17883791,-54
32-7,17887697,-60
32-8,17891603,-105
32-9,17895509,-110
32-10,17899415,-92
32-11,17903321,-68
32-12,17907227,-64
32-13,17911133,-84
32-14,17915039,-68
32-15,17918945,-62
32-16,17922851,-76
32-17,17926757,-62
32-18,17930663,-81
32-19,17934569,-110
32-20,17938475,-99
32-21,17942381,-104
32-22,17946287,-99
32-23,17950193,-83
32-24,17954099,-93
32-25,17958005,-89
32-26,17961911,-61
32-27,17965817,-46
32-28,17969723,-27
32-29,17973629,9
32-30,17977535,15
32-31,17981441,-7
32-32,17985347,-23
32-1,17989253,-36
32-2,17993159,-37
32-3,17997065,-19
32-4,18000971,-5
32-5,18004877,-15
32-6,18008783,-40
32-7,18012689,-44
32-8,18016595,-13
32-9,18020501,26
32-10,18024407,36
32-11,18028313,1
32-12,18032219,-36
32-13,18036125,-15
32-14,18040031,-10
32-15,18043937,-63
32-16,18047843,-75
32-17,18051749,-24
32-18,18055655,8
32-19,18059561,-12
32-20,18063467,-38
32-21,18067373,-53
32-22,18071279,-91
32-23,18075185,-107
32-24,18079091,-96
32-25,18082997,-92
32-26,18086903,-65
32-27,18090809,-54
32-28,18094715,-30
32-29,18098621,19
32-30,18102527,-25
32-31,18106433,-78
32-32,18110339,-53
32-1,18114245,-6
32-2,18118151,42
32-3,18122057,57
32-4,18125963,60
32-5,18129869,84
32-6,18133775,72
32-7,18137681,30
32-8,18141587,2
32-9,18145493,17
32-10,18149399,44
32-11,18153305,46
32-12,18157211,39
32-13,18161117,26
32-14,18165023,8
32-15,18168929,-36
32-16,18172835,-78
32-17,18176741,-70
32-18,18180647,-27
32-19,18184553,25
32-20,18188459,33
32-21,18192365,-12
32-22,18196271,-36
32-23,18200177,-33
32-24,18204083,-59
32-25,18207989,-101
32-26,18211895,-79
32-27,18215801,-45
32-28,18219707,-75
32-29,18223613,-90
32-30,18227519,-85
32-31,18231425,-93
32-32,18235331,-67
32-1,18239237,-36
32-2,18243143,-23
32-3,18247049,9
32-4,18250955,47
32-5,18254861,37
32-6,18258767,6
32-7,18262673,13
32-8,18266579,29
32-9,18270485,18
32-10,18274391,6
32-11,18278297,-8
32-12,18282203,-33
32-13,18286109,-65
32-14,18290015,-115
32-15,18293921,-135
32-16,18297827,-99
32-17,18301733,-61
32-18,18305639,-49
32-19,18309545,-74
32-20,18313451,-104
32-21,18317357,-87
32-22,18321263,-67
32-23,18325169,-50
32-24,18329075,-35
32-25,18332981,-47
32-26,18336887,-41
32-27,18340793,-40
32-28,18344699,-47
32-29,18348605,-13
32-30,18352511,-14
32-31,18356417,-56
32-32,18360323,-42
32-1,18364229,-21
32-2,18368135,-29
32-3,18372041,-14
32-4,18375947,-12
32-5,18379853,-53
32-6,18383759,-67
32-7,18387665,-60
32-8,18391571,-63
32-9,18395477,-34
32-10,18399383,-15
32-11,18403289,-44
32-12,18407195,-67
32-13,18411101,-69
32-14,18415007,-81
32-15,18418913,-102
32-16,18422819,-71
32-17,18426725,-27
32-18,18430631,-40
32-19,18434537,-57
32-20,18438443,-63
32-21,18442349,-81
32-22,18446255,-83
32-23,18450161,-59
32-24,18454067,-20
32-25,18457973,-26
32-26,18461879,-87
32-27,18465785,-111
32-28,18469691,-68
32-29,18473597,-18
32-30,18477503,-14
32-31,18481409,-41
32-32,18485315,-58
32-1,18489221,-83
32-2,18493127,-92
32-3,18497033,-70
32-4,18500939,-61
32-5,18504845,-55
32-6,18508751,-41
32-7,18512657,-34
32-8,18516563,-26
32-9,18520469,-26
32-10,18524375,-14
32-11,18528281,13
32-12,18532187,15
32-13,18536093,-10
32-14,18539999,-25
32-15,18543905,-41
32-16,18547811,-81
32-17,18551717,-113
32-18,18555623,-106
32-19,18559529,-107
32-20,18563435,-98
32-21,18567341,-53
32-22,18571247,-30
32-23,18575153,-31
32-24,18579059,-58
32-25,18582965,-101
32-26,18586871,-92
32-27,18590777,-78
32-28,18594683,-45
32-29,18598589,21
32-30,18602495,10
32-31,18606401,-6
32-32,18610307,46
32-1,18614213,63
32-2,18618119,32
32-3,18622025,-8
32-4,18625931,-14
32-5,18629837,22
32-6,18633743,40
32-7,18637649,23
32-8,18641555,-3
32-9,18645461,-8
32-10,18649367,-15
32-11,18653273,-49
32-12,18657179,-59
32-13,18661085,-54
32-14,18664991,-62
32-15,18668897,-51
32-16,18672803,-45
32-17,18676709,-73
32-18,18680615,-72
32-19,18684521,-62
32-20,18688427,-99
32-21,18692333,-107
32-22,18696239,-58
32-23,18700145,5
32-24,18704051,26
32-25,18707957,-13
32-26,18711863,-18
32-27,18715769,-11
32-28,18719675,-39
32-29,18723581,-51
32-30,18727487,-86
32-31,18731393,-123
32-32,18735299,-99
32-1,18739205,-72
32-2,18743111,-43
32-3,18747017,-7
32-4,18750923,-19
32-5,18754829,-39
32-6,18758735,-24
32-7,18762641,5
32-8,18766547,15
32-9,18770453,-17
32-10,18774359,-50
32-11,18778265,-25
32-12,18782171,40
32-13,18786077,101
32-14,18789983,116
32-15,18793889,49
32-16,18797795,-25
32-17,18801701,-26
32-18,18805607,-7
32-19,18809513,-21
32-20,18813419,-12
32-21,18817325,7
32-22,18821231,-17
32-23,18825137,-31
32-24,18829043,-2
32-25,18832949,18
32-26,18836855,4
32-27,18840761,-34
32-28,18844667,-50
32-29,18848573,-53
32-30,18852479,-83
32-31,18856385,-115
32-32,18860291,-139
32-1,18864197,-131
32-2,18868103,-95
32-3,18872009,-70
32-4,18875915,-55
32-5,18879821,-80
32-6,18883727,-132
32-7,18887633,-128
32-8,18891539,-95
32-9,18895445,-85
32-10,18899351,-81
32-11,18903257,-84
32-12,18907163,-75
32-13,18911069,-38
32-14,18914975,-22
32-15,18918881,-33
32-16,18922787,-53
32-17,18926693,-59
32-18,18930599,-28
32-19,18934505,5
32-20,18938411,-3
32-21,18942317,-16
32-22,18946223,13
32-23,18950129,24
32-24,18954035,-3
32-25,18957941,11
32-26,18961847,35
32-27,18965753,25
32-28,18969659,29
32-29,18973565,17
32-30,18977471,-55
32-31,18981377,-104
32-32,18985283,-83
32-1,18989189,-73
32-2,18993095,-94
32-3,18997001,-84
32-4,19000907,-77
32-5,19004813,-101
32-6,19008719,-68
32-7,19012625,-3
32-8,19016531,4
32-9,19020437,16
32-10,19024343,41
32-11,19028249,8
32-12,19032155,-47
32-13,19036061,-65
32-14,19039967,-35
32-15,19043873,7
32-16,19047779,-12
32-17,19051685,-48
32-18,19055591,-12
32-19,19059497,39
32-20,19063403,45
32-21,19067309,27
32-22,19071215,-8
32-23,19075121,-23
32-24,19079027,-18
32-25,19082933,-27
32-26,19086839,-58
32-27,19090745,-141
32-28,19094651,-193
32-29,19098557,-131
32-30,19102463,-78
32-31,19106369,-91
32-32,19110275,-95
32-1,19114181,-76
32-2,19118087,-52
32-3,19121993,-43
32-4,19125899,-52
32-5,19129805,-58
32-6,19133711,-47
32-7,19137617,-54
32-8,19141523,-85
32-9,19145429,-82
32-10,19149335,-62
32-11,19153241,-54
32-12,19157147,-25
32-13,19161053,-10
32-14,19164959,-21
32-15,19168865,-20
32-16,19172771,0
32-17,19176677,23
32-18,19180583,15
32-19,19184489,-32
32-20,19188395,-61
32-21,19192301,-43
32-22,19196207,-4
32-23,19200113,26
32-24,19204019,50
32-25,19207925,56
32-26,19211831,35
32-27,19215737,13
32-28,19219643,13
32-29,19223549,7
32-30,19227455,-19
32-31,19231361,-27
32-32,19235267,2
32-1,19239173,24
32-2,19243079,17
32-3,19246985,1
32-4,19250891,-8
32-5,19254797,-3
32-6,19258703,15
32-7,19262609,21
32-8,19266515,19
32-9,19270421,17
32-10,19274327,28
32-11,19278233,63
32-12,19282139,71
32-13,19286045,63
32-14,19289951,68
32-15,19293857,69
32-16,19297763,80
32-17,19301669,66
32-18,19305575,5
32-19,19309481,-23
32-20,19313387,2
32-21,19317293,27
32-22,19321199,26
32-23,19325105,-8
32-24,19329011,-85
32-25,19332917,-138
32-26,19336823,-127
32-27,19340729,-142
32-28,19344635,-163
32-29,19348541,-123
32-30,19352447,-95
32-31,19356353,-115
32-32,19360259,-145
32-1,19364165,-150
32-2,19368071,-108
32-3,19371977,-64
32-4,19375883,-45
32-5,19379789,-23
32-6,19383695,-14
32-7,19387601,-53
32-8,19391507,-70
32-9,19395413,-32
32-10,19399319,-21
32-11,19403225,-38
32-12,19407131,-45
32-13,19411037,-45
32-14,19414943,-15
32-15,19418849,-5
32-16,19422755,-35
32-17,19426661,-57
32-18,19430567,-60
32-19,19434473,-51
32-20,19438379,-64
32-21,19442285,-63
32-22,19446191,-32
32-23,19450097,-48
32-24,19454003,-89
32-25,19457909,-87
32-26,19461815,-64
32-27,19465721,-79
32-28,19469627,-84
32-29,19473533,-45
32-30,19477439,-67
32-31,19481345,-132
32-32,19485251,-135
32-1,19489157,-106
32-2,19493063,-73
32-3,19496969,-21
32-4,19500875,13
32-5,19504781,38
32-6,19508687,84
32-7,19512593,94
32-8,19516499,67
32-9,19520405,72
32-10,19524311,95
32-11,19528217,105
32-12,19532123,105
32-13,19536029,89
32-14,19539935,51
32-15,19543841,19
32-16,19547747,17
32-17,19551653,12
32-18,19555559,8
32-19,19559465,31
32-20,19563371,42
32-21,19567277,5
32-22,19571183,-34
32-23,19575089,-30
32-24,19578995,-7
32-25,19582901,-5
32-26,19586807,-23
32-27,19590713,-37
32-28,19594619,-13
32-29,19598525,-16
32-30,19602431,-113
32-31,19606337,-176
32-32,19610243,-126
32-1,19614149,-49
32-2,19618055,-6
32-3,19621961,-13
32-4,19625867,-43
32-5,19629773,-66
32-6,19633679,-66
32-7,19637585,-38
32-8,19641491,-26
32-9,19645397,-59
32-10,19649303,-76
32-11,19653209,-39
32-12,19657115,-39
32-13,19661021,-88
32-14,19664927,-93
32-15,19668833,-60
32-16,19672739,-27
32-17,19676645,-13
32-18,19680551,-19
32-19,19684457,-5
32-20,19688363,7
32-21,19692269,-12
32-22,19696175,-14
32-23,19700081,3
32-24,19703987,2
32-25,19707893,-15
32-26,19711799,-15
32-27,19715705,-10
32-28,19719611,-27
32-29,19723517,-54
32-30,19727423,-82
32-31,19731329,-83
32-32,19735235,-62
32-1,19739141,-93
32-2,19743047,-109
32-3,19746953,-54
32-4,19750859,-32
32-5,19754765,-35
32-6,19758671,-22
32-7,19762577,-17
32-8,19766483,-9
32-9,19770389,-9
32-10,19774295,-17
32-11,19778201,-11
32-12,19782107,-24
32-13,19786013,-36
32-14,19789919,-16
32-15,19793825,15
32-16,19797731,39
32-17,19801637,49
32-18,19805543,48
32-19,19809449,26
32-20,19813355,8
32-21,19817261,17
32-22,19821167,-3
32-23,19825073,-42
32-24,19828979,-23
32-25,19832885,37
32-26,19836791,9
32-27,19840697,-115
32-28,19844603,-133
32-29,19848509,-66
32-30,19852415,-112
32-31,19856321,-179
32-32,19860227,-146
32-1,19864133,-124
32-2,19868039,-192
32-3,19871945,-279
32-4,19875851,-270
32-5,19879757,-179
32-6,19883663,-124
32-7,19887569,-111
32-8,19891475,-88
32-9,19895381,-27
32-10,19899287,66
32-11,19903193,93
32-12,19907099,46
32-13,19911005,23
32-14,19914911,3
32-15,19918817,-26
32-16,19922723,3
32-17,19926629,60
32-18,19930535,94
32-19,19934441,110
32-20,19938347,100
32-21,19942253,71
32-22,19946159,47
32-23,19950065,12
32-24,19953971,-14
32-25,19957877,-33
32-26,19961783,-70
32-27,19965689,-111
32-28,19969595,-111
32-29,19973501,-65
32-30,19977407,-66
32-31,19981313,-89
32-32,19985219,-91
32-1,19989125,-173
32-2,19993031,-242
32-3,19996937,-190
32-4,20000843,-137
32-5,20004749,-112
32-6,20008655,-112
32-7,20012561,-117
32-8,20016467,-69
32-9,20020373,-41
32-10,20024279,-73
32-11,20028185,-95
32-12,20032091,-98
32-13,20035997,-111
32-14,20039903,-123
32-15,20043809,-102
32-16,20047715,-85
32-17,20051621,-99
32-18,20055527,-95
32-19,20059433,-69
32-20,20063339,-41
32-21,20067245,-30
32-22,20071151,-48
32-23,20075057,-24
32-24,20078963,-14
32-25,20082869,-78
32-26,20086775,-93
32-27,20090681,-71
32-28,20094587,-67
32-29,20098493,-73
32-30,20102399,-96
32-31,20106305,-110
32-32,20110211,-132
32-1,20114117,-122
32-2,20118023,-45
32-3,20121929,-18
32-4,20125835,-23
32-5,20129741,2
32-6,20133647,28
32-7,20137553,15
32-8,20141459,-56
32-9,20145365,-92
32-10,20149271,-48
32-11,20153177,1
32-12,20157083,19
32-13,20160989,35
32-14,20164895,56
32-15,20168801,54
32-16,20172707,42
32-17,20176613,31
32-18,20180519,2
32-19,20184425,-20
32-20,20188331,-41
32-21,20192237,-34
32-22,20196143,16
32-23,20200049,32
32-24,20203955,10
32-25,20207861,-2
32-26,20211767,24
32-27,20215673,24
32-28,20219579,-12
32-29,20223485,12
32-30,20227391,2
32-31,20231297,-79
32-32,20235203,-61
32-1,20239109,4
32-2,20243015,31
32-3,20246921,65
32-4,20250827,90
32-5,20254733,93
32-6,20258639,68
32-7,20262545,51
32-8,20266451,71
32-9,20270357,69
32-10,20274263,35
32-11,20278169,6
32-12,20282075,-1
32-13,20285981,-16
32-14,20289887,-52
32-15,20293793,-73
32-16,20297699,-72
32-17,20301605,-60
32-18,20305511,-53
32-19,20309417,-52
32-20,20313323,-24
32-21,20317229,-23
32-22,20321135,-65
32-23,20325041,-75
32-24,20328947,-49
32-25,20332853,3
32-26,20336759,33
32-27,20340665,26
32-28,20344571,62
32-29,20348477,37
32-30,20352383,-83
32-31,20356289,-107
32-32,20360195,-60
32-1,20364101,-70
32-2,20368007,-76
32-3,20371913,-27
32-4,20375819,-13
32-5,20379725,-92
32-6,20383631,-148
32-7,20387537,-100
32-8,20391443,-40
32-9,20395349,-10
32-10,20399255,13
32-11,20403161,22
32-12,20407067,27
32-13,20410973,19
32-14,20414879,-18
32-15,20418785,-29
32-16,20422691,11
32-17,20426597,44
32-18,20430503,40
32-19,20434409,60
32-20,20438315,105
32-21,20442221,87
32-22,20446127,55
32-23,20450033,54
32-24,20453939,14
32-25,20457845,-18
32-26,20461751,6
32-27,20465657,12
32-28,20469563,-1
32-29,20473469,19
32-30,20477375,33
32-31,20481281,26
32-32,20485187,36
32-1,20489093,38
32-2,20492999,38
32-3,20496905,17
32-4,20500811,-46
32-5,20504717,-81
32-6,20508623,-71
32-7,20512529,-37
32-8,20516435,-14
32-9,20520341,-51
32-10,20524247,-94
32-11,20528153,-112
32-12,20532059,-138
32-13,20535965,-142
32-14,20539871,-108
32-15,20543777,-91
32-16,20547683,-117
32-17,20551589,-133
32-18,20555495,-125
32-19,20559401,-114
32-20,20563307,-70
32-21,20567213,-12
32-22,20571119,0
32-23,20575025,-8
32-24,20578931,-1
32-25,20582837,5
32-26,20586743,-23
32-27,20590649,-78
32-28,20594555,-74
32-29,20598461,-31
32-30,20602367,-53
32-31,20606273,-111
32-32,20610179,-93
32-1,20614085,-8
32-2,20617991,-28
32-3,20621897,-156
32-4,20625803,-178
32-5,20629709,-106
32-6,20633615,-83
32-7,20637521,-83
32-8,20641427,-66
32-9,20645333,-53
32-10,20649239,-55
32-11,20653145,-35
32-12,20657051,-8
32-13,20660957,-9
32-14,20664863,-8
32-15,20668769,-5
32-16,20672675,-11
32-17,20676581,8
32-18,20680487,16
32-19,20684393,-29
32-20,20688299,-52
32-21,20692205,-19
32-22,20696111,-5
32-23,20700017,-29
32-24,20703923,-52
32-25,20707829,-40
32-26,20711735,-21
32-27,20715641,-32
32-28,20719547,-25
32-29,20723453,13
32-30,20727359,-16
32-31,20731265,-68
32-32,20735171,-75
32-1,20739077,-3680
32-2,20742983,4566
32-3,20746889,5010
32-4,20750795,4486
32-5,20754701,5085
32-6,20758607,394
32-7,20762513,-1170
32-8,20766419,4411
32-9,20770325,5820
32-10,20774231,4031
32-11,20778137,3514
32-12,20782043,4939
32-13,20785949,3817
32-14,20789855,-3543
32-15,20793761,-2755
32-16,20797667,4922
32-17,20801573,5273
32-18,20805479,3195
32-19,20809385,3485
32-20,20813291,4840
32-21,20817197,1727
32-22,20821103,-3091
32-23,20825009,953
32-24,20828915,5354
32-25,20832821,4321
32-26,20836727,2215
32-27,20840633,3818
32-28,20844539,5205
32-29,20848445,-13244
32-30,20852351,-32768
32-31,20856257,-25378
32-32,20860163,-8713
32-1,20864069,1064
32-2,20867975,5470
32-3,20871881,6156
32-4,20875787,4447
32-5,20879693,-540
32-6,20883599,549
32-7,20887505,5984
32-8,20891411,5810
32-9,20895317,4323
32-10,20899223,4407
32-11,20903129,5901
32-12,20907035,2790
32-13,20910941,-3263
32-14,20914847,735
32-15,20918753,6318
32-16,20922659,4994
32-17,20926565,3704
32-18,20930471,4500
32-19,20934377,5008
32-20,20938283,795
32-21,20942189,-1428
32-22,20946095,3875
32-23,20950001,5499
32-24,20953907,3757
32-25,20957813,3798
32-26,20961719,3503
32-27,20965625,4786
32-28,20969531,-2544
32-29,20973437,-22512
32-30,20977343,-31398
32-31,20981249,-19328
32-32,20985155,-4660
32-1,20989061,2579
32-2,20992967,7551
32-3,20996873,3157
32-4,21000779,-10052
32-5,21004685,-8423
32-6,21008591,4070
32-7,21012497,6754
32-8,21016403,4104
32-9,21020309,4597
32-10,21024215,5765
32-11,21028121,665
32-12,21032027,-3133
32-13,21035933,3205
32-14,21039839,6725
32-15,21043745,4551
32-16,21047651,4223
32-17,21051557,5142
32-18,21055463,4457
32-19,21059369,1205
32-20,21063275,2168
32-21,21067181,5487
32-22,21071087,4768
32-23,21074993,3470
32-24,21078899,3652
32-25,21082805,5131
32-26,21086711,1996
32-27,21090617,741
32-28,21094523,3817
32-29,21098429,-10384
32-30,21102335,-24505
32-31,21106241,-12929
32-32,21110147,1822
32-1,21114053,5244
32-2,21117959,2304
32-3,21121865,788
32-4,21125771,4379
32-5,21129677,4721
32-6,21133583,4078
32-7,21137489,3063
32-8,21141395,3618
32-9,21145301,6369
32-10,21149207,-9788
32-11,21153113,-32458
32-12,21157019,-32768
32-13,21160925,-30807
32-14,21164831,-31796
32-15,21168737,-25470
32-16,21172643,-11374
32-17,21176549,-4969
32-18,21180455,-11644
32-19,21184361,-10127
32-20,21188267,1151
32-21,21192173,7409
32-22,21196079,7884
32-23,21199985,6554
32-24,21203891,10404
32-25,21207797,2700
32-26,21211703,-23111
32-27,21215609,-30950
32-28,21219515,-29456
32-29,21223421,-29783
32-30,21227327,-29823
32-31,21231233,-29133
32-32,21235139,-28376
32-1,21239045,-27528
32-2,21242951,-28148
32-3,21246857,-28038
32-4,21250763,-27550
32-5,21254669,-27149
32-6,21258575,-27005
32-7,21262481,-26495
32-8,21266387,-24995
32-9,21270293,-24981
32-10,21274199,-25645
32-11,21278105,-25392
32-12,21282011,-24825
32-13,21285917,-23429
32-14,21289823,-20193
32-15,21293729,-12699
32-16,21297635,-11013
32-17,21301541,-19800
32-18,21305447,-23678
32-19,21309353,-21685
32-20,21313259,-20689
32-21,21317165,-19680
32-22,21321071,-15824
32-23,21324977,-9846
32-24,21328883,-11326
32-25,21332789,-18264
32-26,21336695,-19095
32-27,21340601,-17036
32-28,21344507,-16395
32-29,21348413,-16414
32-30,21352319,-15794
32-31,21356225,-13809
32-32,21360131,-13869
32-1,21364037,-14891
32-2,21367943,-14349
32-3,21371849,-13883
32-4,21375755,-13618
32-5,21379661,-13009
32-6,21383567,-11814
32-7,21387473,-10933
32-8,21391379,-11228
32-9,21395285,-11351
32-10,21399191,-10972
32-11,21403097,-10301
32-12,21407003,-9637
32-13,21410909,-8049
32-14,21414815,-5047
32-15,21418721,-5323
32-16,21422627,-8268
32-17,21426533,-8711
32-18,21430439,-7834
32-19,21434345,-7221
32-20,21438251,-6612
32-21,21442157,-3783
32-22,21446063,304
32-23,21449969,-2211
32-24,21453875,-6587
32-25,21457781,-5283
32-26,21461687,-3729
32-27,21465593,2755
32-28,21469499,12633
32-29,21473405,9524
32-30,21477311,-213
32-31,21481217,-3606
32-32,21485123,-4408
32-1,21489029,-4822
32-2,21492935,-3897
32-3,21496841,-3513
32-4,21500747,-1383
32-5,21504653,4185
32-6,21508559,4143
32-7,21512465,-2174
32-8,21516371,-4040
32-9,21520277,-2042
32-10,21524183,365
32-11,21528089,3403
32-12,21531995,12507
32-13,21535901,21757
32-14,21539807,11353
32-15,21543713,-3345
32-16,21547619,-2992
32-17,21551525,804
32-18,21555431,3823
32-19,21559337,10561
32-20,21563243,24267
32-21,21567149,27508
32-22,21571055,7672
32-23,21574961,-5256
32-24,21578867,-1440
32-25,21582773,1110
32-26,21586679,3273
32-27,21590585,13399
32-28,21594491,22269
32-29,21598397,11934
32-30,21602303,-2913
32-31,21606209,-3073
32-32,21610115,-1519
32-1,21614021,-2752
32-2,21617927,-2066
32-3,21621833,-1183
32-4,21625739,-65
32-5,21629645,-498
32-6,21633551,-1611
32-7,21637457,-1657
32-8,21641363,-1316
32-9,21645269,-820
32-10,21649175,-125
32-11,21653081,2362
32-12,21656987,3780
32-13,21660893,976
32-14,21664799,-1047
32-15,21668705,-511
32-16,21672611,-224
32-17,21676517,-38
32-18,21680423,989
32-19,21684329,2982
32-20,21688235,2977
32-21,21692141,694
32-22,21696047,57
32-23,21699953,530
32-24,21703859,623
32-25,21707765,882
32-26,21711671,1948
32-27,21715577,3240
32-28,21719483,2482
32-29,21723389,1092
32-30,21727295,1210
32-31,21731201,1381
32-32,21735107,1293
32-1,21739013,1488
32-2,21742919,1791
32-3,21746825,2036
32-4,21750731,1959
32-5,21754637,1922
32-6,21758543,2014
32-7,21762449,2093
32-8,21766355,2127
32-9,21770261,2157
32-10,21774167,3013
32-11,21778073,3559
32-12,21781979,2920
32-13,21785885,2399
32-14,21789791,2620
32-15,21793697,4077
32-16,21797603,5335
32-17,21801509,10276
32-18,21805415,17928
32-19,21809321,13268
32-20,21813227,2752
32-21,21817133,1752
32-22,21821039,4083
32-23,21824945,5310
32-24,21828851,8118
32-25,21832757,17000
32-26,21836663,22470
32-27,21840569,10839
32-28,21844475,640
32-29,21848381,2224
32-30,21852287,3198
32-31,21856193,2900
32-32,21860099,5712
32-1,21864005,13306
32-2,21867911,14616
32-3,21871817,4851
32-4,21875723,719
32-5,21879629,2642
32-6,21883535,1994
32-7,21887441,1705
32-8,21891347,2612
32-9,21895253,3627
32-10,21899159,3382
32-11,21903065,2191
32-12,21906971,1928
32-13,21910877,2322
32-14,21914783,3030
32-15,21918689,3848
32-16,21922595,7191
32-17,21926501,9692
32-18,21930407,5461
32-19,21934313,1535
32-20,21938219,2064
32-21,21942125,2592
32-22,21946031,2752
32-23,21949937,4068
32-24,21953843,7210
32-25,21957749,7601
32-26,21961655,3444
32-27,21965561,1668
32-28,21969467,2466
32-29,21973373,2360
32-30,21977279,2265
32-31,21981185,2482
32-32,21985091,2841
32-1,21988997,2871
32-2,21992903,2580
32-3,21996809,2593
32-4,22000715,2535
32-5,22004621,2417
32-6,22008527,2445
32-7,22012433,2484
32-8,22016339,2578
32-9,22020245,2746
32-10,22024151,2797
32-11,22028057,2713
32-12,22031963,2722
32-13,22035869,2754
32-14,22039775,2816
32-15,22043681,3049
32-16,22047587,3173
32-17,22051493,3083
32-18,22055399,3010
32-19,22059305,2979
32-20,22063211,2970
32-21,22067117,2983
32-22,22071023,2991
32-23,22074929,3053
32-24,22078835,3156
32-25,22082741,3203
32-26,22086647,3147
32-27,22090553,3030
32-28,22094459,3047
32-29,22098365,3176
32-30,22102271,3151
32-31,22106177,3096
32-32,22110083,3241
32-1,22113989,3352
32-2,22117895,3286
32-3,22121801,3216
32-4,22125707,3214
32-5,22129613,3211
32-6,22133519,3205
32-7,22137425,3298
32-8,22141331,3407
32-9,22145237,3372
32-10,22149143,3318
32-11,22153049,3317
32-12,22156955,3276
32-13,22160861,3287
32-14,22164767,3372
32-15,22168673,3423
32-16,22172579,3441
32-17,22176485,3387
32-18,22180391,3296
32-19,22184297,3241
32-20,22188203,3201
32-21,22192109,3203
32-22,22196015,3272
32-23,22199921,3376
32-24,22203827,3387
32-25,22207733,3292
32-26,22211639,3254
32-27,22215545,3254
32-28,22219451,3296
32-29,22223357,3362
32-30,22227263,3337
32-31,22231169,3390
32-32,22235075,3490
32-1,22238981,3383
32-2,22242887,3265
32-3,22246793,3320
32-4,22250699,3308
32-5,22254605,3216
32-6,22258511,3318
32-7,22262417,3460
32-8,22266323,3397
32-9,22270229,3297
32-10,22274135,3256
32-11,22278041,3244
32-12,22281947,3250
32-13,22285853,3259
32-14,22289759,3342
32-15,22293665,3393
32-16,22297571,3301
32-17,22301477,3199
32-18,22305383,3156
32-19,22309289,3136
32-20,22313195,3130
32-21,22317101,3219
32-22,22321007,3393
32-23,22324913,3407
32-24,22328819,3244
32-25,22332725,3138
32-26,22336631,3130
32-27,22340537,3089
32-28,22344443,3083
32-29,22348349,3228
32-30,22352255,3319
32-31,22356161,3262
32-32,22360067,3160
32-1,22363973,3072
32-2,22367879,3087
32-3,22371785,3069
32-4,22375691,3027
32-5,22379597,3136
32-6,22383503,3140
32-7,22387409,2989
32-8,22391315,2924
32-9,22395221,2892
32-10,22399127,2854
32-11,22403033,2821
32-12,22406939,2867
32-13,22410845,3030
32-14,22414751,3037
32-15,22418657,2905
32-16,22422563,2842
32-17,22426469,2817
32-18,22430375,2818
32-19,22434281,2814
32-20,22438187,2875
32-21,22442093,2958
32-22,22445999,2862
32-23,22449905,2747
32-24,22453811,2733
32-25,22457717,2725
32-26,22461623,2718
32-27,22465529,2700
32-28,22469435,2782
32-29,22473341,2922
32-30,22477247,2864
32-31,22481153,2702
32-32,22485059,2649
32-1,22488965,2626
32-2,22492871,2585
32-3,22496777,2612
32-4,22500683,2700
32-5,22504589,2731
32-6,22508495,2643
32-7,22512401,2523
32-8,22516307,2502
32-9,22520213,2517
32-10,22524119,2461
32-11,22528025,2497
32-12,22531931,2597
32-13,22535837,2530
32-14,22539743,2449
32-15,22543649,2452
32-16,22547555,2399
32-17,22551461,2322
32-18,22555367,2317
32-19,22559273,2419
32-20,22563179,2461
32-21,22567085,2341
32-22,22570991,2264
32-23,22574897,2247
32-24,22578803,2193
32-25,22582709,2144
32-26,22586615,2175
32-27,22590521,2281
32-28,22594427,2363
32-29,22598333,2351
32-30,22602239,2241
32-31,22606145,2155
32-32,22610051,2135
32-1,22613957,2093
32-2,22617863,2126
32-3,22621769,2214
32-4,22625675,2210
32-5,22629581,2123
32-6,22633487,2031
32-7,22637393,2047
32-8,22641299,2068
32-9,22645205,2006
32-10,22649111,2065
32-11,22653017,2134
32-12,22656923,2003
32-13,22660829,1898
32-14,22664735,1938
32-15,22668641,1968
32-16,22672547,1899
32-17,22676453,1868
32-18,22680359,2004
32-19,22684265,2017
32-20,22688171,1839
32-21,22692077,1798
32-22,22695983,1844
32-23,22699889,1821
32-24,22703795,1778
32-25,22707701,1846
32-26,22711607,1978
32-27,22715513,1877
32-28,22719419,1741
32-29,22723325,1804
32-30,22727231,1789
32-31,22731137,1680
32-32,22735043,1643
32-1,22738949,1697
32-2,22742855,1803
32-3,22746761,1816
32-4,22750667,1716
32-5,22754573,1633
32-6,22758479,1623
32-7,22762385,1624
32-8,22766291,1629
32-9,22770197,1690
32-10,22774103,1687
32-11,22778009,1589
32-12,22781915,1517
32-13,22785821,1498
32-14,22789727,1484
32-15,22793633,1420
32-16,22797539,1426
32-17,22801445,1542
32-18,22805351,1528
32-19,22809257,1421
32-20,22813163,1406
32-21,22817069,1397
32-22,22820975,1334
32-23,22824881,1311
32-24,22828787,1400
32-25,22832693,1480
32-26,22836599,1400
32-27,22840505,1277
32-28,22844411,1321
32-29,22848317,1434
32-30,22852223,1341
32-31,22856129,1223
32-32,22860035,1340
32-1,22863941,1451
32-2,22867847,1399
32-3,22871753,1286
32-4,22875659,1230
32-5,22879565,1254
32-6,22883471,1223
32-7,22887377,1241
32-8,22891283,1366
32-9,22895189,1340
32-10,22899095,1196
32-11,22903001,1151
32-12,22906907,1178
32-13,22910813,1153
32-14,22914719,1103
32-15,22918625,1146
32-16,22922531,1206
32-17,22926437,1137
32-18,22930343,1032
32-19,22934249,1010
32-20,22938155,1026
32-21,22942061,992
32-22,22945967,989
32-23,22949873,1109
32-24,22953779,1147
32-25,22957685,1050
32-26,22961591,1025
32-27,22965497,1019
32-28,22969403,1043
32-29,22973309,1144
32-30,22977215,1170
32-31,22981121,1176
32-32,22985027,1187
32-1,22988933,1100
32-2,22992839,1001
32-3,22996745,942
32-4,23000651,894
32-5,23004557,891
32-6,23008463,1001
32-7,23012369,1088
32-8,23016275,977
32-9,23020181,854
32-10,23024087,846
32-11,23027993,849
32-12,23031899,843
32-13,23035805,845
32-14,23039711,897
32-15,23043617,958
32-16,23047523,901
32-17,23051429,801
32-18,23055335,782
32-19,23059241,814
32-20,23063147,812
32-21,23067053,836
32-22,23070959,936
32-23,23074865,933
32-24,23078771,817
32-25,23082677,782
32-26,23086583,799
32-27,23090489,728
32-28,23094395,707
32-29,23098301,851
32-30,23102207,900
32-31,23106113,825
32-32,23110019,820
32-1,23113925,763
32-2,23117831,667
32-3,23121737,649
32-4,23125643,660
32-5,23129549,748
32-6,23133455,801
32-7,23137361,698
32-8,23141267,616
32-9,23145173,625
32-10,23149079,638
32-11,23152985,619
32-12,23156891,647
32-13,23160797,762
32-14,23164703,762
32-15,23168609,609
32-16,23172515,555
32-17,23176421,593
32-18,23180327,576
32-19,23184233,548
32-20,23188139,615
32-21,23192045,691
32-22,23195951,630
32-23,23199857,529
32-24,23203763,500
32-25,23207669,509
32-26,23211575,522
32-27,23215481,535
32-28,23219387,601
32-29,23223293,690
32-30,23227199,665
32-31,23231105,553
32-32,23235011,508
32-1,23238917,549
32-2,23242823,556
32-3,23246729,548
32-4,23250635,596
32-5,23254541,630
32-6,23258447,613
32-7,23262353,544
32-8,23266259,460
32-9,23270165,430
32-10,23274071,410
32-11,23277977,460
32-12,23281883,587
32-13,23285789,570
32-14,23289695,437
32-15,23293601,386
32-16,23297507,393
32-17,23301413,399
32-18,23305319,421
32-19,23309225,473
32-20,23313131,515
32-21,23317037,462
32-22,23320943,369
32-23,23324849,363
32-24,23328755,398
32-25,23332661,387
32-26,23336567,411
32-27,23340473,499
32-28,23344379,542
32-29,23348285,535
32-30,23352191,466
32-31,23356097,362
32-32,23360003,357
32-1,23363909,382
32-2,23367815,423
32-3,23371721,560
32-4,23375627,598
32-5,23379533,491
32-6,23383439,429
32-7,23387345,430
32-8,23391251,426
32-9,23395157,436
32-10,23399063,506
32-11,23402969,574
32-12,23406875,550
32-13,23410781,496
32-14,23414687,466
32-15,23418593,423
32-16,23422499,381
32-17,23426405,415
32-18,23430311,501
32-19,23434217,522
32-20,23438123,429
32-21,23442029,338
32-22,23445935,356
32-23,23449841,378
32-24,23453747,320
32-25,23457653,350
32-26,23461559,439
32-27,23465465,377
32-28,23469371,327
32-29,23473277,405
32-30,23477183,336
32-31,23481089,170
32-32,23484995,167
32-1,23488901,275
32-2,23492807,347
32-3,23496713,321
32-4,23500619,260
32-5,23504525,243
32-6,23508431,208
32-7,23512337,159
32-8,23516243,191
32-9,23520149,268
32-10,23524055,289
32-11,23527961,256
32-12,23531867,209
32-13,23535773,184
32-14,23539679,195
32-15,23543585,196
32-16,23547491,230
32-17,23551397,322
32-18,23555303,345
32-19,23559209,267
32-20,23563115,166
32-21,23567021,145
32-22,23570927,187
32-23,23574833,191
32-24,23578739,247
32-25,23582645,342
32-26,23586551,311
32-27,23590457,185
32-28,23594363,217
32-29,23598269,376
32-30,23602175,313
32-31,23606081,200
32-32,23609987,306
32-1,23613893,351
32-2,23617799,289
32-3,23621705,272
32-4,23625611,252
32-5,23629517,212
32-6,23633423,200
32-7,23637329,287
32-8,23641235,373
32-9,23645141,343
32-10,23649047,269
32-11,23652953,187
32-12,23656859,147
32-13,23660765,176
32-14,23664671,216
32-15,23668577,284
32-16,23672483,343
32-17,23676389,316
32-18,23680295,228
32-19,23684201,143
32-20,23688107,131
32-21,23692013,165
32-22,23695919,207
32-23,23699825,281
32-24,23703731,297
32-25,23707637,235
32-26,23711543,170
32-27,23715449,98
32-28,23719355,133
32-29,23723261,288
32-30,23727167,317
32-31,23731073,234
32-32,23734979,233
32-1,23738885,274
32-2,23742791,259
32-3,23746697,229
32-4,23750603,185
32-5,23754509,149
32-6,23758415,233
32-7,23762321,314
32-8,23766227,267
32-9,23770133,217
32-10,23774039,165
32-11,23777945,77
32-12,23781851,26
32-13,23785757,54
32-14,23789663,152
32-15,23793569,210
32-16,23797475,218
32-17,23801381,217
32-18,23805287,159
32-19,23809193,91
32-20,23813099,41
32-21,23817005,51
32-22,23820911,141
32-23,23824817,177
32-24,23828723,118
32-25,23832629,45
32-26,23836535,21
32-27,23840441,19
32-28,23844347,57
32-29,23848253,167
32-30,23852159,212
32-31,23856065,196
32-32,23859971,207
32-1,23863877,165
32-2,23867783,86
32-3,23871689,4
32-4,23875595,-25
32-5,23879501,57
32-6,23883407,85
32-7,23887313,23
32-8,23891219,5
32-9,23895125,14
32-10,23899031,-12
32-11,23902937,-39
32-12,23906843,18
32-13,23910749,130
32-14,23914655,170
32-15,23918561,131
32-16,23922467,78
32-17,23926373,45
32-18,23930279,18
32-19,23934185,-10
32-20,23938091,38
32-21,23941997,104
32-22,23945903,84
32-23,23949809,42
32-24,23953715,8
32-25,23957621,-10
32-26,23961527,-2
32-27,23965433,7
32-28,23969339,105
32-29,23973245,251
32-30,23977151,237
32-31,23981057,129
32-32,23984963,75
32-1,23988869,16
32-2,23992775,-51
32-3,23996681,-4
32-4,24000587,118
32-5,24004493,161
32-6,24008399,130
32-7,24012305,120
32-8,24016211,101
32-9,24020117,36
32-10,24024023,-2
32-11,24027929,55
32-12,24031835,134
32-13,24035741,136
32-14,24039647,91
32-15,24043553,52
32-16,24047459,17
32-17,24051365,-31
32-18,24055271,-31
32-19,24059177,87
32-20,24063083,192
32-21,24066989,180
32-22,24070895,129
32-23,24074801,71
32-24,24078707,-3
32-25,24082613,-50
32-26,24086519,-18
32-27,24090425,60
32-28,24094331,94
32-29,24098237,94
32-30,24102143,63
32-31,24106049,6
32-32,24109955,-31
32-1,24113861,-45
32-2,24117767,30
32-3,24121673,132
32-4,24125579,138
32-5,24129485,119
32-6,24133391,105
32-7,24137297,81
32-8,24141203,65
32-9,24145109,54
32-10,24149015,87
32-11,24152921,128
32-12,24156827,106
32-13,24160733,54
32-14,24164639,21
32-15,24168545,-1
32-16,24172451,-46
32-17,24176357,-42
32-18,24180263,46
32-19,24184169,97
32-20,24188075,81
32-21,24191981,76
32-22,24195887,61
32-23,24199793,3
32-24,24203699,-41
32-25,24207605,23
32-26,24211511,140
32-27,24215417,138
32-28,24219323,91
32-29,24223229,144
32-30,24227135,160
32-31,24231041,79
32-32,24234947,42
32-1,24238853,79
32-2,24242759,134
32-3,24246665,168
32-4,24250571,182
32-5,24254477,185
32-6,24258383,142
32-7,24262289,70
32-8,24266195,47
32-9,24270101,92
32-10,24274007,116
32-11,24277913,89
32-12,24281819,62
32-13,24285725,48
32-14,24289631,19
32-15,24293537,-61
32-16,24297443,-66
32-17,24301349,55
32-18,24305255,89
32-19,24309161,19
32-20,24313067,-10
32-21,24316973,-22
32-22,24320879,-76
32-23,24324785,-107
32-24,24328691,-24
32-25,24332597,42
32-26,24336503,-1
32-27,24340409,-35
32-28,24344315,13
32-29,24348221,102
32-30,24352127,95
32-31,24356033,36
32-32,24359939,115
32-1,24363845,179
32-2,24367751,103
32-3,24371657,71
32-4,24375563,115
32-5,24379469,108
32-6,24383375,64
32-7,24387281,85
32-8,24391187,152
32-9,24395093,150
32-10,24398999,89
32-11,24402905,44
32-12,24406811,48
32-13,24410717,81
32-14,24414623,73
32-15,24418529,74
32-16,24422435,131
32-17,24426341,147
32-18,24430247,114
32-19,24434153,101
32-20,24438059,84
32-21,24441965,23
32-22,24445871,-2
32-23,24449777,57
32-24,24453683,73
32-25,24457589,26
32-26,24461495,6
32-27,24465401,-26
32-28,24469307,0
32-29,24473213,91
32-30,24477119,65
32-31,24481025,26
32-32,24484931,79
32-1,24488837,76
32-2,24492743,36
32-3,24496649,32
32-4,24500555,14
32-5,24504461,-10
32-6,24508367,10
32-7,24512273,32
32-8,24516179,-5
32-9,24520085,-14
32-10,24523991,36
32-11,24527897,41
32-12,24531803,-10
32-13,24535709,-17
32-14,24539615,20
32-15,24543521,25
32-16,24547427,23
32-17,24551333,30
32-18,24555239,14
32-19,24559145,-21
32-20,24563051,-64
32-21,24566957,-36
32-22,24570863,44
32-23,24574769,45
32-24,24578675,1
32-25,24582581,5
32-26,24586487,22
32-27,24590393,-28
32-28,24594299,-44
32-29,24598205,69
32-30,24602111,96
32-31,24606017,9
32-32,24609923,-5
32-1,24613829,-6
32-2,24617735,-44
32-3,24621641,-61
32-4,24625547,-60
32-5,24629453,-32
32-6,24633359,3
32-7,24637265,-9
32-8,24641171,-39
32-9,24645077,-42
32-10,24648983,-44
32-11,24652889,-77
32-12,24656795,-71
32-13,24660701,8
32-14,24664607,60
32-15,24668513,20
32-16,24672419,-24
32-17,24676325,-37
32-18,24680231,-75
32-19,24684137,-103
32-20,24688043,-50
32-21,24691949,-10
32-22,24695855,-54
32-23,24699761,-73
32-24,24703667,-39
32-25,24707573,-37
32-26,24711479,-57
32-27,24715385,-56
32-28,24719291,4
32-29,24723197,92
32-30,24727103,78
32-31,24731009,6
32-32,24734915,-14
32-1,24738821,-15
32-2,24742727,-27
32-3,24746633,-44
32-4,24750539,-32
32-5,24754445,-8
32-6,24758351,-26
32-7,24762257,-52
32-8,24766163,-78
32-9,24770069,-117
32-10,24773975,-117
32-11,24777881,-77
32-12,24781787,-33
32-13,24785693,-10
32-14,24789599,-11
32-15,24793505,-19
32-16,24797411,-38
32-17,24801317,-81
32-18,24805223,-119
32-19,24809129,-82
32-20,24813035,-8
32-21,24816941,17
32-22,24820847,-8
32-23,24824753,-51
32-24,24828659,-77
32-25,24832565,-95
32-26,24836471,-90
32-27,24840377,-38
32-28,24844283,3
32-29,24848189,0
32-30,24852095,-22
32-31,24856001,-28
32-32,24859907,-39
32-1,24863813,-64
32-2,24867719,-41
32-3,24871625,-21
32-4,24875531,-66
32-5,24879437,-117
32-6,24883343,-138
32-7,24887249,-105
32-8,24891155,-74
32-9,24895061,-66
32-10,24898967,-27
32-11,24902873,-39
32-12,24906779,-99
32-13,24910685,-107
32-14,24914591,-117
32-15,24918497,-145
32-16,24922403,-146
32-17,24926309,-128
32-18,24930215,-80
32-19,24934121,-27
32-20,24938027,-25
32-21,24941933,-64
32-22,24945839,-60
32-23,24949745,-26
32-24,24953651,-40
32-25,24957557,-28
32-26,24961463,22
32-27,24965369,-1
32-28,24969275,-27
32-29,24973181,24
32-30,24977087,33
32-31,24980993,-10
32-32,24984899,-15
32-1,24988805,-17
32-2,24992711,-29
32-3,24996617,-9
32-4,25000523,22
32-5,25004429,28
32-6,25008335,22
32-7,25012241,14
32-8,25016147,9
32-9,25020053,28
32-10,25023959,39
32-11,25027865,28
32-12,25031771,40
32-13,25035677,47
32-14,25039583,21
32-15,25043489,-10
32-16,25047395,-16
32-17,25051301,-6
32-18,25055207,-34
32-19,25059113,-75
32-20,25063019,-81
32-21,25066925,-69
32-22,25070831,-49
32-23,25074737,-19
32-24,25078643,25
32-25,25082549,61
32-26,25086455,53
32-27,25090361,24
32-28,25094267,12
32-29,25098173,3
32-30,25102079,-45
32-31,25105985,-75
32-32,25109891,-23
32-1,25113797,-3
32-2,25117703,-70
32-3,25121609,-114
32-4,25125515,-104
32-5,25129421,-78
32-6,25133327,-54
32-7,25137233,-38
32-8,25141139,-18
32-9,25145045,12
32-10,25148951,27
32-11,25152857,23
32-12,25156763,14
32-13,25160669,-11
32-14,25164575,-63
32-15,25168481,-71
32-16,25172387,-20
32-17,25176293,9
32-18,25180199,0
32-19,25184105,-5
32-20,25188011,-11
32-21,25191917,-22
32-22,25195823,-20
32-23,25199729,-21
32-24,25203635,-25
32-25,25207541,-5
32-26,25211447,-1
32-27,25215353,-24
32-28,25219259,13
32-29,25223165,60
32-30,25227071,16
32-31,25230977,-10
32-32,25234883,12
32-1,25238789,-5
32-2,25242695,-17
32-3,25246601,-17
32-4,25250507,-51
32-5,25254413,-44
32-6,25258319,12
32-7,25262225,11
32-8,25266131,-43
32-9,25270037,-54
32-10,25273943,-39
32-11,25277849,-28
32-12,25281755,-20
32-13,25285661,-35
32-14,25289567,-47
32-15,25293473,-24
32-16,25297379,-10
32-17,25301285,-29
32-18,25305191,-58
32-19,25309097,-84
32-20,25313003,-131
32-21,25316909,-129
32-22,25320815,-36
32-23,25324721,37
32-24,25328627,34
32-25,25332533,4
32-26,25336439,-26
32-27,25340345,-64
32-28,25344251,-34
32-29,25348157,86
32-30,25352063,94
32-31,25355969,-25
32-32,25359875,-56
32-1,25363781,-22
32-2,25367687,-23
32-3,25371593,-31
32-4,25375499,-29
32-5,25379405,6
32-6,25383311,57
32-7,25387217,54
32-8,25391123,18
32-9,25395029,1
32-10,25398935,-30
32-11,25402841,-58
32-12,25406747,-38
32-13,25410653,-49
32-14,25414559,-147
32-15,25418465,-207
32-16,25422371,-158
32-17,25426277,-116
32-18,25430183,-138
32-19,25434089,-148
32-20,25437995,-120
32-21,25441901,-79
32-22,25445807,-46
32-23,25449713,-55
32-24,25453619,-94
32-25,25457525,-113
32-26,25461431,-107
32-27,25465337,-110
32-28,25469243,-80
32-29,25473149,-22
32-30,25477055,-38
32-31,25480961,-56
32-32,25484867,-23
32-1,25488773,-7
32-2,25492679,-10
32-3,25496585,-1
32-4,25500491,63
32-5,25504397,137
32-6,25508303,113
32-7,25512209,56
32-8,25516115,32
32-9,25520021,18
32-10,25523927,29
32-11,25527833,26
32-12,25531739,-28
32-13,25535645,-66
32-14,25539551,-35
32-15,25543457,-5
32-16,25547363,-12
32-17,25551269,-31
32-18,25555175,-38
32-19,25559081,13
32-20,25562987,60
32-21,25566893,39
32-22,25570799,19
32-23,25574705,23
32-24,25578611,-5
32-25,25582517,-42
32-26,25586423,-17
32-27,25590329,25
32-28,25594235,34
32-29,25598141,52
32-30,25602047,26
32-31,25605953,-32
32-32,25609859,-45
32-1,25613765,-69
32-2,25617671,-74
32-3,25621577,-9
32-4,25625483,38
32-5,25629389,43
32-6,25633295,24
32-7,25637201,1
32-8,25641107,6
32-9,25645013,11
32-10,25648919,10
32-11,25652825,6
32-12,25656731,-30
32-13,25660637,-38
32-14,25664543,-8
32-15,25668449,2
32-16,25672355,-17
32-17,25676261,-29
32-18,25680167,-6
32-19,25684073,11
32-20,25687979,1
32-21,25691885,18
32-22,25695791,46
32-23,25699697,57
32-24,25703603,35
32-25,25707509,-8
32-26,25711415,-29
32-27,25715321,-71
32-28,25719227,-98
32-29,25723133,-42
32-30,25727039,-34
32-31,25730945,-96
32-32,25734851,-102
32-1,25738757,-83
32-2,25742663,-63
32-3,25746569,-13
32-4,25750475,21
32-5,25754381,24
32-6,25758287,39
32-7,25762193,48
32-8,25766099,29
32-9,25770005,53
32-10,25773911,101
32-11,25777817,84
32-12,25781723,44
32-13,25785629,23
32-14,25789535,16
32-15,25793441,9
32-16,25797347,-9
32-17,25801253,-9
32-18,25805159,-9
32-19,25809065,-21
32-20,25812971,-39
32-21,25816877,-72
32-22,25820783,-76
32-23,25824689,-46
32-24,25828595,-33
32-25,25832501,-35
32-26,25836407,-23
32-27,25840313,-3
32-28,25844219,28
32-29,25848125,48
32-30,25852031,10
32-31,25855937,-6
32-32,25859843,41
32-1,25863749,59
32-2,25867655,29
32-3,25871561,4
32-4,25875467,15
32-5,25879373,38
32-6,25883279,28
32-7,25887185,14
32-8,25891091,19
32-9,25894997,18
32-10,25898903,-9
32-11,25902809,-36
32-12,25906715,-32
32-13,25910621,-15
32-14,25914527,-6
32-15,25918433,-14
32-16,25922339,-39
32-17,25926245,-64
32-18,25930151,-57
32-19,25934057,-25
32-20,25937963,-25
32-21,25941869,-55
32-22,25945775,-48
32-23,25949681,-50
32-24,25953587,-115
32-25,25957493,-141
32-26,25961399,-72
32-27,25965305,-20
32-28,25969211,15
32-29,25973117,61
32-30,25977023,27
32-31,25980929,-2
32-32,25984835,42
32-1,25988741,21
32-2,25992647,-34
32-3,25996553,2
32-4,26000459,74
32-5,26004365,95
32-6,26008271,61
32-7,26012177,3
32-8,26016083,-14
32-9,26019989,18
32-10,26023895,21
32-11,26027801,9
32-12,26031707,7
32-13,26035613,5
32-14,26039519,25
32-15,26043425,29
32-16,26047331,10
32-17,26051237,14
32-18,26055143,21
32-19,26059049,22
32-20,26062955,14
32-21,26066861,8
32-22,26070767,30
32-23,26074673,23
32-24,26078579,-9
32-25,26082485,-1
32-26,26086391,-1
32-27,26090297,-52
32-28,26094203,-43
32-29,26098109,38
32-30,26102015,35
32-31,26105921,-41
32-32,26109827,-51
32-1,26113733,0
32-2,26117639,34
32-3,26121545,32
32-4,26125451,36
32-5,26129357,60
32-6,26133263,38
32-7,26137169,-27
32-8,26141075,-33
32-9,26144981,0
32-10,26148887,4
32-11,26152793,23
32-12,26156699,71
32-13,26160605,130
32-14,26164511,172
32-15,26168417,138
32-16,26172323,92
32-17,26176229,95
32-18,26180135,89
32-19,26184041,57
32-20,26187947,54
32-21,26191853,51
32-22,26195759,21
32-23,26199665,29
32-24,26203571,58
32-25,26207477,73
32-26,26211383,89
32-27,26215289,71
32-28,26219195,65
32-29,26223101,99
32-30,26227007,75
32-31,26230913,10
32-32,26234819,-4
32-1,26238725,20
32-2,26242631,24
32-3,26246537,8
32-4,26250443,21
32-5,26254349,31
32-6,26258255,-1
32-7,26262161,-17
32-8,26266067,-16
32-9,26269973,-46
32-10,26273879,-78
32-11,26277785,-67
32-12,26281691,-79
32-13,26285597,-138
32-14,26289503,-145
32-15,26293409,-111
32-16,26297315,-104
32-17,26301221,-79
32-18,26305127,-48
32-19,26309033,-43
32-20,26312939,-31
32-21,26316845,-23
32-22,26320751,-41
32-23,26324657,-49
32-24,26328563,-34
32-25,26332469,-27
32-26,26336375,-32
32-27,26340281,-19
32-28,26344187,22
32-29,26348093,35
32-30,26351999,-20
32-31,26355905,-61
32-32,26359811,-41
32-1,26363717,-38
32-2,26367623,-40
32-3,26371529,-12
32-4,26375435,2
32-5,26379341,-4
32-6,26383247,-17
32-7,26387153,-18
32-8,26391059,-9
32-9,26394965,-24
32-10,26398871,-10
32-11,26402777,16
32-12,26406683,-12
32-13,26410589,-26
32-14,26414495,-27
32-15,26418401,-21
32-16,26422307,35
32-17,26426213,66
32-18,26430119,50
32-19,26434025,45
32-20,26437931,32
32-21,26441837,20
32-22,26445743,38
32-23,26449649,50
32-24,26453555,42
32-25,26457461,21
32-26,26461367,-21
32-27,26465273,-55
32-28,26469179,-32
32-29,26473085,-5
32-30,26476991,-36
32-31,26480897,-46
32-32,26484803,-10
32-1,26488709,-8
32-2,26492615,-16
32-3,26496521,6
32-4,26500427,-2
32-5,26504333,-35
32-6,26508239,-32
32-7,26512145,-27
32-8,26516051,-46
32-9,26519957,-70
32-10,26523863,-82
32-11,26527769,-78
32-12,26531675,-83
32-13,26535581,-80
32-14,26539487,-50
32-15,26543393,-34
32-16,26547299,-13
32-17,26551205,32
32-18,26555111,31
32-19,26559017,-14
32-20,26562923,-35
32-21,26566829,-44
32-22,26570735,-51
32-23,26574641,-33
32-24,26578547,-3
32-25,26582453,38
32-26,26586359,48
32-27,26590265,-17
32-28,26594171,-41
32-29,26598077,-5
32-30,26601983,-18
32-31,26605889,-37
32-32,26609795,-16
32-1,26613701,-22
32-2,26617607,-57
32-3,26621513,-53
32-4,26625419,-19
32-5,26629325,-18
32-6,26633231,-27
32-7,26637137,-31
32-8,26641043,-65
32-9,26644949,-88
32-10,26648855,-82
32-11,26652761,-83
32-12,26656667,-74
32-13,26660573,-50
32-14,26664479,-52
32-15,26668385,-29
32-16,26672291,20
32-17,26676197,-4
32-18,26680103,-61
32-19,26684009,-77
32-20,26687915,-87
32-21,26691821,-76
32-22,26695727,-44
32-23,26699633,-56
32-24,26703539,-106
32-25,26707445,-123
32-26,26711351,-90
32-27,26715257,-57
32-28,26719163,-25
32-29,26723069,-7
32-30,26726975,-23
32-31,26730881,-53
32-32,26734787,-119
32-1,26738693,-169
32-2,26742599,-150
32-3,26746505,-119
32-4,26750411,-98
32-5,26754317,-91
32-6,26758223,-81
32-7,26762129,-64
32-8,26766035,-94
32-9,26769941,-119
32-10,26773847,-110
32-11,26777753,-105
32-12,26781659,-98
32-13,26785565,-64
32-14,26789471,-33
32-15,26793377,-74
32-16,26797283,-130
32-17,26801189,-130
32-18,26805095,-119
32-19,26809001,-106
32-20,26812907,-76
32-21,26816813,-35
32-22,26820719,22
32-23,26824625,54
32-24,26828531,37
32-25,26832437,16
32-26,26836343,32
32-27,26840249,39
32-28,26844155,38
32-29,26848061,70
32-30,26851967,28
32-31,26855873,-75
32-32,26859779,-74
32-1,26863685,-16
32-2,26867591,18
32-3,26871497,47
32-4,26875403,71
32-5,26879309,107
32-6,26883215,140
32-7,26887121,122
32-8,26891027,83
32-9,26894933,60
32-10,26898839,18
32-11,26902745,-26
32-12,26906651,-24
32-13,26910557,-11
32-14,26914463,-37
32-15,26918369,-96
32-16,26922275,-110
32-17,26926181,-69
32-18,26930087,-59
32-19,26933993,-53
32-20,26937899,-13
32-21,26941805,16
32-22,26945711,15
32-23,26949617,-27
32-24,26953523,-49
32-25,26957429,-25
32-26,26961335,-44
32-27,26965241,-82
32-28,26969147,-44
32-29,26973053,15
32-30,26976959,-10
32-31,26980865,-25
32-32,26984771,15
32-1,26988677,-18
32-2,26992583,-63
32-3,26996489,-31
32-4,27000395,20
32-5,27004301,53
32-6,27008207,56
32-7,27012113,32
32-8,27016019,0
32-9,27019925,-11
32-10,27023831,-1
32-11,27027737,6
32-12,27031643,32
32-13,27035549,46
32-14,27039455,24
32-15,27043361,15
32-16,27047267,21
32-17,27051173,22
32-18,27055079,20
32-19,27058985,18
32-20,27062891,-15
32-21,27066797,-74
32-22,27070703,-88
32-23,27074609,-79
32-24,27078515,-94
32-25,27082421,-101
32-26,27086327,-79
32-27,27090233,-65
32-28,27094139,-45
32-29,27098045,-17
32-30,27101951,-41
32-31,27105857,-59
32-32,27109763,0
32-1,27113669,37
32-2,27117575,34
32-3,27121481,51
32-4,27125387,50
32-5,27129293,6
32-6,27133199,-18
32-7,27137105,-13
32-8,27141011,-12
32-9,27144917,13
32-10,27148823,22
32-11,27152729,-9
32-12,27156635,-44
32-13,27160541,-78
32-14,27164447,-64
32-15,27168353,-26
32-16,27172259,-25
32-17,27176165,-12
32-18,27180071,0
32-19,27183977,-46
32-20,27187883,-71
32-21,27191789,-43
32-22,27195695,-49
32-23,27199601,-47
32-24,27203507,-2
32-25,27207413,-1
32-26,27211319,-11
32-27,27215225,7
32-28,27219131,13
32-29,27223037,8
32-30,27226943,-17
32-31,27230849,-39
32-32,27234755,-21
32-1,27238661,-22
32-2,27242567,-52
32-3,27246473,-70
32-4,27250379,-74
32-5,27254285,-78
32-6,27258191,-64
32-7,27262097,-57
32-8,27266003,-65
32-9,27269909,-52
32-10,27273815,-53
32-11,27277721,-72
32-12,27281627,-52
32-13,27285533,-21
32-14,27289439,-26
32-15,27293345,-26
32-16,27297251,7
32-17,27301157,25
32-18,27305063,20
32-19,27308969,3
32-20,27312875,-21
32-21,27316781,-23
32-22,27320687,-19
32-23,27324593,-5
32-24,27328499,27
32-25,27332405,28
32-26,27336311,22
32-27,27340217,17
32-28,27344123,19
32-29,27348029,52
32-30,27351935,43
32-31,27355841,15
32-32,27359747,25
32-1,27363653,-19
32-2,27367559,-74
32-3,27371465,-81
32-4,27375371,-94
32-5,27379277,-77
32-6,27383183,-41
32-7,27387089,-10
32-8,27390995,41
32-9,27394901,38
32-10,27398807,-17
32-11,27402713,-43
32-12,27406619,-19
32-13,27410525,5
32-14,27414431,1
32-15,27418337,2
32-16,27422243,-6
32-17,27426149,-48
32-18,27430055,-76
32-19,27433961,-84
32-20,27437867,-73
32-21,27441773,-44
32-22,27445679,-22
32-23,27449585,16
32-24,27453491,45
32-25,27457397,40
32-26,27461303,40
32-27,27465209,22
32-28,27469115,11
32-29,27473021,42
32-30,27476927,69
32-31,27480833,56
32-32,27484739,19
32-1,27488645,4
32-2,27492551,-13
32-3,27496457,-48
32-4,27500363,-36
32-5,27504269,-36
32-6,27508175,-54
32-7,27512081,-34
32-8,27515987,-43
32-9,27519893,-60
32-10,27523799,-36
32-11,27527705,-16
32-12,27531611,-23
32-13,27535517,-29
32-14,27539423,-17
32-15,27543329,-15
32-16,27547235,-11
32-17,27551141,16
32-18,27555047,20
32-19,27558953,4
32-20,27562859,-11
32-21,27566765,-28
32-22,27570671,-55
32-23,27574577,-127
32-24,27578483,-192
32-25,27582389,-173
32-26,27586295,-106
32-27,27590201,-106
32-28,27594107,-115
32-29,27598013,-12
32-30,27601919,-11
32-31,27605825,-130
32-32,27609731,-119
32-1,27613637,-62
32-2,27617543,-29
32-3,27621449,20
32-4,27625355,35
32-5,27629261,63
32-6,27633167,87
32-7,27637073,60
32-8,27640979,33
32-9,27644885,18
32-10,27648791,5
32-11,27652697,0
32-12,27656603,-2
32-13,27660509,-11
32-14,27664415,-34
32-15,27668321,-40
32-16,27672227,-16
32-17,27676133,-12
32-18,27680039,-25
32-19,27683945,-37
32-20,27687851,-50
32-21,27691757,-17
32-22,27695663,34
32-23,27699569,33
32-24,27703475,-8
32-25,27707381,-40
32-26,27711287,-46
32-27,27715193,-37
32-28,27719099,8
32-29,27723005,59
32-30,27726911,38
32-31,27730817,2
32-32,27734723,13
32-1,27738629,12
32-2,27742535,-24
32-3,27746441,-29
32-4,27750347,25
32-5,27754253,81
32-6,27758159,77
32-7,27762065,12
32-8,27765971,-44
32-9,27769877,-61
32-10,27773783,-74
32-11,27777689,-62
32-12,27781595,-17
32-13,27785501,-16
32-14,27789407,-23
32-15,27793313,12
32-16,27797219,28
32-17,27801125,19
32-18,27805031,6
32-19,27808937,43
32-20,27812843,120
32-21,27816749,93
32-22,27820655,30
32-23,27824561,53
32-24,27828467,50
32-25,27832373,-5
32-26,27836279,-11
32-27,27840185,14
32-28,27844091,29
32-29,27847997,35
32-30,27851903,8
32-31,27855809,-38
32-32,27859715,-60
32-1,27863621,-57
32-2,27867527,-38
32-3,27871433,-48
32-4,27875339,-77
32-5,27879245,-43
32-6,27883151,-20
32-7,27887057,-45
32-8,27890963,-6
32-9,27894869,33
32-10,27898775,0
32-11,27902681,-25
32-12,27906587,-46
32-13,27910493,-82
32-14,27914399,-75
32-15,27918305,-48
32-16,27922211,-58
32-17,27926117,-50
32-18,27930023,4
32-19,27933929,7
32-20,27937835,-35
32-21,27941741,-45
32-22,27945647,-50
32-23,27949553,-43
32-24,27953459,-27
32-25,27957365,-2
32-26,27961271,54
32-27,27965177,24
32-28,27969083,-61
32-29,27972989,-66
32-30,27976895,-81
32-31,27980801,-124
32-32,27984707,-114
32-1,27988613,-106
32-2,27992519,-129
32-3,27996425,-152
32-4,28000331,-149
32-5,28004237,-131
32-6,28008143,-104
32-7,28012049,-53
32-8,28015955,-31
32-9,28019861,-41
32-10,28023767,-26
32-11,28027673,8
32-12,28031579,25
32-13,28035485,11
32-14,28039391,-16
32-15,28043297,-31
32-16,28047203,-32
32-17,28051109,-35
32-18,28055015,-49
32-19,28058921,-29
32-20,28062827,9
32-21,28066733,-6
32-22,28070639,-28
32-23,28074545,-22
32-24,28078451,-31
32-25,28082357,-44
32-26,28086263,-52
32-27,28090169,-64
32-28,28094075,-34
32-29,28097981,15
32-30,28101887,12
32-31,28105793,15
32-32,28109699,6
32-1,28113605,-125
32-2,28117511,-226
32-3,28121417,-156
32-4,28125323,-70
32-5,28129229,-54
32-6,28133135,-48
32-7,28137041,-26
32-8,28140947,-9
32-9,28144853,-15
32-10,28148759,-19
32-11,28152665,-6
32-12,28156571,7
32-13,28160477,-10
32-14,28164383,-48
32-15,28168289,-29
32-16,28172195,22
32-17,28176101,41
32-18,28180007,48
32-19,28183913,36
32-20,28187819,11
32-21,28191725,0
32-22,28195631,-17
32-23,28199537,-14
32-24,28203443,19
32-25,28207349,28
32-26,28211255,11
32-27,28215161,-15
32-28,28219067,1
32-29,28222973,56
32-30,28226879,28
32-31,28230785,-47
32-32,28234691,-65
32-1,28238597,-62
32-2,28242503,-58
32-3,28246409,-36
32-4,28250315,-26
32-5,28254221,-30
32-6,28258127,-19
32-7,28262033,-45
32-8,28265939,-130
32-9,28269845,-162
32-10,28273751,-123
32-11,28277657,-90
32-12,28281563,-79
32-13,28285469,-66
32-14,28289375,-63
32-15,28293281,-94
32-16,28297187,-104
32-17,28301093,-62
32-18,28304999,-43
32-19,28308905,-37
32-20,28312811,-11
32-21,28316717,0
32-22,28320623,1
32-23,28324529,29
32-24,28328435,48
32-25,28332341,29
32-26,28336247,15
32-27,28340153,-20
32-28,28344059,-45
32-29,28347965,6
32-30,28351871,-72
32-31,28355777,-225
32-32,28359683,-169
32-1,28363589,-54
32-2,28367495,-27
32-3,28371401,-5
32-4,28375307,14
32-5,28379213,37
32-6,28383119,59
32-7,28387025,43
32-8,28390931,34
32-9,28394837,61
32-10,28398743,74
32-11,28402649,51
32-12,28406555,39
32-13,28410461,25
32-14,28414367,-8
32-15,28418273,-30
32-16,28422179,-37
32-17,28426085,-43
32-18,28429991,-48
32-19,28433897,-32
32-20,28437803,-38
32-21,28441709,-103
32-22,28445615,-136
32-23,28449521,-106
32-24,28453427,-78
32-25,28457333,-79
32-26,28461239,-102
32-27,28465145,-119
32-28,28469051,-84
32-29,28472957,-2
32-30,28476863,17
32-31,28480769,-46
32-32,28484675,-83
32-1,28488581,-90
32-2,28492487,-94
32-3,28496393,-74
32-4,28500299,-87
32-5,28504205,-161
32-6,28508111,-187
32-7,28512017,-141
32-8,28515923,-109
32-9,28519829,-107
32-10,28523735,-125
32-11,28527641,-114
32-12,28531547,-49
32-13,28535453,-26
32-14,28539359,-39
32-15,28543265,-19
32-16,28547171,-15
32-17,28551077,-44
32-18,28554983,-59
32-19,28558889,-77
32-20,28562795,-104
32-21,28566701,-106
32-22,28570607,-85
32-23,28574513,-64
32-24,28578419,-52
32-25,28582325,-42
32-26,28586231,-18
32-27,28590137,13
32-28,28594043,48
32-29,28597949,65
32-30,28601855,15
32-31,28605761,-32
32-32,28609667,-18
32-1,28613573,13
32-2,28617479,49
32-3,28621385,4
32-4,28625291,-112
32-5,28629197,-160
32-6,28633103,-151
32-7,28637009,-121
32-8,28640915,-64
32-9,28644821,-37
32-10,28648727,-50
32-11,28652633,-52
32-12,28656539,-12
32-13,28660445,32
32-14,28664351,42
32-15,28668257,30
32-16,28672163,16
32-17,28676069,17
32-18,28679975,2
32-19,28683881,-35
32-20,28687787,-46
32-21,28691693,-35
32-22,28695599,-9
32-23,28699505,9
32-24,28703411,-28
32-25,28707317,-44
32-26,28711223,-5
32-27,28715129,-20
32-28,28719035,-54
32-29,28722941,-27
32-30,28726847,-16
32-31,28730753,-45
32-32,28734659,-31
32-1,28738565,-10790
32-2,28742471,323
32-3,28746377,6244
32-4,28750283,4164
32-5,28754189,3299
32-6,28758095,5150
32-7,28762001,3060
32-8,28765907,-4227
32-9,28769813,-1844
32-10,28773719,5358
32-11,28777625,5095
32-12,28781531,3313
32-13,28785437,3853
32-14,28789343,4819
32-15,28793249,1150
32-16,28797155,-2341
32-17,28801061,2378
32-18,28804967,5480
32-19,28808873,3740
32-20,28812779,2794
32-21,28816685,3830
32-22,28820591,4302
32-23,28824497,-2314
32-24,28828403,-4538
32-25,28832309,3530
32-26,28836215,4403
32-27,28840121,3514
32-28,28844027,4065
32-29,28847933,-9286
32-30,28851839,-23355
32-31,28855745,-23082
32-32,28859651,-14749
32-1,28863557,-3214
32-2,28867463,4995
32-3,28871369,4819
32-4,28875275,3429
32-5,28879181,5447
32-6,28883087,999
32-7,28886993,-5684
32-8,28890899,-112
32-9,28894805,6119
32-10,28898711,4918
32-11,28902617,3173
32-12,28906523,4093
32-13,28910429,5645
32-14,28914335,-4096
32-15,28918241,-12928
32-16,28922147,-3396
32-17,28926053,5724
32-18,28929959,4708
32-19,28933865,3173
32-20,28937771,4810
32-21,28941677,3286
32-22,28945583,-3641
32-23,28949489,-2395
32-24,28953395,4695
32-25,28957301,5276
32-26,28961207,2199
32-27,28965113,3895
32-28,28969019,5671
32-29,28972925,-11582
32-30,28976831,-30981
32-31,28980737,-23883
32-32,28984643,-8073
32-1,28988549,944
32-2,28992455,5034
32-3,28996361,4879
32-4,29000267,4251
32-5,29004173,1018
32-6,29008079,378
32-7,29011985,4710
32-8,29015891,5159
32-9,29019797,3707
32-10,29023703,3763
32-11,29027609,4507
32-12,29031515,3645
32-13,29035421,672
32-14,29039327,2390
32-15,29043233,4940
32-16,29047139,4243
32-17,29051045,3783
32-18,29054951,2581
32-19,29058857,5983
32-20,29062763,1489
32-21,29066669,-22742
32-22,29070575,-32768
32-23,29074481,-27937
32-24,29078387,-14962
32-25,29082293,-1766
32-26,29086199,5285
32-27,29090105,7510
32-28,29094011,354
32-29,29097917,-21295
32-30,29101823,-31284
32-31,29105729,-19670
32-32,29109635,-4799
32-1,29113541,2988
32-2,29117447,8218
32-3,29121353,8934
32-4,29125259,-10168
32-5,29129165,-31132
32-6,29133071,-30743
32-7,29136977,-28965
32-8,29140883,-29998
32-9,29144789,-29364
32-10,29148695,-28912
32-11,29152601,-28642
32-12,29156507,-28205
32-13,29160413,-28159
32-14,29164319,-27809
32-15,29168225,-27244
32-16,29172131,-27147
32-17,29176037,-24795
32-18,29179943,-17754
32-19,29183849,-17718
32-20,29187755,-24848
32-21,29191661,-25745
32-22,29195567,-25063
32-23,29199473,-24452
32-24,29203379,-22818
32-25,29207285,-17970
32-26,29211191,-12424
32-27,29215097,-16030
32-28,29219003,-22714
32-29,29222909,-22211
32-30,29226815,-20783
32-31,29230721,-20842
32-32,29234627,-19700
32-1,29238533,-17032
32-2,29242439,-15079
32-3,29246345,-16867
32-4,29250251,-18307
32-5,29254157,-17358
32-6,29258063,-16890
32-7,29261969,-16612
32-8,29265875,-15825
32-9,29269781,-14599
32-10,29273687,-13903
32-11,29277593,-14134
32-12,29281499,-14047
32-13,29285405,-13600
32-14,29289311,-12970
32-15,29293217,-12294
32-16,29297123,-10505
32-17,29301029,-8032
32-18,29304935,-8829
32-19,29308841,-11015
32-20,29312747,-10831
32-21,29316653,-10047
32-22,29320559,-9606
32-23,29324465,-8704
32-24,29328371,-6217
32-25,29332277,-4441
32-26,29336183,-6586
32-27,29340089,-8472
32-28,29343995,-7789
32-29,29347901,-7292
32-30,29351807,-7166
32-31,29355713,-6759
32-32,29359619,-5857
32-1,29363525,-5286
32-2,29367431,-5623
32-3,29371337,-5602
32-4,29375243,-5254
32-5,29379149,-5081
32-6,29383055,-4809
32-7,29386961,-4477
32-8,29390867,-4082
32-9,29394773,-3694
32-10,29398679,-3460
32-11,29402585,-3351
32-12,29406491,-3147
32-13,29410397,-2872
32-14,29414303,-2584
32-15,29418209,-1746
32-16,29422115,-1010
32-17,29426021,-1342
32-18,29429927,-1692
32-19,29433833,-1511
32-20,29437739,-1272
32-21,29441645,-1029
32-22,29445551,-496
32-23,29449457,591
32-24,29453363,928
32-25,29457269,85
32-26,29461175,-198
32-27,29465081,75
32-28,29468987,200
32-29,29472893,453
32-30,29476799,631
32-31,29480705,724
32-32,29484611,967
32-1,29488517,1198
32-2,29492423,1294
32-3,29496329,1307
32-4,29500235,1380
32-5,29504141,1545
32-6,29508047,1702
32-7,29511953,1900
32-8,29515859,2155
32-9,29519765,2243
32-10,29523671,2206
32-11,29527577,2297
32-12,29531483,2415
32-13,29535389,2537
32-14,29539295,2833
32-15,29543201,3075
32-16,29547107,3092
32-17,29551013,3063
32-18,29554919,3078
32-19,29558825,3132
32-20,29562731,3197
32-21,29566637,3441
32-22,29570543,3851
32-23,29574449,3933
32-24,29578355,3762
32-25,29582261,3734
32-26,29586167,3764
32-27,29590073,3808
32-28,29593979,3924
32-29,29597885,4069
32-30,29601791,4153
32-31,29605697,4234
32-32,29609603,4399
33-1,29613509,4423
33-2,29617415,4350
33-3,29621321,4419
33-4,29625227,4490
33-5,29629133,4498
33-6,29633039,4638
33-7,29636945,4843
33-8,29640851,4850
33-9,29644757,4752
33-10,29648663,4752
33-11,29652569,4788
33-12,29656475,4841
33-13,29660381,4929
33-14,29664287,5042
33-15,29668193,5132
33-16,29672099,5079
33-17,29676005,4986
33-18,29679911,4976
33-19,29683817,5014
33-20,29687723,5122
33-21,29691629,5271
33-22,29695535,5378
33-23,29699441,5384
33-24,29703347,5285
33-25,29707253,5222
33-26,29711159,5246
33-27,29715065,5284
33-28,29718971,5359
33-29,29722877,5466
33-30,29726783,5523
33-31,29730689,5503
33-32,29734595,5428
33-33,29738501,5367
32-1,29742407,5376
32-2,29746313,5372
32-3,29750219,5351
32-4,29754125,5461
32-5,29758031,5543
32-6,29761937,5446
32-7,29765843,5374
32-8,29769749,5382
32-9,29773655,5396
32-10,29777561,5399
32-11,29781467,5402
32-12,29785373,5512
32-13,29789279,5587
32-14,29793185,5480
32-15,29797091,5380
32-16,29800997,5380
32-17,29804903,5402
32-18,29808809,5387
32-19,29812715,5426
32-20,29816621,5534
32-21,29820527,5509
32-22,29824433,5409
32-23,29828339,5383
32-24,29832245,5373
32-25,29836151,5397
32-26,29840057,5448
32-27,29843963,5512
32-28,29847869,5629
32-29,29851775,5637
32-30,29855681,5489
32-31,29859587,5394
32-32,29863493,5401
32-1,29867399,5387
32-2,29871305,5347
32-3,29875211,5396
32-4,29879117,5468
32-5,29883023,5379
32-6,29886929,5247
32-7,29890835,5226
32-8,29894741,5209
32-9,29898647,5151
32-10,29902553,5197
32-11,29906459,5301
32-12,29910365,5241
32-13,29914271,5100
32-14,29918177,5034
32-15,29922083,5003
32-16,29925989,4976
32-17,29929895,4967
32-18,29933801,5065
32-19,29937707,5162
32-20,29941613,5057
32-21,29945519,4935
32-22,29949425,4906
32-23,29953331,4881
32-24,29957237,4850
32-25,29961143,4832
32-26,29965049,4927
32-27,29968955,5012
32-28,29972861,4946
32-29,29976767,4905
32-30,29980673,4904
32-31,29984579,4840
32-32,29988485,4774
32-1,29992391,4778
32-2,29996297,4848
32-3,30000203,4876
32-4,30004109,4777
32-5,30008015,4634
32-6,30011921,4620
32-7,30015827,4621
32-8,30019733,4507
32-9,30023639,4552
32-10,30027545,4665
32-11,30031451,4552
32-12,30035357,4446
32-13,30039263,4438
32-14,30043169,4406
32-15,30047075,4378
32-16,30050981,4368
32-17,30054887,4445
32-18,30058793,4504
32-19,30062699,4391
32-20,30066605,4287
32-21,30070511,4277
32-22,30074417,4244
32-23,30078323,4161
32-24,30082229,4180
32-25,30086135,4315
32-26,30090041,4293
32-27,30093947,4159
32-28,30097853,4160
32-29,30101759,4200
32-30,30105665,4099
32-31,30109571,3957
32-32,30113477,3982
32-1,30117383,4090
32-2,30121289,4106
32-3,30125195,4048
32-4,30129101,3938
32-5,30133007,3906
32-6,30136913,3941
32-7,30140819,3888
32-8,30144725,3923
32-9,30148631,4004
32-10,30152537,3881
32-11,30156443,3769
32-12,30160349,3764
32-13,30164255,3698
32-14,30168161,3603
32-15,30172067,3616
32-16,30175973,3737
32-17,30179879,3725
32-18,30183785,3558
32-19,30187691,3489
32-20,30191597,3489
32-21,30195503,3464
32-22,30199409,3430
32-23,30203315,3474
32-24,30207221,3573
32-25,30211127,3492
32-26,30215033,3360
32-27,30218939,3375
32-28,30222845,3420
32-29,30226751,3431
32-30,30230657,3397
32-31,30234563,3390
32-32,30238469,3426
32-1,30242375,3365
32-2,30246281,3250
32-3,30250187,3170
32-4,30254093,3137
32-5,30257999,3128
32-6,30261905,3141
32-7,30265811,3216
32-8,30269717,3190
32-9,30273623,3025
32-10,30277529,2959
32-11,30281435,3008
32-12,30285341,2993
32-13,30289247,2878
32-14,30293153,2871
32-15,30297059,3025
32-16,30300965,3033
32-17,30304871,2885
32-18,30308777,2849
32-19,30312683,2864
32-20,30316589,2776
32-21,30320495,2701
32-22,30324401,2772
32-23,30328307,2823
32-24,30332213,2716
32-25,30336119,2621
32-26,30340025,2632
32-27,30343931,2662
32-28,30347837,2694
32-29,30351743,2725
32-30,30355649,2729
32-31,30359555,2721
32-32,30363461,2730
32-1,30367367,2688
32-2,30371273,2570
32-3,30375179,2508
32-4,30379085,2494
32-5,30382991,2513
32-6,30386897,2606
32-7,30390803,2589
32-8,30394709,2426
32-9,30398615,2339
32-10,30402521,2352
32-11,30406427,2343
32-12,30410333,2307
32-13,30414239,2363
32-14,30418145,2478
32-15,30422051,2466
32-16,30425957,2352
32-17,30429863,2279
32-18,30433769,2242
32-19,30437675,2160
32-20,30441581,2126
32-21,30445487,2271
32-22,30449393,2359
32-23,30453299,2222
32-24,30457205,2098
32-25,30461111,2079
32-26,30465017,2050
32-27,30468923,2012
32-28,30472829,2069
32-29,30476735,2165
32-30,30480641,2142
32-31,30484547,2044
32-32,30488453,1943
32-1,30492359,1867
32-2,30496265,1870
32-3,30500171,1885
32-4,30504077,1956
32-5,30507983,2061
32-6,30511889,1978
32-7,30515795,1839
32-8,30519701,1841
32-9,30523607,1877
32-10,30527513,1864
32-11,30531419,1848
32-12,30535325,1938
32-13,30539231,2001
32-14,30543137,1866
32-15,30547043,1747
