32-1,56392674,-45
32-2,56396580,-37
32-3,56400486,-41
32-4,56404392,-48
32-5,56408298,-53
32-6,56412204,-58
32-7,56416110,-56
32-8,56420016,-47
32-9,56423922,-43
32-10,56427828,-45
32-11,56431734,-50
32-12,56435640,-47
32-13,56439546,-37
32-14,56443452,-33
32-15,56447358,-34
32-16,56451264,-34
32-17,56455170,-34
32-18,56459076,-37
32-19,56462982,-46
32-20,56466888,-51
32-21,56470794,-45
32-22,56474700,-40
32-23,56478606,-34
32-24,56482512,-34
32-25,56486418,-40
32-26,56490324,-37
32-27,56494230,-25
32-28,56498136,-11
32-29,56502042,-3
32-30,56505948,-12
32-31,56509854,-36
32-32,56513760,-47
32-1,56517672,-34
32-2,56521578,-5
32-3,56525484,4
32-4,56529390,-20
32-5,56533296,-45
32-6,56537202,-57
32-7,56541108,-58
32-8,56545014,-52
32-9,56548920,-44
32-10,56552826,-39
32-11,56556732,-36
32-12,56560638,-37
32-13,56564544,-40
32-14,56568450,-36
32-15,56572356,-29
32-16,56576262,-26
32-17,56580168,-23
32-18,56584074,-14
32-19,56587980,-5
32-20,56591886,-10
32-21,56595792,-25
32-22,56599698,-40
32-23,56603604,-42
32-24,56607510,-48
32-25,56611416,-65
32-26,56615322,-76
32-27,56619228,-66
32-28,56623134,-42
32-29,56627040,-29
32-30,56630946,-45
32-31,56634852,-75
32-32,56638758,-90
32-1,56642670,-88
32-2,56646576,-71
32-3,56650482,-52
32-4,56654388,-42
32-5,56658294,-42
32-6,56662200,-51
32-7,56666106,-60
32-8,56670012,-58
32-9,56673918,-51
32-10,56677824,-50
32-11,56681730,-51
32-12,56685636,-45
32-13,56689542,-33
32-14,56693448,-24
32-15,56697354,-24
32-16,56701260,-28
32-17,56705166,-34
32-18,56709072,-43
32-19,56712978,-50
32-20,56716884,-47
32-21,56720790,-28
32-22,56724696,-7
32-23,56728602,9
32-24,56732508,11
32-25,56736414,2
32-26,56740320,-5
32-27,56744226,-10
32-28,56748132,-8
32-29,56752038,-2
32-30,56755944,-4
32-31,56759850,-23
32-32,56763756,-44
32-1,56767820,-56
32-2,56771726,-47
32-3,56775632,-34
32-4,56779538,-21
32-5,56783444,-7
32-6,56787350,-1
32-7,56791256,-2
32-8,56795162,-9
32-9,56799068,-13
32-10,56802974,-9
32-11,56806880,-9
32-12,56810786,-23
32-13,56814692,-34
32-14,56818598,-30
32-15,56822504,-10
32-16,56826410,5
32-17,56830316,6
32-18,56834222,-2
32-19,56838128,-7
32-20,56842034,-17
32-21,56845940,-30
32-22,56849846,-42
32-23,56853752,-37
32-24,56857658,-26
32-25,56861564,-19
32-26,56865470,-9
32-27,56869376,11
32-28,56873282,28
32-29,56877188,27
32-30,56881094,1
32-31,56885000,-28
32-32,56888906,-36
32-1,56892665,-26
32-2,56896571,-10
32-3,56900477,-7
32-4,56904383,-18
32-5,56908289,-33
32-6,56912195,-44
32-7,56916101,-45
32-8,56920007,-33
32-9,56923913,-18
32-10,56927819,-11
32-11,56931725,-8
32-12,56935631,-4
32-13,56939537,-6
32-14,56943443,-19
32-15,56947349,-34
32-16,56951255,-43
32-17,56955161,-36
32-18,56959067,-26
32-19,56962973,-22
32-20,56966879,-22
32-21,56970785,-22
32-22,56974691,-27
32-23,56978597,-32
32-24,56982503,-45
32-25,56986409,-58
32-26,56990315,-53
32-27,56994221,-35
32-28,56998127,-11
32-29,57002033,1
32-30,57005939,-12
32-31,57009845,-43
32-32,57013751,-64
32-1,57017724,-66
32-2,57021630,-50
32-3,57025536,-51
32-4,57029442,-69
32-5,57033348,-81
32-6,57037254,-79
32-7,57041160,-72
32-8,57045066,-72
32-9,57048972,-77
32-10,57052878,-74
32-11,57056784,-61
32-12,57060690,-51
32-13,57064596,-50
32-14,57068502,-53
32-15,57072408,-45
32-16,57076314,-30
32-17,57080220,-9
32-18,57084126,6
32-19,57088032,10
32-20,57091938,0
32-21,57095844,-14
32-22,57099750,-23
32-23,57103656,-14
32-24,57107562,-6
32-25,57111468,-11
32-26,57115374,-19
32-27,57119280,-28
32-28,57123186,-32
32-29,57127092,-36
32-30,57130998,-41
32-31,57134904,-36
32-32,57138810,-22
32-1,57142660,-20
32-2,57146566,-32
32-3,57150472,-50
32-4,57154378,-55
32-5,57158284,-41
32-6,57162190,-28
32-7,57166096,-27
32-8,57170002,-36
32-9,57173908,-55
32-10,57177814,-70
32-11,57181720,-65
32-12,57185626,-37
32-13,57189532,-4
32-14,57193438,11
32-15,57197344,7
32-16,57201250,-1
32-17,57205156,-5
32-18,57209062,-14
32-19,57212968,-32
32-20,57216874,-47
32-21,57220780,-42
32-22,57224686,-30
32-23,57228592,-24
32-24,57232498,-40
32-25,57236404,-64
32-26,57240310,-57
32-27,57244216,-23
32-28,57248122,14
32-29,57252028,19
32-30,57255934,-17
32-31,57259840,-69
32-32,57263746,-96
32-1,57267658,-91
32-2,57271564,-65
32-3,57275470,-52
32-4,57279376,-59
32-5,57283282,-66
32-6,57287188,-65
32-7,57291094,-69
32-8,57295000,-73
32-9,57298906,-71
32-10,57302812,-54
32-11,57306718,-37
32-12,57310624,-28
32-13,57314530,-22
32-14,57318436,-18
32-15,57322342,-19
32-16,57326248,-33
32-17,57330154,-52
32-18,57334060,-60
32-19,57337966,-50
32-20,57341872,-37
32-21,57345778,-35
32-22,57349684,-42
32-23,57353590,-40
32-24,57357496,-34
32-25,57361402,-38
32-26,57365308,-39
32-27,57369214,-27
32-28,57373120,-5
32-29,57377026,9
32-30,57380932,4
32-31,57384838,-19
32-32,57388744,-43
32-1,57392655,-61
32-2,57396561,-63
32-3,57400467,-49
32-4,57404373,-28
32-5,57408279,-12
32-6,57412185,-13
32-7,57416091,-23
32-8,57419997,-19
32-9,57423903,-3
32-10,57427809,4
32-11,57431715,-5
32-12,57435621,-18
32-13,57439527,-29
32-14,57443433,-33
32-15,57447339,-34
32-16,57451245,-35
32-17,57455151,-39
32-18,57459057,-50
32-19,57462963,-53
32-20,57466869,-45
32-21,57470775,-32
32-22,57474681,-30
32-23,57478587,-44
32-24,57482493,-63
32-25,57486399,-66
32-26,57490305,-42
32-27,57494211,-12
32-28,57498117,0
32-29,57502023,-15
32-30,57505929,-46
32-31,57509835,-77
32-32,57513741,-81
32-1,57517653,-63
32-2,57521559,-39
32-3,57525465,-36
32-4,57529371,-53
32-5,57533277,-65
32-6,57537183,-66
32-7,57541089,-64
32-8,57544995,-64
32-9,57548901,-62
32-10,57552807,-51
32-11,57556713,-37
32-12,57560619,-30
32-13,57564525,-29
32-14,57568431,-26
32-15,57572337,-14
32-16,57576243,-5
32-17,57580149,-5
32-18,57584055,-10
32-19,57587961,-14
32-20,57591867,-21
32-21,57595773,-29
32-22,57599679,-36
32-23,57603585,-33
32-24,57607491,-35
32-25,57611397,-46
32-26,57615303,-39
32-27,57619209,-16
32-28,57623115,6
32-29,57627021,-3
32-30,57630927,-39
32-31,57634833,-69
32-32,57638739,-68
32-1,57642651,-51
32-2,57646557,-33
32-3,57650463,-26
32-4,57654369,-23
32-5,57658275,-18
32-6,57662181,-14
32-7,57666087,-12
32-8,57669993,-1
32-9,57673899,13
32-10,57677805,18
32-11,57681711,15
32-12,57685617,13
32-13,57689523,21
32-14,57693429,23
32-15,57697335,17
32-16,57701241,5
32-17,57705147,-5
32-18,57709053,-19
32-19,57712959,-36
32-20,57716865,-47
32-21,57720771,-41
32-22,57724677,-27
32-23,57728583,-8
32-24,57732489,2
32-25,57736395,2
32-26,57740301,2
32-27,57744207,2
32-28,57748113,6
32-29,57752019,16
32-30,57755925,25
32-31,57759831,21
32-32,57763737,11
32-1,57767740,-2
32-2,57771646,-7
32-3,57775552,-16
32-4,57779458,-28
32-5,57783364,-33
32-6,57787270,-31
32-7,57791176,-34
32-8,57795082,-44
32-9,57798988,-52
32-10,57802894,-47
32-11,57806800,-31
32-12,57810706,-17
32-13,57814612,-13
32-14,57818518,-19
32-15,57822424,-26
32-16,57826330,-39
32-17,57830236,-48
32-18,57834142,-47
32-19,57838048,-31
32-20,57841954,-11
32-21,57845860,4
32-22,57849766,12
32-23,57853672,19
32-24,57857578,16
32-25,57861484,-3
32-26,57865390,-13
32-27,57869296,-4
32-28,57873202,19
32-29,57877108,27
32-30,57881014,8
32-31,57884920,-24
32-32,57888826,-45
32-1,57892646,-60
32-2,57896552,-63
32-3,57900458,-56
32-4,57904364,-44
32-5,57908270,-28
32-6,57912176,-24
32-7,57916082,-33
32-8,57919988,-39
32-9,57923894,-37
32-10,57927800,-30
32-11,57931706,-24
32-12,57935612,-21
32-13,57939518,-20
32-14,57943424,-24
32-15,57947330,-29
32-16,57951236,-29
32-17,57955142,-24
32-18,57959048,-23
32-19,57962954,-27
32-20,57966860,-26
32-21,57970766,-10
32-22,57974672,5
32-23,57978578,10
32-24,57982484,-4
32-25,57986390,-28
32-26,57990296,-33
32-27,57994202,-19
32-28,57998108,11
32-29,58002014,33
32-30,58005920,29
32-31,58009826,-1
32-32,58013732,-36
32-1,58017644,-58
32-2,58021550,-56
32-3,58025456,-47
32-4,58029362,-47
32-5,58033268,-45
32-6,58037174,-38
32-7,58041080,-21
32-8,58044986,-3
32-9,58048892,5
32-10,58052798,2
32-11,58056704,-15
32-12,58060610,-35
32-13,58064516,-41
32-14,58068422,-32
32-15,58072328,-21
32-16,58076234,-24
32-17,58080140,-27
32-18,58084046,-19
32-19,58087952,-5
32-20,58091858,-7
32-21,58095764,-28
32-22,58099670,-51
32-23,58103576,-56
32-24,58107482,-43
32-25,58111388,-29
32-26,58115294,-12
32-27,58119200,8
32-28,58123106,24
32-29,58127012,13
32-30,58130918,-21
32-31,58134824,-52
32-32,58138730,-59
32-1,58142641,-53
32-2,58146547,-46
32-3,58150453,-42
32-4,58154359,-34
32-5,58158265,-26
32-6,58162171,-31
32-7,58166077,-47
32-8,58169983,-62
32-9,58173889,-62
32-10,58177795,-50
32-11,58181701,-37
32-12,58185607,-31
32-13,58189513,-34
32-14,58193419,-42
32-15,58197325,-41
32-16,58201231,-25
32-17,58205137,1
32-18,58209043,13
32-19,58212949,3
32-20,58216855,-22
32-21,58220761,-41
32-22,58224667,-52
32-23,58228573,-53
32-24,58232479,-50
32-25,58236385,-46
32-26,58240291,-36
32-27,58244197,-28
32-28,58248103,-23
32-29,58252009,-25
32-30,58255915,-35
32-31,58259821,-50
32-32,58263727,-57
32-1,58267639,-54
32-2,58271545,-38
32-3,58275451,-23
32-4,58279357,-17
32-5,58283263,-16
32-6,58287169,-25
32-7,58291075,-37
32-8,58294981,-49
32-9,58298887,-53
32-10,58302793,-52
32-11,58306699,-51
32-12,58310605,-54
32-13,58314511,-51
32-14,58318417,-35
32-15,58322323,-22
32-16,58326229,-34
32-17,58330135,-64
32-18,58334041,-87
32-19,58337947,-79
32-20,58341853,-55
32-21,58345759,-36
32-22,58349665,-32
32-23,58353571,-29
32-24,58357477,-28
32-25,58361383,-36
32-26,58365289,-39
32-27,58369195,-42
32-28,58373101,-42
32-29,58377007,-52
32-30,58380913,-68
32-31,58384819,-75
32-32,58388725,-61
32-1,58392637,-44
32-2,58396543,-35
32-3,58400449,-44
32-4,58404355,-62
32-5,58408261,-70
32-6,58412167,-70
32-7,58416073,-66
32-8,58419979,-55
32-9,58423885,-49
32-10,58427791,-54
32-11,58431697,-66
32-12,58435603,-68
32-13,58439509,-53
32-14,58443415,-32
32-15,58447321,-15
32-16,58451227,-9
32-17,58455133,-14
32-18,58459039,-33
32-19,58462945,-59
32-20,58466851,-73
32-21,58470757,-64
32-22,58474663,-44
32-23,58478569,-23
32-24,58482475,-12
32-25,58486381,-12
32-26,58490287,-14
32-27,58494193,-20
32-28,58498099,-21
32-29,58502005,-13
32-30,58505911,-4
32-31,58509817,1
32-32,58513723,4
32-1,58517726,7
32-2,58521632,15
32-3,58525538,15
32-4,58529444,6
32-5,58533350,0
32-6,58537256,1
32-7,58541162,1
32-8,58545068,-13
32-9,58548974,-30
32-10,58552880,-38
32-11,58556786,-30
32-12,58560692,-14
32-13,58564598,-1
32-14,58568504,7
32-15,58572410,2
32-16,58576316,-18
32-17,58580222,-39
32-18,58584128,-51
32-19,58588034,-44
32-20,58591940,-31
32-21,58595846,-25
32-22,58599752,-28
32-23,58603658,-27
32-24,58607564,-26
32-25,58611470,-30
32-26,58615376,-28
32-27,58619282,-12
32-28,58623188,14
32-29,58627094,30
32-30,58631000,29
32-31,58634906,11
32-32,58638812,-3
32-1,58642754,-12
32-2,58646660,-14
32-3,58650566,-16
32-4,58654472,-26
32-5,58658378,-35
32-6,58662284,-41
32-7,58666190,-37
32-8,58670096,-20
32-9,58674002,-8
32-10,58677908,-12
32-11,58681814,-23
32-12,58685720,-28
32-13,58689626,-20
32-14,58693532,-16
32-15,58697438,-17
32-16,58701344,-20
32-17,58705250,-15
32-18,58709156,-6
32-19,58713062,1
32-20,58716968,-4
32-21,58720874,-16
32-22,58724780,-33
32-23,58728686,-43
32-24,58732592,-47
32-25,58736498,-46
32-26,58740404,-20
32-27,58744310,19
32-28,58748216,55
32-29,58752122,62
32-30,58756028,21
32-31,58759934,-50
32-32,58763840,-98
32-1,58767629,-100
32-2,58771535,-62
32-3,58775441,-37
32-4,58779347,-50
32-5,58783253,-70
32-6,58787159,-78
32-7,58791065,-67
32-8,58794971,-44
32-9,58798877,-21
32-10,58802783,-3
32-11,58806689,1
32-12,58810595,-16
32-13,58814501,-38
32-14,58818407,-48
32-15,58822313,-38
32-16,58826219,-13
32-17,58830125,15
32-18,58834031,32
32-19,58837937,30
32-20,58841843,10
32-21,58845749,-12
32-22,58849655,-19
32-23,58853561,-4
32-24,58857467,5
32-25,58861373,-15
32-26,58865279,-37
32-27,58869185,-38
32-28,58873091,-23
32-29,58876997,-29
32-30,58880903,-64
32-31,58884809,-106
32-32,58888715,-119
32-1,58892627,-103
32-2,58896533,-74
32-3,58900439,-58
32-4,58904345,-64
32-5,58908251,-74
32-6,58912157,-79
32-7,58916063,-66
32-8,58919969,-30
32-9,58923875,9
32-10,58927781,21
32-11,58931687,5
32-12,58935593,-13
32-13,58939499,-16
32-14,58943405,-15
32-15,58947311,-16
32-16,58951217,-20
32-17,58955123,-21
32-18,58959029,-26
32-19,58962935,-35
32-20,58966841,-46
32-21,58970747,-56
32-22,58974653,-67
32-23,58978559,-77
32-24,58982465,-86
32-25,58986371,-86
32-26,58990277,-68
32-27,58994183,-45
32-28,58998089,-38
32-29,59001995,-44
32-30,59005901,-52
32-31,59009807,-62
32-32,59013713,-64
32-1,59017625,-63
32-2,59021531,-53
32-3,59025437,-49
32-4,59029343,-57
32-5,59033249,-60
32-6,59037155,-54
32-7,59041061,-49
32-8,59044967,-46
32-9,59048873,-47
32-10,59052779,-49
32-11,59056685,-45
32-12,59060591,-40
32-13,59064497,-36
32-14,59068403,-31
32-15,59072309,-28
32-16,59076215,-31
32-17,59080121,-38
32-18,59084027,-40
32-19,59087933,-35
32-20,59091839,-34
32-21,59095745,-38
32-22,59099651,-41
32-23,59103557,-35
32-24,59107463,-32
32-25,59111369,-44
32-26,59115275,-53
32-27,59119181,-45
32-28,59123087,-22
32-29,59126993,-15
32-30,59130899,-33
32-31,59134805,-61
32-32,59138711,-70
32-1,59142622,-62
32-2,59146528,-49
32-3,59150434,-45
32-4,59154340,-50
32-5,59158246,-55
32-6,59162152,-64
32-7,59166058,-75
32-8,59169964,-78
32-9,59173870,-77
32-10,59177776,-77
32-11,59181682,-76
32-12,59185588,-73
32-13,59189494,-70
32-14,59193400,-75
32-15,59197306,-82
32-16,59201212,-80
32-17,59205118,-63
32-18,59209024,-53
32-19,59212930,-55
32-20,59216836,-63
32-21,59220742,-57
32-22,59224648,-42
32-23,59228554,-25
32-24,59232460,-21
32-25,59236366,-25
32-26,59240272,-22
32-27,59244178,-18
32-28,59248084,-11
32-29,59251990,-3
32-30,59255896,-3
32-31,59259802,-15
32-32,59263708,-30
32-1,59267742,-39
32-2,59271648,-36
32-3,59275554,-32
32-4,59279460,-32
32-5,59283366,-31
32-6,59287272,-27
32-7,59291178,-27
32-8,59295084,-28
32-9,59298990,-27
32-10,59302896,-23
32-11,59306802,-19
32-12,59310708,-25
32-13,59314614,-31
32-14,59318520,-24
32-15,59322426,-9
32-16,59326332,-8
32-17,59330238,-25
32-18,59334144,-45
32-19,59338050,-44
32-20,59341956,-37
32-21,59345862,-43
32-22,59349768,-59
32-23,59353674,-64
32-24,59357580,-54
32-25,59361486,-43
32-26,59365392,-32
32-27,59369298,-22
32-28,59373204,-8
32-29,59377110,-1
32-30,59381016,-4
32-31,59384922,-15
32-32,59388828,-25
32-1,59392618,-35
32-2,59396524,-42
32-3,59400430,-45
32-4,59404336,-34
32-5,59408242,-11
32-6,59412148,3
32-7,59416054,3
32-8,59419960,-6
32-9,59423866,-16
32-10,59427772,-20
32-11,59431678,-12
32-12,59435584,-3
32-13,59439490,3
32-14,59443396,-5
32-15,59447302,-24
32-16,59451208,-34
32-17,59455114,-27
32-18,59459020,-10
32-19,59462926,10
32-20,59466832,28
32-21,59470738,45
32-22,59474644,46
32-23,59478550,41
32-24,59482456,31
32-25,59486362,19
32-26,59490268,20
32-27,59494174,22
32-28,59498080,20
32-29,59501986,11
32-30,59505892,-10
32-31,59509798,-44
32-32,59513704,-75
32-1,59517615,-90
32-2,59521521,-75
32-3,59525427,-52
32-4,59529333,-37
32-5,59533239,-23
32-6,59537145,-9
32-7,59541051,-3
32-8,59544957,-2
32-9,59548863,0
32-10,59552769,2
32-11,59556675,4
32-12,59560581,-4
32-13,59564487,-19
32-14,59568393,-31
32-15,59572299,-28
32-16,59576205,-20
32-17,59580111,-9
32-18,59584017,4
32-19,59587923,20
32-20,59591829,26
32-21,59595735,14
32-22,59599641,-8
32-23,59603547,-20
32-24,59607453,-18
32-25,59611359,-7
32-26,59615265,14
32-27,59619171,32
32-28,59623077,39
32-29,59626983,19
32-30,59630889,-15
32-31,59634795,-41
32-32,59638701,-43
32-1,59642613,-30
32-2,59646519,-17
32-3,59650425,-11
32-4,59654331,-8
32-5,59658237,-6
32-6,59662143,-11
32-7,59666049,-17
32-8,59669955,-16
32-9,59673861,-14
32-10,59677767,-16
32-11,59681673,-23
32-12,59685579,-30
32-13,59689485,-35
32-14,59693391,-49
32-15,59697297,-60
32-16,59701203,-56
32-17,59705109,-29
32-18,59709015,-7
32-19,59712921,-4
32-20,59716827,-18
32-21,59720733,-27
32-22,59724639,-25
32-23,59728545,-21
32-24,59732451,-22
32-25,59736357,-29
32-26,59740263,-26
32-27,59744169,-23
32-28,59748075,-20
32-29,59751981,-26
32-30,59755887,-41
32-31,59759793,-60
32-32,59763699,-71
32-1,59767610,-71
32-2,59771516,-66
32-3,59775422,-77
32-4,59779328,-105
32-5,59783234,-126
32-6,59787140,-126
32-7,59791046,-102
32-8,59794952,-70
32-9,59798858,-43
32-10,59802764,-26
32-11,59806670,-29
32-12,59810576,-51
32-13,59814482,-80
32-14,59818388,-93
32-15,59822294,-84
32-16,59826200,-65
32-17,59830106,-47
32-18,59834012,-36
32-19,59837918,-28
32-20,59841824,-26
32-21,59845730,-23
32-22,59849636,-16
32-23,59853542,-2
32-24,59857448,4
32-25,59861354,-14
32-26,59865260,-33
32-27,59869166,-41
32-28,59873072,-36
32-29,59876978,-39
32-30,59880884,-54
32-31,59884790,-65
32-32,59888696,-55
32-1,59892608,-37
32-2,59896514,-28
32-3,59900420,-32
32-4,59904326,-38
32-5,59908232,-36
32-6,59912138,-32
32-7,59916044,-29
32-8,59919950,-23
32-9,59923856,-12
32-10,59927762,-6
32-11,59931668,-4
32-12,59935574,-5
32-13,59939480,-9
32-14,59943386,-15
32-15,59947292,-21
32-16,59951198,-14
32-17,59955104,2
32-18,59959010,9
32-19,59962916,2
32-20,59966822,-15
32-21,59970728,-31
32-22,59974634,-43
32-23,59978540,-49
32-24,59982446,-47
32-25,59986352,-33
32-26,59990258,-12
32-27,59994164,-2
32-28,59998070,-3
32-29,60001976,-10
32-30,60005882,-15
32-31,60009788,-27
32-32,60013694,-42
32-1,60017758,-53
32-2,60021664,-47
32-3,60025570,-35
32-4,60029476,-29
32-5,60033382,-23
32-6,60037288,-17
32-7,60041194,-16
32-8,60045100,-22
32-9,60049006,-32
32-10,60052912,-44
32-11,60056818,-44
32-12,60060724,-42
32-13,60064630,-45
32-14,60068536,-56
32-15,60072442,-63
32-16,60076348,-63
32-17,60080254,-50
32-18,60084160,-29
32-19,60088066,-13
32-20,60091972,-14
32-21,60095878,-34
32-22,60099784,-52
32-23,60103690,-49
32-24,60107596,-44
32-25,60111502,-52
32-26,60115408,-56
32-27,60119314,-43
32-28,60123220,-14
32-29,60127126,7
32-30,60131032,2
32-31,60134938,-15
32-32,60138844,-11
32-1,60142603,5
32-2,60146509,19
32-3,60150415,16
32-4,60154321,2
32-5,60158227,-2
32-6,60162133,-4
32-7,60166039,-10
32-8,60169945,-16
32-9,60173851,-20
32-10,60177757,-19
32-11,60181663,-10
32-12,60185569,-1
32-13,60189475,0
32-14,60193381,-13
32-15,60197287,-35
32-16,60201193,-54
32-17,60205099,-61
32-18,60209005,-61
32-19,60212911,-61
32-20,60216817,-62
32-21,60220723,-58
32-22,60224629,-56
32-23,60228535,-54
32-24,60232441,-60
32-25,60236347,-71
32-26,60240253,-57
32-27,60244159,-31
32-28,60248065,-1
32-29,60251971,11
32-30,60255877,-6
32-31,60259783,-39
32-32,60263689,-61
32-1,60267601,-65
32-2,60271507,-45
32-3,60275413,-29
32-4,60279319,-26
32-5,60283225,-15
32-6,60287131,-4
32-7,60291037,1
32-8,60294943,-4
32-9,60298849,-9
32-10,60302755,-1
32-11,60306661,9
32-12,60310567,5
32-13,60314473,-9
32-14,60318379,-23
32-15,60322285,-21
32-16,60326191,-16
32-17,60330097,-17
32-18,60334003,-24
32-19,60337909,-26
32-20,60341815,-27
32-21,60345721,-27
32-22,60349627,-29
32-23,60353533,-23
32-24,60357439,-12
32-25,60361345,-13
32-26,60365251,-9
32-27,60369157,6
32-28,60373063,23
32-29,60376969,17
32-30,60380875,-10
32-31,60384781,-40
32-32,60388687,-46
32-1,60392599,-36
32-2,60396505,-28
32-3,60400411,-31
32-4,60404317,-41
32-5,60408223,-43
32-6,60412129,-46
32-7,60416035,-53
32-8,60419941,-55
32-9,60423847,-51
32-10,60427753,-49
32-11,60431659,-50
32-12,60435565,-53
32-13,60439471,-51
32-14,60443377,-54
32-15,60447283,-60
32-16,60451189,-68
32-17,60455095,-71
32-18,60459001,-73
32-19,60462907,-77
32-20,60466813,-81
32-21,60470719,-83
32-22,60474625,-83
32-23,60478531,-73
32-24,60482437,-57
32-25,60486343,-41
32-26,60490249,-24
32-27,60494155,-20
32-28,60498061,-21
32-29,60501967,-29
32-30,60505873,-49
32-31,60509779,-78
32-32,60513685,-95
32-1,60517596,-91
32-2,60521502,-69
32-3,60525408,-60
32-4,60529314,-75
32-5,60533220,-91
32-6,60537126,-90
32-7,60541032,-71
32-8,60544938,-49
32-9,60548844,-36
32-10,60552750,-29
32-11,60556656,-25
32-12,60560562,-31
32-13,60564468,-34
32-14,60568374,-27
32-15,60572280,-6
32-16,60576186,9
32-17,60580092,1
32-18,60583998,-27
32-19,60587904,-51
32-20,60591810,-58
32-21,60595716,-47
32-22,60599622,-31
32-23,60603528,-16
32-24,60607434,-18
32-25,60611340,-39
32-26,60615246,-51
32-27,60619152,-47
32-28,60623058,-37
32-29,60626964,-41
32-30,60630870,-61
32-31,60634776,-77
32-32,60638682,-75
32-1,60642594,-67
32-2,60646500,-61
32-3,60650406,-59
32-4,60654312,-54
32-5,60658218,-37
32-6,60662124,-30
32-7,60666030,-39
32-8,60669936,-53
32-9,60673842,-62
32-10,60677748,-64
32-11,60681654,-63
32-12,60685560,-65
32-13,60689466,-64
32-14,60693372,-64
32-15,60697278,-62
32-16,60701184,-54
32-17,60705090,-46
32-18,60708996,-53
32-19,60712902,-68
32-20,60716808,-73
32-21,60720714,-57
32-22,60724620,-35
32-23,60728526,-25
32-24,60732432,-34
32-25,60736338,-50
32-26,60740244,-47
32-27,60744150,-34
32-28,60748056,-24
32-29,60751962,-24
32-30,60755868,-32
32-31,60759774,-45
32-32,60763680,-53
32-1,60767775,-53
32-2,60771681,-45
32-3,60775587,-38
32-4,60779493,-40
32-5,60783399,-39
32-6,60787305,-34
32-7,60791211,-32
32-8,60795117,-36
32-9,60799023,-46
32-10,60802929,-46
32-11,60806835,-36
32-12,60810741,-25
32-13,60814647,-26
32-14,60818553,-33
32-15,60822459,-34
32-16,60826365,-28
32-17,60830271,-18
32-18,60834177,-8
32-19,60838083,2
32-20,60841989,6
32-21,60845895,-8
32-22,60849801,-30
32-23,60853707,-44
32-24,60857613,-50
32-25,60861519,-58
32-26,60865425,-56
32-27,60869331,-43
32-28,60873237,-24
32-29,60877143,-20
32-30,60881049,-40
32-31,60884955,-65
32-32,60888861,-68
32-1,60892589,-53
32-2,60896495,-31
32-3,60900401,-21
32-4,60904307,-24
32-5,60908213,-23
32-6,60912119,-27
32-7,60916025,-32
32-8,60919931,-34
32-9,60923837,-35
32-10,60927743,-34
32-11,60931649,-22
32-12,60935555,-1
32-13,60939461,26
32-14,60943367,33
32-15,60947273,17
32-16,60951179,-6
32-17,60955085,-17
32-18,60958991,-18
32-19,60962897,-16
32-20,60966803,-15
32-21,60970709,-7
32-22,60974615,3
32-23,60978521,11
32-24,60982427,5
32-25,60986333,-11
32-26,60990239,-4
32-27,60994145,28
32-28,60998051,70
32-29,61001957,89
32-30,61005863,67
32-31,61009769,16
32-32,61013675,-26
32-1,61017648,-40
32-2,61021554,-27
32-3,61025460,-22
32-4,61029366,-41
32-5,61033272,-52
32-6,61037178,-44
32-7,61041084,-24
32-8,61044990,-6
32-9,61048896,3
32-10,61052802,4
32-11,61056708,1
32-12,61060614,1
32-13,61064520,13
32-14,61068426,34
32-15,61072332,50
32-16,61076238,41
32-17,61080144,14
32-18,61084050,-8
32-19,61087956,-7
32-20,61091862,-2
32-21,61095768,-15
32-22,61099674,-43
32-23,61103580,-58
32-24,61107486,-51
32-25,61111392,-34
32-26,61115298,-7
32-27,61119204,22
32-28,61123110,44
32-29,61127016,41
32-30,61130922,12
32-31,61134828,-26
32-32,61138734,-44
32-1,61142584,-38
32-2,61146490,-20
32-3,61150396,0
32-4,61154302,10
32-5,61158208,8
32-6,61162114,-9
32-7,61166020,-25
32-8,61169926,-25
32-9,61173832,-15
32-10,61177738,-12
32-11,61181644,-14
32-12,61185550,-16
32-13,61189456,-18
32-14,61193362,-30
32-15,61197268,-45
32-16,61201174,-48
32-17,61205080,-31
32-18,61208986,-8
32-19,61212892,3
32-20,61216798,-3
32-21,61220704,-10
32-22,61224610,-6
32-23,61228516,4
32-24,61232422,9
32-25,61236328,9
32-26,61240234,19
32-27,61244140,30
32-28,61248046,29
32-29,61251952,6
32-30,61255858,-32
32-31,61259764,-64
32-32,61263670,-68
32-1,61267582,-47
32-2,61271488,-24
32-3,61275394,-22
32-4,61279300,-38
32-5,61283206,-47
32-6,61287112,-42
32-7,61291018,-32
32-8,61294924,-36
32-9,61298830,-49
32-10,61302736,-55
32-11,61306642,-49
32-12,61310548,-41
32-13,61314454,-37
32-14,61318360,-31
32-15,61322266,-25
32-16,61326172,-30
32-17,61330078,-41
32-18,61333984,-48
32-19,61337890,-38
32-20,61341796,-21
32-21,61345702,-13
32-22,61349608,-20
32-23,61353514,-28
32-24,61357420,-36
32-25,61361326,-53
32-26,61365232,-67
32-27,61369138,-72
32-28,61373044,-60
32-29,61376950,-46
32-30,61380856,-45
32-31,61384762,-47
32-32,61388668,-38
32-1,61392580,-24
32-2,61396486,-16
32-3,61400392,-25
32-4,61404298,-48
32-5,61408204,-64
32-6,61412110,-71
32-7,61416016,-62
32-8,61419922,-45
32-9,61423828,-34
32-10,61427734,-36
32-11,61431640,-41
32-12,61435546,-40
32-13,61439452,-29
32-14,61443358,-24
32-15,61447264,-33
32-16,61451170,-44
32-17,61455076,-48
32-18,61458982,-49
32-19,61462888,-54
32-20,61466794,-56
32-21,61470700,-47
32-22,61474606,-33
32-23,61478512,-28
32-24,61482418,-44
32-25,61486324,-72
32-26,61490230,-84
32-27,61494136,-77
32-28,61498042,-58
32-29,61501948,-41
32-30,61505854,-35
32-31,61509760,-48
32-32,61513666,-65
32-1,61517760,-77
32-2,61521666,-74
32-3,61525572,-67
32-4,61529478,-68
32-5,61533384,-66
32-6,61537290,-63
32-7,61541196,-54
32-8,61545102,-45
32-9,61549008,-35
32-10,61552914,-24
32-11,61556820,-10
32-12,61560726,-4
32-13,61564632,-6
32-14,61568538,-11
32-15,61572444,-18
32-16,61576350,-34
32-17,61580256,-54
32-18,61584162,-67
32-19,61588068,-67
32-20,61591974,-64
32-21,61595880,-65
32-22,61599786,-66
32-23,61603692,-52
32-24,61607598,-33
32-25,61611504,-19
32-26,61615410,-2
32-27,61619316,21
32-28,61623222,47
32-29,61627128,49
32-30,61631034,18
32-31,61634940,-28
32-32,61638846,-54
32-1,61642697,-60
32-2,61646603,-57
32-3,61650509,-60
32-4,61654415,-66
32-5,61658321,-59
32-6,61662227,-49
32-7,61666133,-38
32-8,61670039,-28
32-9,61673945,-24
32-10,61677851,-31
32-11,61681757,-35
32-12,61685663,-28
32-13,61689569,-10
32-14,61693475,2
32-15,61697381,2
32-16,61701287,-7
32-17,61705193,-14
32-18,61709099,-21
32-19,61713005,-29
32-20,61716911,-36
32-21,61720817,-33
32-22,61724723,-28
32-23,61728629,-21
32-24,61732535,-21
32-25,61736441,-29
32-26,61740347,-20
32-27,61744253,-2
32-28,61748159,17
32-29,61752065,22
32-30,61755971,-3
32-31,61759877,-51
32-32,61763783,-94
32-1,61767573,-113
32-2,61771479,-90
32-3,61775385,-61
32-4,61779291,-57
32-5,61783197,-66
32-6,61787103,-80
32-7,61791009,-80
32-8,61794915,-57
32-9,61798821,-21
32-10,61802727,9
32-11,61806633,20
32-12,61810539,9
32-13,61814445,-9
32-14,61818351,-21
32-15,61822257,-25
32-16,61826163,-35
32-17,61830069,-44
32-18,61833975,-41
32-19,61837881,-22
32-20,61841787,-12
32-21,61845693,-30
32-22,61849599,-64
32-23,61853505,-75
32-24,61857411,-68
32-25,61861317,-60
32-26,61865223,-44
32-27,61869129,-27
32-28,61873035,-10
32-29,61876941,-10
32-30,61880847,-39
32-31,61884753,-74
32-32,61888659,-88
32-1,61892570,-90
32-2,61896476,-83
32-3,61900382,-80
32-4,61904288,-76
32-5,61908194,-60
32-6,61912100,-55
32-7,61916006,-64
32-8,61919912,-73
32-9,61923818,-74
32-10,61927724,-71
32-11,61931630,-66
32-12,61935536,-59
32-13,61939442,-48
32-14,61943348,-42
32-15,61947254,-45
32-16,61951160,-44
32-17,61955066,-32
32-18,61958972,-21
32-19,61962878,-25
32-20,61966784,-43
32-21,61970690,-56
32-22,61974596,-55
32-23,61978502,-39
32-24,61982408,-17
32-25,61986314,1
32-26,61990220,20
32-27,61994126,29
32-28,61998032,22
32-29,62001938,-3
32-30,62005844,-39
32-31,62009750,-68
32-32,62013656,-75
32-1,62017568,-54
32-2,62021474,-22
32-3,62025380,-3
32-4,62029286,-11
32-5,62033192,-27
32-6,62037098,-32
32-7,62041004,-23
32-8,62044910,-11
32-9,62048816,-5
32-10,62052722,0
32-11,62056628,3
32-12,62060534,1
32-13,62064440,-10
32-14,62068346,-30
32-15,62072252,-50
32-16,62076158,-67
32-17,62080064,-71
32-18,62083970,-57
32-19,62087876,-33
32-20,62091782,-22
32-21,62095688,-32
32-22,62099594,-50
32-23,62103500,-52
32-24,62107406,-39
32-25,62111312,-37
32-26,62115218,-41
32-27,62119124,-43
32-28,62123030,-31
32-29,62126936,-17
32-30,62130842,-11
32-31,62134748,-14
32-32,62138654,-16
32-1,62142565,-23
32-2,62146471,-36
32-3,62150377,-51
32-4,62154283,-62
32-5,62158189,-63
32-6,62162095,-69
32-7,62166001,-79
32-8,62169907,-83
32-9,62173813,-79
32-10,62177719,-78
32-11,62181625,-81
32-12,62185531,-75
32-13,62189437,-53
32-14,62193343,-26
32-15,62197249,-8
32-16,62201155,-1
32-17,62205061,2
32-18,62208967,1
32-19,62212873,-6
32-20,62216779,-12
32-21,62220685,-11
32-22,62224591,-9
32-23,62228497,-12
32-24,62232403,-24
32-25,62236309,-33
32-26,62240215,-17
32-27,62244121,5
32-28,62248027,24
32-29,62251933,25
32-30,62255839,11
32-31,62259745,0
32-32,62263651,3
32-1,62267929,13
32-2,62271835,23
32-3,62275741,17
32-4,62279647,-4
32-5,62283553,-17
32-6,62287459,-23
32-7,62291365,-29
32-8,62295271,-41
32-9,62299177,-54
32-10,62303083,-55
32-11,62306989,-40
32-12,62310895,-25
32-13,62314801,-15
32-14,62318707,-10
32-15,62322613,-3
32-16,62326519,-2
32-17,62330425,-7
32-18,62334331,-11
32-19,62338237,-9
32-20,62342143,-5
32-21,62346049,-7
32-22,62349955,-13
32-23,62353861,-9
32-24,62357767,4
32-25,62361673,10
32-26,62365579,22
32-27,62369485,43
32-28,62373391,69
32-29,62377297,73
32-30,62381203,48
32-31,62385109,12
32-32,62389015,-2
32-1,62392561,9
32-2,62396467,29
32-3,62400373,38
32-4,62404279,27
32-5,62408185,9
32-6,62412091,-8
32-7,62415997,-13
32-8,62419903,-1
32-9,62423809,12
32-10,62427715,12
32-11,62431621,3
32-12,62435527,-4
32-13,62439433,0
32-14,62443339,5
32-15,62447245,7
32-16,62451151,0
32-17,62455057,-11
32-18,62458963,-27
32-19,62462869,-40
32-20,62466775,-41
32-21,62470681,-32
32-22,62474587,-28
32-23,62478493,-37
32-24,62482399,-55
32-25,62486305,-70
32-26,62490211,-46
32-27,62494117,-2
32-28,62498023,33
32-29,62501929,33
32-30,62505835,-11
32-31,62509741,-67
32-32,62513647,-98
32-1,62517558,-91
32-2,62521464,-59
32-3,62525370,-40
32-4,62529276,-51
32-5,62533182,-59
32-6,62537088,-53
32-7,62540994,-39
32-8,62544900,-31
32-9,62548806,-29
32-10,62552712,-24
32-11,62556618,-13
32-12,62560524,-6
32-13,62564430,-6
32-14,62568336,-11
32-15,62572242,-13
32-16,62576148,-14
32-17,62580054,-16
32-18,62583960,-16
32-19,62587866,-11
32-20,62591772,-3
32-21,62595678,0
32-22,62599584,1
32-23,62603490,5
32-24,62607396,2
32-25,62611302,-18
32-26,62615208,-30
32-27,62619114,-17
32-28,62623020,17
32-29,62626926,35
32-30,62630832,15
32-31,62634738,-28
32-32,62638644,-56
32-1,62642556,-59
32-2,62646462,-47
32-3,62650368,-32
32-4,62654274,-21
32-5,62658180,-11
32-6,62662086,-16
32-7,62665992,-35
32-8,62669898,-49
32-9,62673804,-52
32-10,62677710,-51
32-11,62681616,-55
32-12,62685522,-63
32-13,62689428,-59
32-14,62693334,-44
32-15,62697240,-23
32-16,62701146,-2
32-17,62705052,12
32-18,62708958,6
32-19,62712864,-22
32-20,62716770,-55
32-21,62720676,-79
32-22,62724582,-86
32-23,62728488,-80
32-24,62732394,-75
32-25,62736300,-78
32-26,62740206,-73
32-27,62744112,-63
32-28,62748018,-48
32-29,62751924,-38
32-30,62755830,-39
32-31,62759736,-47
32-32,62763642,-56
32-1,62767554,-59
32-2,62771460,-52
32-3,62775366,-48
32-4,62779272,-47
32-5,62783178,-35
32-6,62787084,-23
32-7,62790990,-19
32-8,62794896,-37
32-9,62798802,-63
32-10,62802708,-79
32-11,62806614,-75
32-12,62810520,-60
32-13,62814426,-46
32-14,62818332,-36
32-15,62822238,-27
32-16,62826144,-23
32-17,62830050,-26
32-18,62833956,-32
32-19,62837862,-40
32-20,62841768,-53
32-21,62845674,-68
32-22,62849580,-70
32-23,62853486,-47
32-24,62857392,-16
32-25,62861298,-10
32-26,62865204,-16
32-27,62869110,-22
32-28,62873016,-17
32-29,62876922,-17
32-30,62880828,-33
32-31,62884734,-59
32-32,62888640,-75
32-1,62892704,-75
32-2,62896610,-66
32-3,62900516,-54
32-4,62904422,-48
32-5,62908328,-43
32-6,62912234,-47
32-7,62916140,-59
32-8,62920046,-64
32-9,62923952,-58
32-10,62927858,-53
32-11,62931764,-49
32-12,62935670,-42
32-13,62939576,-29
32-14,62943482,-21
32-15,62947388,-24
32-16,62951294,-30
32-17,62955200,-26
32-18,62959106,-21
32-19,62963012,-28
32-20,62966918,-41
32-21,62970824,-49
32-22,62974730,-47
32-23,62978636,-42
32-24,62982542,-43
32-25,62986448,-56
32-26,62990354,-60
32-27,62994260,-56
32-28,62998166,-42
32-29,63002072,-26
32-30,63005978,-18
32-31,63009884,-23
32-32,63013790,-35
32-1,63017702,-38
32-2,63021608,-19
32-3,63025514,6
32-4,63029420,12
32-5,63033326,6
32-6,63037232,-5
32-7,63041138,-8
32-8,63045044,-5
32-9,63048950,-2
32-10,63052856,-6
32-11,63056762,-17
32-12,63060668,-34
32-13,63064574,-48
32-14,63068480,-47
32-15,63072386,-34
32-16,63076292,-21
32-17,63080198,-25
32-18,63084104,-39
32-19,63088010,-44
32-20,63091916,-33
32-21,63095822,-18
32-22,63099728,-10
32-23,63103634,-4
32-24,63107540,-6
32-25,63111446,-19
32-26,63115352,-21
32-27,63119258,-4
32-28,63123164,26
32-29,63127070,31
32-30,63130976,-4
32-31,63134882,-54
32-32,63138788,-76
32-1,63142547,-63
32-2,63146453,-33
32-3,63150359,-17
32-4,63154265,-20
32-5,63158171,-21
32-6,63162077,-19
32-7,63165983,-8
32-8,63169889,4
32-9,63173795,9
32-10,63177701,2
32-11,63181607,-10
32-12,63185513,-14
32-13,63189419,-7
32-14,63193325,-12
32-15,63197231,-33
32-16,63201137,-54
32-17,63205043,-59
32-18,63208949,-49
32-19,63212855,-44
32-20,63216761,-57
32-21,63220667,-71
32-22,63224573,-78
32-23,63228479,-70
32-24,63232385,-56
32-25,63236291,-51
32-26,63240197,-31
32-27,63244103,-3
32-28,63248009,12
32-29,63251915,4
32-30,63255821,-28
32-31,63259727,-64
32-32,63263633,-78
32-1,63267544,-70
32-2,63271450,-50
32-3,63275356,-40
32-4,63279262,-49
32-5,63283168,-50
32-6,63287074,-37
32-7,63290980,-21
32-8,63294886,-22
32-9,63298792,-40
32-10,63302698,-61
32-11,63306604,-66
32-12,63310510,-56
32-13,63314416,-35
32-14,63318322,-19
32-15,63322228,-13
32-16,63326134,-21
32-17,63330040,-35
32-18,63333946,-46
32-19,63337852,-40
32-20,63341758,-24
32-21,63345664,-17
32-22,63349570,-20
32-23,63353476,-22
32-24,63357382,-15
32-25,63361288,-6
32-26,63365194,9
32-27,63369100,20
32-28,63373006,19
32-29,63376912,-13
32-30,63380818,-64
32-31,63384724,-104
32-32,63388630,-106
32-1,63392542,-78
32-2,63396448,-47
32-3,63400354,-25
32-4,63404260,-16
32-5,63408166,-10
32-6,63412072,-16
32-7,63415978,-34
32-8,63419884,-44
32-9,63423790,-36
32-10,63427696,-24
32-11,63431602,-22
32-12,63435508,-35
32-13,63439414,-47
32-14,63443320,-50
32-15,63447226,-49
32-16,63451132,-46
32-17,63455038,-42
32-18,63458944,-40
32-19,63462850,-34
32-20,63466756,-21
32-21,63470662,-10
32-22,63474568,-10
32-23,63478474,-27
32-24,63482380,-50
32-25,63486286,-60
32-26,63490192,-41
32-27,63494098,-17
32-28,63498004,-9
32-29,63501910,-26
32-30,63505816,-51
32-31,63509722,-64
32-32,63513628,-57
32-1,63517539,-46
32-2,63521445,-40
32-3,63525351,-50
32-4,63529257,-63
32-5,63533163,-56
32-6,63537069,-36
32-7,63540975,-20
32-8,63544881,-24
32-9,63548787,-44
32-10,63552693,-59
32-11,63556599,-59
32-12,63560505,-56
32-13,63564411,-52
32-14,63568317,-47
32-15,63572223,-33
32-16,63576129,-23
32-17,63580035,-24
32-18,63583941,-24
32-19,63587847,-13
32-20,63591753,2
32-21,63595659,-2
32-22,63599565,-20
32-23,63603471,-35
32-24,63607377,-36
32-25,63611283,-36
32-26,63615189,-30
32-27,63619095,-21
32-28,63623001,-14
32-29,63626907,-23
32-30,63630813,-51
32-31,63634719,-78
32-32,63638625,-77
32-1,63642537,-57
32-2,63646443,-44
32-3,63650349,-45
32-4,63654255,-49
32-5,63658161,-39
32-6,63662067,-26
32-7,63665973,-24
32-8,63669879,-27
32-9,63673785,-29
32-10,63677691,-36
32-11,63681597,-44
32-12,63685503,-49
32-13,63689409,-42
32-14,63693315,-27
32-15,63697221,-21
32-16,63701127,-22
32-17,63705033,-26
32-18,63708939,-27
32-19,63712845,-33
32-20,63716751,-38
32-21,63720657,-38
32-22,63724563,-30
32-23,63728469,-25
32-24,63732375,-25
32-25,63736281,-29
32-26,63740187,-25
32-27,63744093,-17
32-28,63747999,-13
32-29,63751905,-21
32-30,63755811,-39
32-31,63759717,-63
32-32,63763623,-79
32-1,63767718,-84
32-2,63771624,-76
32-3,63775530,-68
32-4,63779436,-63
32-5,63783342,-46
32-6,63787248,-22
32-7,63791154,-1
32-8,63795060,4
32-9,63798966,-2
32-10,63802872,-6
32-11,63806778,-4
32-12,63810684,-11
32-13,63814590,-31
32-14,63818496,-46
32-15,63822402,-46
32-16,63826308,-33
32-17,63830214,-28
32-18,63834120,-32
32-19,63838026,-36
32-20,63841932,-35
32-21,63845838,-28
32-22,63849744,-18
32-23,63853650,-6
32-24,63857556,-3
32-25,63861462,-21
32-26,63865368,-41
32-27,63869274,-42
32-28,63873180,-15
32-29,63877086,15
32-30,63880992,26
32-31,63884898,24
32-32,63888804,25
32-1,63892532,29
32-2,63896438,26
32-3,63900344,20
32-4,63904250,18
32-5,63908156,34
32-6,63912062,47
32-7,63915968,47
32-8,63919874,34
32-9,63923780,19
32-10,63927686,6
32-11,63931592,1
32-12,63935498,0
32-13,63939404,2
32-14,63943310,-5
32-15,63947216,-25
32-16,63951122,-41
32-17,63955028,-39
32-18,63958934,-20
32-19,63962840,-2
32-20,63966746,0
32-21,63970652,-14
32-22,63974558,-35
32-23,63978464,-52
32-24,63982370,-59
32-25,63986276,-60
32-26,63990182,-40
32-27,63994088,-7
32-28,63997994,22
32-29,64001900,28
32-30,64005806,6
32-31,64009712,-28
32-32,64013618,-46
32-1,64017530,-39
32-2,64021436,-10
32-3,64025342,18
32-4,64029248,20
32-5,64033154,10
32-6,64037060,-1
32-7,64040966,-14
32-8,64044872,-29
32-9,64048778,-40
32-10,64052684,-48
32-11,64056590,-52
32-12,64060496,-62
32-13,64064402,-71
32-14,64068308,-66
32-15,64072214,-49
32-16,64076120,-33
32-17,64080026,-33
32-18,64083932,-50
32-19,64087838,-61
32-20,64091744,-60
32-21,64095650,-57
32-22,64099556,-56
32-23,64103462,-52
32-24,64107368,-42
32-25,64111274,-35
32-26,64115180,-28
32-27,64119086,-17
32-28,64122992,-5
32-29,64126898,-9
32-30,64130804,-33
32-31,64134710,-62
32-32,64138616,-75
32-1,64142528,-68
32-2,64146434,-57
32-3,64150340,-50
32-4,64154246,-45
32-5,64158152,-33
32-6,64162058,-32
32-7,64165964,-41
32-8,64169870,-45
32-9,64173776,-37
32-10,64177682,-30
32-11,64181588,-32
32-12,64185494,-40
32-13,64189400,-43
32-14,64193306,-39
32-15,64197212,-36
32-16,64201118,-30
32-17,64205024,-20
32-18,64208930,-9
32-19,64212836,-6
32-20,64216742,-15
32-21,64220648,-29
32-22,64224554,-35
32-23,64228460,-28
32-24,64232366,-12
32-25,64236272,6
32-26,64240178,25
32-27,64244084,30
32-28,64247990,24
32-29,64251896,9
32-30,64255802,-9
32-31,64259708,-27
32-32,64263614,-43
32-1,64267525,-50
32-2,64271431,-30
32-3,64275337,-3
32-4,64279243,9
32-5,64283149,9
32-6,64287055,-2
32-7,64290961,-3
32-8,64294867,4
32-9,64298773,19
32-10,64302679,35
32-11,64306585,41
32-12,64310491,26
32-13,64314397,-3
32-14,64318303,-31
32-15,64322209,-44
32-16,64326115,-47
32-17,64330021,-46
32-18,64333927,-42
32-19,64337833,-37
32-20,64341739,-30
32-21,64345645,-31
32-22,64349551,-35
32-23,64353457,-31
32-24,64357363,-27
32-25,64361269,-33
32-26,64365175,-36
32-27,64369081,-27
32-28,64372987,-9
32-29,64376893,-7
32-30,64380799,-30
32-31,64384705,-58
32-32,64388611,-70
32-1,64392523,-65
32-2,64396429,-59
32-3,64400335,-62
32-4,64404241,-66
32-5,64408147,-57
32-6,64412053,-47
32-7,64415959,-39
32-8,64419865,-37
32-9,64423771,-36
32-10,64427677,-40
32-11,64431583,-45
32-12,64435489,-38
32-13,64439395,-18
32-14,64443301,-5
32-15,64447207,-6
32-16,64451113,-8
32-17,64455019,0
32-18,64458925,15
32-19,64462831,15
32-20,64466737,-3
32-21,64470643,-22
32-22,64474549,-32
32-23,64478455,-25
32-24,64482361,-7
32-25,64486267,6
32-26,64490173,19
32-27,64494079,21
32-28,64497985,8
32-29,64501891,-13
32-30,64505797,-33
32-31,64509703,-43
32-32,64513609,-41
32-1,64517521,-31
32-2,64521427,-14
32-3,64525333,-3
32-4,64529239,-8
32-5,64533145,-11
32-6,64537051,-8
32-7,64540957,4
32-8,64544863,13
32-9,64548769,15
32-10,64552675,8
32-11,64556581,-9
32-12,64560487,-34
32-13,64564393,-52
32-14,64568299,-49
32-15,64572205,-30
32-16,64576111,-14
32-17,64580017,-15
32-18,64583923,-19
32-19,64587829,-10
32-20,64591735,6
32-21,64595641,2
32-22,64599547,-26
32-23,64603453,-50
32-24,64607359,-53
32-25,64611265,-38
32-26,64615171,-8
32-27,64619077,23
32-28,64622983,42
32-29,64626889,34
32-30,64630795,-1
32-31,64634701,-38
32-32,64638607,-50
32-1,64642518,-35
32-2,64646424,-16
32-3,64650330,-9
32-4,64654236,-18
32-5,64658142,-25
32-6,64662048,-32
32-7,64665954,-37
32-8,64669860,-35
32-9,64673766,-25
32-10,64677672,-19
32-11,64681578,-21
32-12,64685484,-24
32-13,64689390,-17
32-14,64693296,-8
32-15,64697202,-10
32-16,64701108,-19
32-17,64705014,-27
32-18,64708920,-34
32-19,64712826,-45
32-20,64716732,-54
32-21,64720638,-57
32-22,64724544,-63
32-23,64728450,-80
32-24,64732356,-109
32-25,64736262,-133
32-26,64740168,-111
32-27,64744074,-58
32-28,64747980,-10
32-29,64751886,2
32-30,64755792,-24
32-31,64759698,-56
32-32,64763604,-71
32-1,64767516,-67
32-2,64771422,-54
32-3,64775328,-51
32-4,64779234,-67
32-5,64783140,-73
32-6,64787046,-73
32-7,64790952,-69
32-8,64794858,-66
32-9,64798764,-68
32-10,64802670,-68
32-11,64806576,-66
32-12,64810482,-64
32-13,64814388,-60
32-14,64818294,-48
32-15,64822200,-24
32-16,64826106,1
32-17,64830012,10
32-18,64833918,7
32-19,64837824,5
32-20,64841730,6
32-21,64845636,3
32-22,64849542,-5
32-23,64853448,-9
32-24,64857354,-12
32-25,64861260,-21
32-26,64865166,-21
32-27,64869072,-9
32-28,64872978,16
32-29,64876884,32
32-30,64880790,21
32-31,64884696,-11
32-32,64888602,-37
32-1,64892513,-40
32-2,64896419,-33
32-3,64900325,-26
32-4,64904231,-24
32-5,64908137,-17
32-6,64912043,-11
32-7,64915949,-6
32-8,64919855,-9
32-9,64923761,-16
32-10,64927667,-33
32-11,64931573,-41
32-12,64935479,-33
32-13,64939385,-19
32-14,64943291,-14
32-15,64947197,-27
32-16,64951103,-43
32-17,64955009,-50
32-18,64958915,-47
32-19,64962821,-48
32-20,64966727,-55
32-21,64970633,-57
32-22,64974539,-54
32-23,64978445,-51
32-24,64982351,-51
32-25,64986257,-48
32-26,64990163,-27
32-27,64994069,-5
32-28,64997975,-1
32-29,65001881,-14
32-30,65005787,-33
32-31,65009693,-45
32-32,65013599,-46
32-1,65017511,-40
32-2,65021417,-32
32-3,65025323,-26
32-4,65029229,-29
32-5,65033135,-32
32-6,65037041,-42
32-7,65040947,-55
32-8,65044853,-69
32-9,65048759,-78
32-10,65052665,-77
32-11,65056571,-68
32-12,65060477,-58
32-13,65064383,-55
32-14,65068289,-54
32-15,65072195,-46
32-16,65076101,-35
32-17,65080007,-34
32-18,65083913,-42
32-19,65087819,-47
32-20,65091725,-41
32-21,65095631,-33
32-22,65099537,-26
32-23,65103443,-24
32-24,65107349,-34
32-25,65111255,-65
32-26,65115161,-93
32-27,65119067,-103
32-28,65122973,-89
32-29,65126879,-74
32-30,65130785,-78
32-31,65134691,-90
32-32,65138597,-92
32-1,65142509,-80
32-2,65146415,-66
32-3,65150321,-68
32-4,65154227,-85
32-5,65158133,-92
32-6,65162039,-90
32-7,65165945,-75
32-8,65169851,-57
32-9,65173757,-48
32-10,65177663,-52
32-11,65181569,-56
32-12,65185475,-51
32-13,65189381,-35
32-14,65193287,-25
32-15,65197193,-33
32-16,65201099,-46
32-17,65205005,-48
32-18,65208911,-38
32-19,65212817,-33
32-20,65216723,-36
32-21,65220629,-37
32-22,65224535,-31
32-23,65228441,-23
32-24,65232347,-24
32-25,65236253,-29
32-26,65240159,-24
32-27,65244065,-21
32-28,65247971,-27
32-29,65251877,-40
32-30,65255783,-51
32-31,65259689,-56
32-32,65263595,-60
32-1,65267506,-66
32-2,65271412,-61
32-3,65275318,-50
32-4,65279224,-44
32-5,65283130,-37
32-6,65287036,-32
32-7,65290942,-25
32-8,65294848,-25
32-9,65298754,-34
32-10,65302660,-51
32-11,65306566,-63
32-12,65310472,-62
32-13,65314378,-49
32-14,65318284,-34
32-15,65322190,-26
32-16,65326096,-33
32-17,65330002,-53
32-18,65333908,-69
32-19,65337814,-71
32-20,65341720,-58
32-21,65345626,-48
32-22,65349532,-49
32-23,65353438,-53
32-24,65357344,-57
32-25,65361250,-65
32-26,65365156,-61
32-27,65369062,-43
32-28,65372968,-14
32-29,65376874,-4
32-30,65380780,-23
32-31,65384686,-48
32-32,65388592,-54
32-1,65392504,-47
32-2,65396410,-51
32-3,65400316,-67
32-4,65404222,-79
32-5,65408128,-67
32-6,65412034,-47
32-7,65415940,-40
32-8,65419846,-47
32-9,65423752,-55
32-10,65427658,-59
32-11,65431564,-57
32-12,65435470,-54
32-13,65439376,-55
32-14,65443282,-60
32-15,65447188,-66
32-16,65451094,-64
32-17,65455000,-53
32-18,65458906,-44
32-19,65462812,-44
32-20,65466718,-51
32-21,65470624,-45
32-22,65474530,-27
32-23,65478436,-15
32-24,65482342,-22
32-25,65486248,-42
32-26,65490154,-47
32-27,65494060,-40
32-28,65497966,-32
32-29,65501872,-38
32-30,65505778,-61
32-31,65509684,-89
32-32,65513590,-105
32-1,65517502,-96
32-2,65521408,-69
32-3,65525314,-41
32-4,65529220,-34
32-5,65533126,-38
32-6,65537032,-48
32-7,65540938,-49
32-8,65544844,-45
32-9,65548750,-35
32-10,65552656,-19
32-11,65556562,0
32-12,65560468,10
32-13,65564374,8
32-14,65568280,4
32-15,65572186,0
32-16,65576092,-5
32-17,65579998,-15
32-18,65583904,-20
32-19,65587810,-14
32-20,65591716,-2
32-21,65595622,-1
32-22,65599528,-15
32-23,65603434,-28
32-24,65607340,-33
32-25,65611246,-33
32-26,65615152,-26
32-27,65619058,-14
32-28,65622964,0
32-29,65626870,1
32-30,65630776,-22
32-31,65634682,-47
32-32,65638588,-47
32-1,65642499,-27
32-2,65646405,-10
32-3,65650311,-9
32-4,65654217,-23
32-5,65658123,-27
32-6,65662029,-26
32-7,65665935,-22
32-8,65669841,-14
32-9,65673747,-7
32-10,65677653,-7
32-11,65681559,-17
32-12,65685465,-30
32-13,65689371,-37
32-14,65693277,-38
32-15,65697183,-37
32-16,65701089,-29
32-17,65704995,-12
32-18,65708901,4
32-19,65712807,4
32-20,65716713,-7
32-21,65720619,-17
32-22,65724525,-17
32-23,65728431,-11
32-24,65732337,-12
32-25,65736243,-21
32-26,65740149,-20
32-27,65744055,-13
32-28,65747961,-11
32-29,65751867,-21
32-30,65755773,-36
32-31,65759679,-44
32-32,65763585,-41
32-1,65767497,-30
32-2,65771403,-18
32-3,65775309,-16
32-4,65779215,-41
32-5,65783121,-68
32-6,65787027,-84
32-7,65790933,-79
32-8,65794839,-66
32-9,65798745,-56
32-10,65802651,-51
32-11,65806557,-45
32-12,65810463,-41
32-13,65814369,-41
32-14,65818275,-41
32-15,65822181,-36
32-16,65826087,-32
32-17,65829993,-36
32-18,65833899,-40
32-19,65837805,-31
32-20,65841711,-3
32-21,65845617,18
32-22,65849523,20
32-23,65853429,10
32-24,65857335,5
32-25,65861241,4
32-26,65865147,10
32-27,65869053,16
32-28,65872959,18
32-29,65876865,7
32-30,65880771,-17
32-31,65884677,-43
32-32,65888583,-51
32-1,65892494,-37
32-2,65896400,-23
32-3,65900306,-22
32-4,65904212,-41
32-5,65908118,-60
32-6,65912024,-73
32-7,65915930,-72
32-8,65919836,-56
32-9,65923742,-33
32-10,65927648,-23
32-11,65931554,-33
32-12,65935460,-45
32-13,65939366,-47
32-14,65943272,-41
32-15,65947178,-41
32-16,65951084,-47
32-17,65954990,-53
32-18,65958896,-52
32-19,65962802,-55
32-20,65966708,-61
32-21,65970614,-66
32-22,65974520,-63
32-23,65978426,-52
32-24,65982332,-45
32-25,65986238,-48
32-26,65990144,-44
32-27,65994050,-33
32-28,65997956,-15
32-29,66001862,-3
32-30,66005768,0
32-31,66009674,-3
32-32,66013580,-12
32-1,66017492,-26
32-2,66021398,-41
32-3,66025304,-58
32-4,66029210,-75
32-5,66033116,-74
32-6,66037022,-61
32-7,66040928,-41
32-8,66044834,-31
32-9,66048740,-29
32-10,66052646,-25
32-11,66056552,-12
32-12,66060458,3
32-13,66064364,1
32-14,66068270,-14
32-15,66072176,-31
32-16,66076082,-40
32-17,66079988,-44
32-18,66083894,-50
32-19,66087800,-56
32-20,66091706,-52
32-21,66095612,-45
32-22,66099518,-38
32-23,66103424,-30
32-24,66107330,-28
32-25,66111236,-37
32-26,66115142,-38
32-27,66119048,-30
32-28,66122954,-13
32-29,66126860,-3
32-30,66130766,-11
32-31,66134672,-18
32-32,66138578,-10
32-1,66142490,5
32-2,66146396,9
32-3,66150302,-3
32-4,66154208,-21
32-5,66158114,-15
32-6,66162020,-3
32-7,66165926,-3
32-8,66169832,-12
32-9,66173738,-25
32-10,66177644,-37
32-11,66181550,-49
32-12,66185456,-59
32-13,66189362,-56
32-14,66193268,-40
32-15,66197174,-24
32-16,66201080,-18
32-17,66204986,-31
32-18,66208892,-49
32-19,66212798,-63
32-20,66216704,-62
32-21,66220610,-46
32-22,66224516,-30
32-23,66228422,-25
32-24,66232328,-27
32-25,66236234,-34
32-26,66240140,-26
32-27,66244046,-13
32-28,66247952,-10
32-29,66251858,-11
32-30,66255764,-15
32-31,66259670,-23
32-32,66263576,-31
32-1,66267487,-42
32-2,66271393,-46
32-3,66275299,-40
32-4,66279205,-34
32-5,66283111,-22
32-6,66287017,-10
32-7,66290923,0
32-8,66294829,-3
32-9,66298735,-18
32-10,66302641,-34
32-11,66306547,-42
32-12,66310453,-40
32-13,66314359,-36
32-14,66318265,-28
32-15,66322171,-14
32-16,66326077,-5
32-17,66329983,-6
32-18,66333889,-8
32-19,66337795,-4
32-20,66341701,3
32-21,66345607,6
32-22,66349513,-5
32-23,66353419,-20
32-24,66357325,-31
32-25,66361231,-43
32-26,66365137,-43
32-27,66369043,-28
32-28,66372949,-8
32-29,66376855,2
32-30,66380761,-11
32-31,66384667,-30
32-32,66388573,-31
32-1,66392485,-20
32-2,66396391,-14
32-3,66400297,-15
32-4,66404203,-19
32-5,66408109,-10
32-6,66412015,-5
32-7,66415921,-16
32-8,66419827,-34
32-9,66423733,-47
32-10,66427639,-58
32-11,66431545,-72
32-12,66435451,-88
32-13,66439357,-95
32-14,66443263,-86
32-15,66447169,-73
32-16,66451075,-56
32-17,66454981,-44
32-18,66458887,-41
32-19,66462793,-46
32-20,66466699,-51
32-21,66470605,-49
32-22,66474511,-40
32-23,66478417,-36
32-24,66482323,-39
32-25,66486229,-49
32-26,66490135,-44
32-27,66494041,-27
32-28,66497947,-10
32-29,66501853,-6
32-30,66505759,-18
32-31,66509665,-35
32-32,66513571,-48
32-1,66517483,-41
32-2,66521389,-15
32-3,66525295,17
32-4,66529201,31
32-5,66533107,27
32-6,66537013,10
32-7,66540919,-7
32-8,66544825,-22
32-9,66548731,-36
32-10,66552637,-41
32-11,66556543,-37
32-12,66560449,-27
32-13,66564355,-25
32-14,66568261,-28
32-15,66572167,-31
32-16,66576073,-28
32-17,66579979,-30
32-18,66583885,-39
32-19,66587791,-46
32-20,66591697,-47
32-21,66595603,-45
32-22,66599509,-40
32-23,66603415,-31
32-24,66607321,-24
32-25,66611227,-28
32-26,66615133,-31
32-27,66619039,-25
32-28,66622945,-15
32-29,66626851,-23
32-30,66630757,-47
32-31,66634663,-63
32-32,66638569,-49
32-1,66642480,-13
32-2,66646386,16
32-3,66650292,21
32-4,66654198,6
32-5,66658104,-4
32-6,66662010,-16
32-7,66665916,-34
32-8,66669822,-44
32-9,66673728,-33
32-10,66677634,-11
32-11,66681540,1
32-12,66685446,2
32-13,66689352,2
32-14,66693258,3
32-15,66697164,1
32-16,66701070,5
32-17,66704976,16
32-18,66708882,32
32-19,66712788,31
32-20,66716694,12
32-21,66720600,-11
32-22,66724506,-19
32-23,66728412,-16
32-24,66732318,-18
32-25,66736224,-34
32-26,66740130,-38
32-27,66744036,-28
32-28,66747942,-11
32-29,66751848,-5
32-30,66755754,-17
32-31,66759660,-33
32-32,66763566,-43
32-1,66767478,-38
32-2,66771384,-23
32-3,66775290,-7
32-4,66779196,-5
32-5,66783102,-2
32-6,66787008,4
32-7,66790914,10
32-8,66794820,6
32-9,66798726,-8
32-10,66802632,-20
32-11,66806538,-22
32-12,66810444,-17
32-13,66814350,-13
32-14,66818256,-10
32-15,66822162,-4
32-16,66826068,-5
32-17,66829974,-19
32-18,66833880,-35
32-19,66837786,-43
32-20,66841692,-37
32-21,66845598,-32
32-22,66849504,-39
32-23,66853410,-42
32-24,66857316,-42
32-25,66861222,-55
32-26,66865128,-74
32-27,66869034,-84
32-28,66872940,-69
32-29,66876846,-39
32-30,66880752,-25
32-31,66884658,-33
32-32,66888564,-49
32-1,66892476,-59
32-2,66896382,-65
32-3,66900288,-64
32-4,66904194,-54
32-5,66908100,-25
32-6,66912006,-1
32-7,66915912,3
32-8,66919818,-12
32-9,66923724,-32
32-10,66927630,-43
32-11,66931536,-45
32-12,66935442,-36
32-13,66939348,-17
32-14,66943254,3
32-15,66947160,7
32-16,66951066,1
32-17,66954972,-15
32-18,66958878,-28
32-19,66962784,-41
32-20,66966690,-47
32-21,66970596,-41
32-22,66974502,-26
32-23,66978408,-11
32-24,66982314,-5
32-25,66986220,-8
32-26,66990126,3
32-27,66994032,24
32-28,66997938,36
32-29,67001844,28
32-30,67005750,2
32-31,67009656,-27
32-32,67013562,-45
32-1,67017473,-45
32-2,67021379,-36
32-3,67025285,-27
32-4,67029191,-30
32-5,67033097,-32
32-6,67037003,-30
32-7,67040909,-33
32-8,67044815,-45
32-9,67048721,-62
32-10,67052627,-71
32-11,67056533,-68
32-12,67060439,-58
32-13,67064345,-50
32-14,67068251,-43
32-15,67072157,-38
32-16,67076063,-34
32-17,67079969,-37
32-18,67083875,-37
32-19,67087781,-29
32-20,67091687,-20
32-21,67095593,-22
32-22,67099499,-36
32-23,67103405,-43
32-24,67107311,-39
32-25,67111217,-40
32-26,67115123,-49
32-27,67119029,-48
32-28,67122935,-31
32-29,67126841,-16
32-30,67130747,-25
32-31,67134653,-53
32-32,67138559,-75
32-1,67142532,-73
32-2,67146438,-55
32-3,67150344,-35
32-4,67154250,-23
32-5,67158156,-12
32-6,67162062,-13
32-7,67165968,-22
32-8,67169874,-30
32-9,67173780,-26
32-10,67177686,-18
32-11,67181592,-12
32-12,67185498,-8
32-13,67189404,-2
32-14,67193310,-1
32-15,67197216,-10
32-16,67201122,-16
32-17,67205028,-15
32-18,67208934,-11
32-19,67212840,-21
32-20,67216746,-43
32-21,67220652,-57
32-22,67224558,-52
32-23,67228464,-37
32-24,67232370,-39
32-25,67236276,-56
32-26,67240182,-60
32-27,67244088,-41
32-28,67247994,-10
32-29,67251900,10
32-30,67255806,2
32-31,67259712,-28
32-32,67263618,-61
32-1,67267468,-73
32-2,67271374,-56
32-3,67275280,-29
32-4,67279186,-24
32-5,67283092,-33
32-6,67286998,-43
32-7,67290904,-32
32-8,67294810,-8
32-9,67298716,7
32-10,67302622,4
32-11,67306528,-8
32-12,67310434,-21
32-13,67314340,-36
32-14,67318246,-48
32-15,67322152,-51
32-16,67326058,-41
32-17,67329964,-27
32-18,67333870,-19
32-19,67337776,-23
32-20,67341682,-36
32-21,67345588,-54
32-22,67349494,-65
32-23,67353400,-59
32-24,67357306,-43
32-25,67361212,-36
32-26,67365118,-37
32-27,67369024,-47
32-28,67372930,-53
32-29,67376836,-59
32-30,67380742,-69
32-31,67384648,-73
32-32,67388554,-66
32-1,67392466,-53
32-2,67396372,-53
32-3,67400278,-67
32-4,67404184,-79
32-5,67408090,-70
32-6,67411996,-59
32-7,67415902,-60
32-8,67419808,-74
32-9,67423714,-87
32-10,67427620,-91
32-11,67431526,-86
32-12,67435432,-75
32-13,67439338,-63
32-14,67443244,-56
32-15,67447150,-69
32-16,67451056,-90
32-17,67454962,-107
32-18,67458868,-106
32-19,67462774,-96
32-20,67466680,-85
32-21,67470586,-79
32-22,67474492,-77
32-23,67478398,-75
32-24,67482304,-70
32-25,67486210,-63
32-26,67490116,-42
32-27,67494022,-25
32-28,67497928,-24
32-29,67501834,-35
32-30,67505740,-49
32-31,67509646,-52
32-32,67513552,-47
32-1,67517464,-46
32-2,67521370,-48
32-3,67525276,-53
32-4,67529182,-63
32-5,67533088,-58
32-6,67536994,-39
32-7,67540900,-10
32-8,67544806,17
32-9,67548712,28
32-10,67552618,27
32-11,67556524,23
32-12,67560430,21
32-13,67564336,13
32-14,67568242,3
32-15,67572148,-5
32-16,67576054,-1
32-17,67579960,2
32-18,67583866,0
32-19,67587772,-4
32-20,67591678,-4
32-21,67595584,-8
32-22,67599490,-17
32-23,67603396,-24
32-24,67607302,-22
32-25,67611208,-18
32-26,67615114,-7
32-27,67619020,11
32-28,67622926,31
32-29,67626832,35
32-30,67630738,16
32-31,67634644,-10
32-32,67638550,-31
32-1,67642461,-47
32-2,67646367,-66
32-3,67650273,-89
32-4,67654179,-98
32-5,67658085,-76
32-6,67661991,-51
32-7,67665897,-46
32-8,67669803,-60
32-9,67673709,-74
32-10,67677615,-80
32-11,67681521,-86
32-12,67685427,-87
32-13,67689333,-75
32-14,67693239,-52
32-15,67697145,-38
32-16,67701051,-41
32-17,67704957,-53
32-18,67708863,-55
32-19,67712769,-46
32-20,67716675,-27
32-21,67720581,-14
32-22,67724487,-11
32-23,67728393,-14
32-24,67732299,-23
32-25,67736205,-30
32-26,67740111,-11
32-27,67744017,20
32-28,67747923,39
32-29,67751829,37
32-30,67755735,13
32-31,67759641,-9
32-32,67763547,-17
32-1,67767581,-9
32-2,67771487,7
32-3,67775393,21
32-4,67779299,22
32-5,67783205,18
32-6,67787111,10
32-7,67791017,-1
32-8,67794923,-16
32-9,67798829,-30
32-10,67802735,-29
32-11,67806641,-15
32-12,67810547,1
32-13,67814453,5
32-14,67818359,2
32-15,67822265,2
32-16,67826171,8
32-17,67830077,7
32-18,67833983,-2
32-19,67837889,-18
32-20,67841795,-32
32-21,67845701,-43
32-22,67849607,-48
32-23,67853513,-41
32-24,67857419,-30
32-25,67861325,-30
32-26,67865231,-36
32-27,67869137,-37
32-28,67873043,-24
32-29,67876949,-8
32-30,67880855,-6
32-31,67884761,-14
32-32,67888667,-19
32-1,67892457,-14
32-2,67896363,-12
32-3,67900269,-21
32-4,67904175,-34
32-5,67908081,-36
32-6,67911987,-34
32-7,67915893,-33
32-8,67919799,-29
32-9,67923705,-15
32-10,67927611,-4
32-11,67931517,-10
32-12,67935423,-30
32-13,67939329,-49
32-14,67943235,-57
32-15,67947141,-55
32-16,67951047,-41
32-17,67954953,-23
32-18,67958859,-7
32-19,67962765,-1
32-20,67966671,-7
32-21,67970577,-11
32-22,67974483,-7
32-23,67978389,1
32-24,67982295,-1
32-25,67986201,-12
32-26,67990107,-6
32-27,67994013,15
32-28,67997919,34
32-29,68001825,30
32-30,68005731,-5
32-31,68009637,-49
32-32,68013543,-77
32-1,68017454,-84
32-2,68021360,-72
32-3,68025266,-57
32-4,68029172,-53
32-5,68033078,-44
32-6,68036984,-33
32-7,68040890,-16
32-8,68044796,-9
32-9,68048702,-22
32-10,68052608,-41
32-11,68056514,-46
32-12,68060420,-38
32-13,68064326,-31
32-14,68068232,-25
32-15,68072138,-21
32-16,68076044,-21
32-17,68079950,-33
32-18,68083856,-52
32-19,68087762,-65
32-20,68091668,-62
32-21,68095574,-53
32-22,68099480,-49
32-23,68103386,-45
32-24,68107292,-43
32-25,68111198,-44
32-26,68115104,-42
32-27,68119010,-32
32-28,68122916,-15
32-29,68126822,-3
32-30,68130728,-12
32-31,68134634,-35
32-32,68138540,-47
32-1,68142452,-46
32-2,68146358,-41
32-3,68150264,-40
32-4,68154170,-42
32-5,68158076,-30
32-6,68161982,-19
32-7,68165888,-18
32-8,68169794,-19
32-9,68173700,-19
32-10,68177606,-17
32-11,68181512,-19
32-12,68185418,-27
32-13,68189324,-36
32-14,68193230,-39
32-15,68197136,-44
32-16,68201042,-43
32-17,68204948,-34
32-18,68208854,-24
32-19,68212760,-27
32-20,68216666,-36
32-21,68220572,-35
32-22,68224478,-21
32-23,68228384,-12
32-24,68232290,-27
32-25,68236196,-54
32-26,68240102,-61
32-27,68244008,-49
32-28,68247914,-36
32-29,68251820,-31
32-30,68255726,-36
32-31,68259632,-40
32-32,68263538,-44
32-1,68267480,-50
32-2,68271386,-55
32-3,68275292,-55
32-4,68279198,-50
32-5,68283104,-30
32-6,68287010,-3
32-7,68290916,25
32-8,68294822,34
32-9,68298728,24
32-10,68302634,5
32-11,68306540,-6
32-12,68310446,-3
32-13,68314352,-2
32-14,68318258,-7
32-15,68322164,-13
32-16,68326070,-20
32-17,68329976,-38
32-18,68333882,-54
32-19,68337788,-58
32-20,68341694,-43
32-21,68345600,-23
32-22,68349506,-17
32-23,68353412,-18
32-24,68357318,-24
32-25,68361224,-33
32-26,68365130,-39
32-27,68369036,-32
32-28,68372942,-5
32-29,68376848,26
32-30,68380754,35
32-31,68384660,22
32-32,68388566,-2
32-1,68392600,-16
32-2,68396506,-25
32-3,68400412,-26
32-4,68404318,-22
32-5,68408224,-6
32-6,68412130,-2
32-7,68416036,-13
32-8,68419942,-29
32-9,68423848,-37
32-10,68427754,-40
32-11,68431660,-54
32-12,68435566,-71
32-13,68439472,-76
32-14,68443378,-59
32-15,68447284,-40
32-16,68451190,-29
32-17,68455096,-31
32-18,68459002,-28
32-19,68462908,-26
32-20,68466814,-32
32-21,68470720,-44
32-22,68474626,-56
32-23,68478532,-58
32-24,68482438,-55
32-25,68486344,-59
32-26,68490250,-56
32-27,68494156,-46
32-28,68498062,-37
32-29,68501968,-39
32-30,68505874,-52
32-31,68509780,-61
32-32,68513686,-62
32-1,68517445,-54
32-2,68521351,-42
32-3,68525257,-29
32-4,68529163,-30
32-5,68533069,-38
32-6,68536975,-51
32-7,68540881,-63
32-8,68544787,-66
32-9,68548693,-59
32-10,68552599,-43
32-11,68556505,-30
32-12,68560411,-27
32-13,68564317,-39
32-14,68568223,-42
32-15,68572129,-31
32-16,68576035,-9
32-17,68579941,3
32-18,68583847,-1
32-19,68587753,-13
32-20,68591659,-19
32-21,68595565,-22
32-22,68599471,-26
32-23,68603377,-24
32-24,68607283,-25
32-25,68611189,-30
32-26,68615095,-27
32-27,68619001,-15
32-28,68622907,6
32-29,68626813,16
32-30,68630719,1
32-31,68634625,-17
32-32,68638531,-15
32-1,68642442,3
32-2,68646348,14
32-3,68650254,3
32-4,68654160,-23
32-5,68658066,-33
32-6,68661972,-39
32-7,68665878,-49
32-8,68669784,-59
32-9,68673690,-60
32-10,68677596,-53
32-11,68681502,-43
32-12,68685408,-35
32-13,68689314,-32
32-14,68693220,-38
32-15,68697126,-63
32-16,68701032,-95
32-17,68704938,-120
32-18,68708844,-120
32-19,68712750,-101
32-20,68716656,-79
32-21,68720562,-65
32-22,68724468,-59
32-23,68728374,-60
32-24,68732280,-71
32-25,68736186,-80
32-26,68740092,-71
32-27,68743998,-52
32-28,68747904,-48
32-29,68751810,-59
32-30,68755716,-78
32-31,68759622,-92
32-32,68763528,-101
32-1,68767440,-109
32-2,68771346,-113
32-3,68775252,-113
32-4,68779158,-116
32-5,68783064,-111
32-6,68786970,-102
32-7,68790876,-83
32-8,68794782,-53
32-9,68798688,-21
32-10,68802594,7
32-11,68806500,22
32-12,68810406,23
32-13,68814312,5
32-14,68818218,-17
32-15,68822124,-36
32-16,68826030,-46
32-17,68829936,-58
32-18,68833842,-68
32-19,68837748,-68
32-20,68841654,-59
32-21,68845560,-55
32-22,68849466,-66
32-23,68853372,-78
32-24,68857278,-80
32-25,68861184,-82
32-26,68865090,-75
32-27,68868996,-57
32-28,68872902,-28
32-29,68876808,4
32-30,68880714,8
32-31,68884620,-11
32-32,68888526,-33
32-1,68892438,-39
32-2,68896344,-32
32-3,68900250,-25
32-4,68904156,-34
32-5,68908062,-45
32-6,68911968,-56
32-7,68915874,-68
32-8,68919780,-65
32-9,68923686,-51
32-10,68927592,-38
32-11,68931498,-40
32-12,68935404,-47
32-13,68939310,-43
32-14,68943216,-25
32-15,68947122,-15
32-16,68951028,-20
32-17,68954934,-36
32-18,68958840,-53
32-19,68962746,-66
32-20,68966652,-73
32-21,68970558,-69
32-22,68974464,-53
32-23,68978370,-31
32-24,68982276,-26
32-25,68986182,-48
32-26,68990088,-74
32-27,68993994,-83
32-28,68997900,-73
32-29,69001806,-57
32-30,69005712,-50
32-31,69009618,-55
32-32,69013524,-67
32-1,69017557,-74
32-2,69021463,-66
32-3,69025369,-47
32-4,69029275,-36
32-5,69033181,-33
32-6,69037087,-41
32-7,69040993,-49
32-8,69044899,-53
32-9,69048805,-51
32-10,69052711,-48
32-11,69056617,-48
32-12,69060523,-46
32-13,69064429,-44
32-14,69068335,-37
32-15,69072241,-28
32-16,69076147,-19
32-17,69080053,-29
32-18,69083959,-51
32-19,69087865,-69
32-20,69091771,-70
32-21,69095677,-63
32-22,69099583,-54
32-23,69103489,-41
32-24,69107395,-32
32-25,69111301,-38
32-26,69115207,-53
32-27,69119113,-63
32-28,69123019,-62
32-29,69126925,-55
32-30,69130831,-58
32-31,69134737,-64
32-32,69138643,-61
32-1,69142433,-47
32-2,69146339,-34
32-3,69150245,-34
32-4,69154151,-46
32-5,69158057,-46
32-6,69161963,-40
32-7,69165869,-35
32-8,69169775,-28
32-9,69173681,-18
32-10,69177587,-9
32-11,69181493,-8
32-12,69185399,-16
32-13,69189305,-27
32-14,69193211,-38
32-15,69197117,-54
32-16,69201023,-64
32-17,69204929,-67
32-18,69208835,-59
32-19,69212741,-53
32-20,69216647,-56
32-21,69220553,-56
32-22,69224459,-54
32-23,69228365,-54
32-24,69232271,-65
32-25,69236177,-82
32-26,69240083,-70
32-27,69243989,-26
32-28,69247895,17
32-29,69251801,30
32-30,69255707,-5
32-31,69259613,-57
32-32,69263519,-93
32-1,69267431,-92
32-2,69271337,-65
32-3,69275243,-40
32-4,69279149,-35
32-5,69283055,-33
32-6,69286961,-33
32-7,69290867,-32
32-8,69294773,-29
32-9,69298679,-27
32-10,69302585,-14
32-11,69306491,3
32-12,69310397,13
32-13,69314303,6
32-14,69318209,-10
32-15,69322115,-19
32-16,69326021,-16
32-17,69329927,-17
32-18,69333833,-15
32-19,69337739,-6
32-20,69341645,8
32-21,69345551,18
32-22,69349457,9
32-23,69353363,-12
32-24,69357269,-33
32-25,69361175,-48
32-26,69365081,-42
32-27,69368987,-16
32-28,69372893,15
32-29,69376799,29
32-30,69380705,13
32-31,69384611,-16
32-32,69388517,-33
32-1,69392428,-33
32-2,69396334,-30
32-3,69400240,-32
32-4,69404146,-36
32-5,69408052,-24
32-6,69411958,-10
32-7,69415864,-9
32-8,69419770,-13
32-9,69423676,-11
32-10,69427582,2
32-11,69431488,15
32-12,69435394,24
32-13,69439300,31
32-14,69443206,29
32-15,69447112,10
32-16,69451018,-15
32-17,69454924,-33
32-18,69458830,-35
32-19,69462736,-29
32-20,69466642,-27
32-21,69470548,-29
32-22,69474454,-32
32-23,69478360,-35
32-24,69482266,-45
32-25,69486172,-62
32-26,69490078,-66
32-27,69493984,-51
32-28,69497890,-28
32-29,69501796,-15
32-30,69505702,-23
32-31,69509608,-36
32-32,69513514,-45
32-1,69517426,-45
32-2,69521332,-39
32-3,69525238,-33
32-4,69529144,-41
32-5,69533050,-45
32-6,69536956,-36
32-7,69540862,-18
32-8,69544768,2
32-9,69548674,4
32-10,69552580,-5
32-11,69556486,-11
32-12,69560392,-9
32-13,69564298,-8
32-14,69568204,-7
32-15,69572110,-11
32-16,69576016,-21
32-17,69579922,-41
32-18,69583828,-62
32-19,69587734,-72
32-20,69591640,-68
32-21,69595546,-65
32-22,69599452,-62
32-23,69603358,-50
32-24,69607264,-29
32-25,69611170,-13
32-26,69615076,-12
32-27,69618982,-24
32-28,69622888,-38
32-29,69626794,-47
32-30,69630700,-67
32-31,69634606,-92
32-32,69638512,-109
32-1,69642423,-110
32-2,69646329,-102
32-3,69650235,-99
32-4,69654141,-100
32-5,69658047,-91
32-6,69661953,-79
32-7,69665859,-71
32-8,69669765,-68
32-9,69673671,-74
32-10,69677577,-85
32-11,69681483,-101
32-12,69685389,-109
32-13,69689295,-101
32-14,69693201,-83
32-15,69697107,-79
32-16,69701013,-90
32-17,69704919,-108
32-18,69708825,-112
32-19,69712731,-108
32-20,69716637,-103
32-21,69720543,-94
32-22,69724449,-81
32-23,69728355,-68
32-24,69732261,-67
32-25,69736167,-79
32-26,69740073,-85
32-27,69743979,-77
32-28,69747885,-69
32-29,69751791,-68
32-30,69755697,-80
32-31,69759603,-95
32-32,69763509,-104
32-1,69767421,-108
32-2,69771327,-105
32-3,69775233,-95
32-4,69779139,-89
32-5,69783045,-83
32-6,69786951,-83
32-7,69790857,-86
32-8,69794763,-86
32-9,69798669,-85
32-10,69802575,-77
32-11,69806481,-67
32-12,69810387,-52
32-13,69814293,-45
32-14,69818199,-42
32-15,69822105,-40
32-16,69826011,-41
32-17,69829917,-53
32-18,69833823,-71
32-19,69837729,-82
32-20,69841635,-71
32-21,69845541,-55
32-22,69849447,-50
32-23,69853353,-54
32-24,69857259,-72
32-25,69861165,-95
32-26,69865071,-109
32-27,69868977,-105
32-28,69872883,-83
32-29,69876789,-61
32-30,69880695,-64
32-31,69884601,-85
32-32,69888507,-101
32-1,69892419,-99
32-2,69896325,-87
32-3,69900231,-79
32-4,69904137,-80
32-5,69908043,-73
32-6,69911949,-68
32-7,69915855,-74
32-8,69919761,-84
32-9,69923667,-84
32-10,69927573,-71
32-11,69931479,-61
32-12,69935385,-61
32-13,69939291,-69
32-14,69943197,-73
32-15,69947103,-75
32-16,69951009,-70
32-17,69954915,-58
32-18,69958821,-41
32-19,69962727,-29
32-20,69966633,-29
32-21,69970539,-39
32-22,69974445,-55
32-23,69978351,-61
32-24,69982257,-61
32-25,69986163,-56
32-26,69990069,-37
32-27,69993975,-12
32-28,69997881,-2
32-29,70001787,-15
32-30,70005693,-43
32-31,70009599,-65
32-32,70013505,-75
32-1,70017416,-71
32-2,70021322,-60
32-3,70025228,-50
32-4,70029134,-52
32-5,70033040,-57
32-6,70036946,-62
32-7,70040852,-58
32-8,70044758,-49
32-9,70048664,-42
32-10,70052570,-33
32-11,70056476,-24
32-12,70060382,-17
32-13,70064288,-23
32-14,70068194,-31
32-15,70072100,-34
32-16,70076006,-28
32-17,70079912,-29
32-18,70083818,-39
32-19,70087724,-47
32-20,70091630,-41
32-21,70095536,-28
32-22,70099442,-26
32-23,70103348,-33
32-24,70107254,-36
32-25,70111160,-31
32-26,70115066,-5
32-27,70118972,28
32-28,70122878,51
32-29,70126784,54
32-30,70130690,26
32-31,70134596,-14
32-32,70138502,-32
32-1,70142414,-17
32-2,70146320,10
32-3,70150226,24
32-4,70154132,17
32-5,70158038,7
32-6,70161944,-7
32-7,70165850,-26
32-8,70169756,-38
32-9,70173662,-38
32-10,70177568,-24
32-11,70181474,-7
32-12,70185380,4
32-13,70189286,0
32-14,70193192,-16
32-15,70197098,-32
32-16,70201004,-31
32-17,70204910,-13
32-18,70208816,15
32-19,70212722,27
32-20,70216628,21
32-21,70220534,7
32-22,70224440,0
32-23,70228346,2
32-24,70232252,-1
32-25,70236158,-4
32-26,70240064,16
32-27,70243970,52
32-28,70247876,75
32-29,70251782,74
32-30,70255688,49
32-31,70259594,21
32-32,70263500,5
32-1,70267412,-1
32-2,70271318,4
32-3,70275224,12
32-4,70279130,13
32-5,70283036,14
32-6,70286942,18
32-7,70290848,25
32-8,70294754,31
32-9,70298660,26
32-10,70302566,18
32-11,70306472,17
32-12,70310378,25
32-13,70314284,26
32-14,70318190,17
32-15,70322096,3
32-16,70326002,-11
32-17,70329908,-22
32-18,70333814,-26
32-19,70337720,-18
32-20,70341626,-2
32-21,70345532,10
32-22,70349438,4
32-23,70353344,-8
32-24,70357250,-16
32-25,70361156,-23
32-26,70365062,-27
32-27,70368968,-24
32-28,70372874,-14
32-29,70376780,-1
32-30,70380686,-6
32-31,70384592,-23
32-32,70388498,-35
32-1,70392409,-30
32-2,70396315,-22
32-3,70400221,-27
32-4,70404127,-45
32-5,70408033,-57
32-6,70411939,-65
32-7,70415845,-77
32-8,70419751,-92
32-9,70423657,-97
32-10,70427563,-88
32-11,70431469,-71
32-12,70435375,-58
32-13,70439281,-53
32-14,70443187,-58
32-15,70447093,-69
32-16,70450999,-70
32-17,70454905,-58
32-18,70458811,-39
32-19,70462717,-32
32-20,70466623,-40
32-21,70470529,-47
32-22,70474435,-37
32-23,70478341,-7
32-24,70482247,21
32-25,70486153,29
32-26,70490059,22
32-27,70493965,7
32-28,70497871,-14
32-29,70501777,-35
32-30,70505683,-53
32-31,70509589,-64
32-32,70513495,-71
32-1,70517437,-76
32-2,70521343,-75
32-3,70525249,-62
32-4,70529155,-46
32-5,70533061,-28
32-6,70536967,-19
32-7,70540873,-23
32-8,70544779,-32
32-9,70548685,-48
32-10,70552591,-57
32-11,70556497,-55
32-12,70560403,-38
32-13,70564309,-20
32-14,70568215,-10
32-15,70572121,-9
32-16,70576027,-14
32-17,70579933,-18
32-18,70583839,-12
32-19,70587745,0
32-20,70591651,11
32-21,70595557,9
32-22,70599463,-4
32-23,70603369,-8
32-24,70607275,-3
32-25,70611181,-2
32-26,70615087,-10
32-27,70618993,-22
32-28,70622899,-29
32-29,70626805,-22
32-30,70630711,-23
32-31,70634617,-37
32-32,70638523,-58
32-1,70642404,-72
32-2,70646310,-70
32-3,70650216,-60
32-4,70654122,-52
32-5,70658028,-44
32-6,70661934,-47
32-7,70665840,-56
32-8,70669746,-59
32-9,70673652,-48
32-10,70677558,-31
32-11,70681464,-26
32-12,70685370,-29
32-13,70689276,-38
32-14,70693182,-42
32-15,70697088,-48
32-16,70700994,-58
32-17,70704900,-66
32-18,70708806,-65
32-19,70712712,-54
32-20,70716618,-38
32-21,70720524,-25
32-22,70724430,-15
32-23,70728336,-10
32-24,70732242,-19
32-25,70736148,-36
32-26,70740054,-31
32-27,70743960,-1
32-28,70747866,31
32-29,70751772,32
32-30,70755678,-2
32-31,70759584,-46
32-32,70763490,-74
32-1,70767402,-75
32-2,70771308,-61
32-3,70775214,-45
32-4,70779120,-43
32-5,70783026,-43
32-6,70786932,-47
32-7,70790838,-55
32-8,70794744,-66
32-9,70798650,-81
32-10,70802556,-87
32-11,70806462,-78
32-12,70810368,-52
32-13,70814274,-27
32-14,70818180,-13
32-15,70822086,-10
32-16,70825992,-6
32-17,70829898,-10
32-18,70833804,-24
32-19,70837710,-44
32-20,70841616,-65
32-21,70845522,-77
32-22,70849428,-78
32-23,70853334,-63
32-24,70857240,-46
32-25,70861146,-40
32-26,70865052,-38
32-27,70868958,-33
32-28,70872864,-19
32-29,70876770,1
32-30,70880676,1
32-31,70884582,-20
32-32,70888488,-39
32-1,70892400,-42
32-2,70896306,-34
32-3,70900212,-26
32-4,70904118,-30
32-5,70908024,-33
32-6,70911930,-42
32-7,70915836,-56
32-8,70919742,-59
32-9,70923648,-47
32-10,70927554,-26
32-11,70931460,-15
32-12,70935366,-14
32-13,70939272,-15
32-14,70943178,-12
32-15,70947084,-13
32-16,70950990,-14
32-17,70954896,-13
32-18,70958802,-1
32-19,70962708,6
32-20,70966614,-3
32-21,70970520,-22
32-22,70974426,-33
32-23,70978332,-25
32-24,70982238,-6
32-25,70986144,8
32-26,70990050,18
32-27,70993956,17
32-28,70997862,-4
32-29,71001768,-32
32-30,71005674,-56
32-31,71009580,-59
32-32,71013486,-47
32-1,71017397,-31
32-2,71021303,-17
32-3,71025209,-3
32-4,71029115,6
32-5,71033021,13
32-6,71036927,11
32-7,71040833,-1
32-8,71044739,-18
32-9,71048645,-44
32-10,71052551,-66
32-11,71056457,-69
32-12,71060363,-46
32-13,71064269,-15
32-14,71068175,11
32-15,71072081,24
32-16,71075987,22
32-17,71079893,6
32-18,71083799,-10
32-19,71087705,-17
32-20,71091611,-14
32-21,71095517,-14
32-22,71099423,-31
32-23,71103329,-50
32-24,71107235,-60
32-25,71111141,-51
32-26,71115047,-25
32-27,71118953,7
32-28,71122859,26
32-29,71126765,17
32-30,71130671,-25
32-31,71134577,-67
32-32,71138483,-74
32-1,71142395,-39
32-2,71146301,7
32-3,71150207,24
32-4,71154113,6
32-5,71158019,-19
32-6,71161925,-33
32-7,71165831,-38
32-8,71169737,-45
32-9,71173643,-55
32-10,71177549,-62
32-11,71181455,-69
32-12,71185361,-64
32-13,71189267,-51
32-14,71193173,-32
32-15,71197079,-19
32-16,71200985,-13
32-17,71204891,-4
32-18,71208797,10
32-19,71212703,18
32-20,71216609,10
32-21,71220515,-4
32-22,71224421,-15
32-23,71228327,-15
32-24,71232233,-22
32-25,71236139,-35
32-26,71240045,-38
32-27,71243951,-25
32-28,71247857,-13
32-29,71251763,-17
32-30,71255669,-38
32-31,71259575,-49
32-32,71263481,-43
32-1,71267393,-33
32-2,71271299,-28
32-3,71275205,-31
32-4,71279111,-43
32-5,71283017,-49
32-6,71286923,-55
32-7,71290829,-64
32-8,71294735,-70
32-9,71298641,-67
32-10,71302547,-50
32-11,71306453,-27
32-12,71310359,-8
32-13,71314265,-3
32-14,71318171,-4
32-15,71322077,1
32-16,71325983,14
32-17,71329889,19
32-18,71333795,8
32-19,71337701,-5
32-20,71341607,-3
32-21,71345513,12
32-22,71349419,16
32-23,71353325,10
32-24,71357231,-6
32-25,71361137,-24
32-26,71365043,-28
32-27,71368949,-18
32-28,71372855,2
32-29,71376761,17
32-30,71380667,5
32-31,71384573,-29
32-32,71388479,-56
32-1,71392390,-57
32-2,71396296,-35
32-3,71400202,-9
32-4,71404108,5
32-5,71408014,10
32-6,71411920,2
32-7,71415826,-17
32-8,71419732,-31
32-9,71423638,-31
32-10,71427544,-20
32-11,71431450,-10
32-12,71435356,-7
32-13,71439262,-9
32-14,71443168,-12
32-15,71447074,-23
32-16,71450980,-42
32-17,71454886,-64
32-18,71458792,-73
32-19,71462698,-62
32-20,71466604,-41
32-21,71470510,-23
32-22,71474416,-18
32-23,71478322,-24
32-24,71482228,-31
32-25,71486134,-36
32-26,71490040,-19
32-27,71493946,14
32-28,71497852,39
32-29,71501758,45
32-30,71505664,26
32-31,71509570,-4
32-32,71513476,-25
32-1,71517388,-25
32-2,71521294,-3
32-3,71525200,15
32-4,71529106,9
32-5,71533012,-11
32-6,71536918,-26
32-7,71540824,-22
32-8,71544730,-5
32-9,71548636,4
32-10,71552542,3
32-11,71556448,-3
32-12,71560354,5
32-13,71564260,13
32-14,71568166,19
32-15,71572072,23
32-16,71575978,27
32-17,71579884,26
32-18,71583790,22
32-19,71587696,17
32-20,71591602,14
32-21,71595508,6
32-22,71599414,-11
32-23,71603320,-19
32-24,71607226,-19
32-25,71611132,-15
32-26,71615038,-3
32-27,71618944,12
32-28,71622850,26
32-29,71626756,32
32-30,71630662,14
32-31,71634568,-15
32-32,71638474,-21
32-1,71642386,1
32-2,71646292,35
32-3,71650198,48
32-4,71654104,31
32-5,71658010,9
32-6,71661916,-14
32-7,71665822,-37
32-8,71669728,-55
32-9,71673634,-66
32-10,71677540,-60
32-11,71681446,-47
32-12,71685352,-27
32-13,71689258,-8
32-14,71693164,11
32-15,71697070,24
32-16,71700976,31
32-17,71704882,30
32-18,71708788,20
32-19,71712694,-2
32-20,71716600,-29
32-21,71720506,-43
32-22,71724412,-35
32-23,71728318,-15
32-24,71732224,-4
32-25,71736130,-10
32-26,71740036,-13
32-27,71743942,-1
32-28,71747848,13
32-29,71751754,16
32-30,71755660,6
32-31,71759566,-11
32-32,71763472,-22
32-1,71767383,-22
32-2,71771289,-13
32-3,71775195,0
32-4,71779101,3
32-5,71783007,-4
32-6,71786913,-13
32-7,71790819,-19
32-8,71794725,-13
32-9,71798631,-4
32-10,71802537,1
32-11,71806443,4
32-12,71810349,10
32-13,71814255,8
32-14,71818161,5
32-15,71822067,2
32-16,71825973,-3
32-17,71829879,-12
32-18,71833785,-27
32-19,71837691,-44
32-20,71841597,-52
32-21,71845503,-46
32-22,71849409,-32
32-23,71853315,-5
32-24,71857221,16
32-25,71861127,24
32-26,71865033,17
32-27,71868939,2
32-28,71872845,-13
32-29,71876751,-29
32-30,71880657,-52
32-31,71884563,-67
32-32,71888469,-59
32-1,71892381,-34
32-2,71896287,-13
32-3,71900193,-18
32-4,71904099,-38
32-5,71908005,-48
32-6,71911911,-49
32-7,71915817,-54
32-8,71919723,-51
32-9,71923629,-42
32-10,71927535,-24
32-11,71931441,-17
32-12,71935347,-23
32-13,71939253,-29
32-14,71943159,-22
32-15,71947065,-18
32-16,71950971,-17
32-17,71954877,-16
32-18,71958783,-4
32-19,71962689,12
32-20,71966595,25
32-21,71970501,28
32-22,71974407,23
32-23,71978313,18
32-24,71982219,5
32-25,71986125,-13
32-26,71990031,-19
32-27,71993937,-7
32-28,71997843,8
32-29,72001749,8
32-30,72005655,-12
32-31,72009561,-31
32-32,72013467,-34
32-1,72017531,-27
32-2,72021437,-20
32-3,72025343,-20
32-4,72029249,-26
32-5,72033155,-21
32-6,72037061,-6
32-7,72040967,6
32-8,72044873,7
32-9,72048779,-4
32-10,72052685,-16
32-11,72056591,-26
32-12,72060497,-30
32-13,72064403,-38
32-14,72068309,-44
32-15,72072215,-42
32-16,72076121,-35
32-17,72080027,-34
32-18,72083933,-44
32-19,72087839,-49
32-20,72091745,-36
32-21,72095651,-10
32-22,72099557,9
32-23,72103463,19
32-24,72107369,7
32-25,72111275,-21
32-26,72115181,-43
32-27,72119087,-41
32-28,72122993,-14
32-29,72126899,13
32-30,72130805,7
32-31,72134711,-25
32-32,72138617,-49
32-1,72142376,-43
32-2,72146282,-18
32-3,72150188,-7
32-4,72154094,-19
32-5,72158000,-32
32-6,72161906,-40
32-7,72165812,-43
32-8,72169718,-45
32-9,72173624,-50
32-10,72177530,-54
32-11,72181436,-59
32-12,72185342,-60
32-13,72189248,-56
32-14,72193154,-48
32-15,72197060,-45
32-16,72200966,-49
32-17,72204872,-51
32-18,72208778,-41
32-19,72212684,-27
32-20,72216590,-24
32-21,72220496,-33
32-22,72224402,-49
32-23,72228308,-53
32-24,72232214,-52
32-25,72236120,-47
32-26,72240026,-26
32-27,72243932,8
32-28,72247838,32
32-29,72251744,39
32-30,72255650,21
32-31,72259556,-9
32-32,72263462,-35
32-1,72267374,-48
32-2,72271280,-39
32-3,72275186,-17
32-4,72279092,-6
32-5,72282998,-8
32-6,72286904,-21
32-7,72290810,-33
32-8,72294716,-26
32-9,72298622,-13
32-10,72302528,-1
32-11,72306434,2
32-12,72310340,-1
32-13,72314246,-12
32-14,72318152,-21
32-15,72322058,-14
32-16,72325964,8
32-17,72329870,30
32-18,72333776,36
32-19,72337682,28
32-20,72341588,21
32-21,72345494,11
32-22,72349400,-11
32-23,72353306,-35
32-24,72357212,-51
32-25,72361118,-47
32-26,72365024,-26
32-27,72368930,-3
32-28,72372836,9
32-29,72376742,3
32-30,72380648,-23
32-31,72384554,-47
32-32,72388460,-48
32-1,72392371,-26
32-2,72396277,0
32-3,72400183,9
32-4,72404089,1
32-5,72407995,-5
32-6,72411901,-10
32-7,72415807,-21
32-8,72419713,-31
32-9,72423619,-35
32-10,72427525,-30
32-11,72431431,-34
32-12,72435337,-44
32-13,72439243,-44
32-14,72443149,-21
32-15,72447055,4
32-16,72450961,17
32-17,72454867,19
32-18,72458773,17
32-19,72462679,14
32-20,72466585,2
32-21,72470491,-19
32-22,72474397,-39
32-23,72478303,-42
32-24,72482209,-45
32-25,72486115,-49
32-26,72490021,-40
32-27,72493927,-18
32-28,72497833,5
32-29,72501739,9
32-30,72505645,-12
32-31,72509551,-38
32-32,72513457,-56
32-1,72517369,-59
32-2,72521275,-45
32-3,72525181,-25
32-4,72529087,-11
32-5,72532993,-2
32-6,72536899,1
32-7,72540805,3
32-8,72544711,8
32-9,72548617,8
32-10,72552523,-3
32-11,72556429,-19
32-12,72560335,-32
32-13,72564241,-47
32-14,72568147,-58
32-15,72572053,-58
32-16,72575959,-46
32-17,72579865,-34
32-18,72583771,-35
32-19,72587677,-45
32-20,72591583,-53
32-21,72595489,-52
32-22,72599395,-47
32-23,72603301,-40
32-24,72607207,-41
32-25,72611113,-50
32-26,72615019,-54
32-27,72618925,-48
32-28,72622831,-31
32-29,72626737,-17
32-30,72630643,-24
32-31,72634549,-42
32-32,72638455,-53
32-1,72642367,-45
32-2,72646273,-33
32-3,72650179,-36
32-4,72654085,-47
32-5,72657991,-46
32-6,72661897,-33
32-7,72665803,-24
32-8,72669709,-23
32-9,72673615,-32
32-10,72677521,-40
32-11,72681427,-52
32-12,72685333,-55
32-13,72689239,-45
32-14,72693145,-20
32-15,72697051,1
32-16,72700957,13
32-17,72704863,10
32-18,72708769,-2
32-19,72712675,-18
32-20,72716581,-31
32-21,72720487,-24
32-22,72724393,5
32-23,72728299,42
32-24,72732205,53
32-25,72736111,35
32-26,72740017,14
32-27,72743923,10
32-28,72747829,11
32-29,72751735,-1
32-30,72755641,-29
32-31,72759547,-61
32-32,72763453,-78
32-1,72767395,-75
32-2,72771301,-57
32-3,72775207,-38
32-4,72779113,-29
32-5,72783019,-29
32-6,72786925,-38
32-7,72790831,-43
32-8,72794737,-42
32-9,72798643,-45
32-10,72802549,-55
32-11,72806455,-59
32-12,72810361,-52
32-13,72814267,-35
32-14,72818173,-18
32-15,72822079,-7
32-16,72825985,-4
32-17,72829891,-10
32-18,72833797,-20
32-19,72837703,-26
32-20,72841609,-25
32-21,72845515,-22
32-22,72849421,-33
32-23,72853327,-52
32-24,72857233,-69
32-25,72861139,-75
32-26,72865045,-62
32-27,72868951,-39
32-28,72872857,-20
32-29,72876763,-12
32-30,72880669,-26
32-31,72884575,-49
32-32,72888481,-60
32-1,72892362,-54
32-2,72896268,-40
32-3,72900174,-32
32-4,72904080,-34
32-5,72907986,-31
32-6,72911892,-33
32-7,72915798,-45
32-8,72919704,-52
32-9,72923610,-53
32-10,72927516,-46
32-11,72931422,-44
32-12,72935328,-49
32-13,72939234,-53
32-14,72943140,-50
32-15,72947046,-49
32-16,72950952,-53
32-17,72954858,-61
32-18,72958764,-64
32-19,72962670,-62
32-20,72966576,-66
32-21,72970482,-68
32-22,72974388,-69
32-23,72978294,-69
32-24,72982200,-82
32-25,72986106,-100
32-26,72990012,-94
32-27,72993918,-61
32-28,72997824,-37
32-29,73001730,-47
32-30,73005636,-84
32-31,73009542,-116
32-32,73013448,-123
32-1,73017359,-111
32-2,73021265,-90
32-3,73025171,-73
32-4,73029077,-65
32-5,73032983,-62
32-6,73036889,-62
32-7,73040795,-68
32-8,73044701,-71
32-9,73048607,-77
32-10,73052513,-85
32-11,73056419,-92
32-12,73060325,-89
32-13,73064231,-86
32-14,73068137,-88
32-15,73072043,-94
32-16,73075949,-94
32-17,73079855,-89
32-18,73083761,-84
32-19,73087667,-82
32-20,73091573,-84
32-21,73095479,-90
32-22,73099385,-97
32-23,73103291,-94
32-24,73107197,-82
32-25,73111103,-73
32-26,73115009,-65
32-27,73118915,-43
32-28,73122821,-15
32-29,73126727,4
32-30,73130633,-11
32-31,73134539,-51
32-32,73138445,-78
32-1,73142357,-72
32-2,73146263,-48
32-3,73150169,-38
32-4,73154075,-53
32-5,73157981,-70
32-6,73161887,-74
32-7,73165793,-71
32-8,73169699,-59
32-9,73173605,-43
32-10,73177511,-32
32-11,73181417,-42
32-12,73185323,-62
32-13,73189229,-73
32-14,73193135,-58
32-15,73197041,-39
32-16,73200947,-30
32-17,73204853,-36
32-18,73208759,-38
32-19,73212665,-26
32-20,73216571,-11
32-21,73220477,-4
32-22,73224383,-7
32-23,73228289,-8
32-24,73232195,-13
32-25,73236101,-13
32-26,73240007,-2
32-27,73243913,17
32-28,73247819,27
32-29,73251725,18
32-30,73255631,-11
32-31,73259537,-45
32-32,73263443,-68
32-1,73267416,-73
32-2,73271322,-57
32-3,73275228,-26
32-4,73279134,2
32-5,73283040,16
32-6,73286946,13
32-7,73290852,2
32-8,73294758,-7
32-9,73298664,-21
32-10,73302570,-31
32-11,73306476,-33
32-12,73310382,-26
32-13,73314288,-26
32-14,73318194,-34
32-15,73322100,-45
32-16,73326006,-46
32-17,73329912,-44
32-18,73333818,-47
32-19,73337724,-51
32-20,73341630,-49
32-21,73345536,-38
32-22,73349442,-26
32-23,73353348,-14
32-24,73357254,-7
32-25,73361160,-9
32-26,73365066,-16
32-27,73368972,-20
32-28,73372878,-16
32-29,73376784,-10
32-30,73380690,-16
32-31,73384596,-34
32-32,73388502,-43
32-1,73392352,-28
32-2,73396258,3
32-3,73400164,24
32-4,73404070,23
32-5,73407976,17
32-6,73411882,16
32-7,73415788,13
32-8,73419694,10
32-9,73423600,9
32-10,73427506,10
32-11,73431412,7
32-12,73435318,3
32-13,73439224,0
32-14,73443130,-2
32-15,73447036,-8
32-16,73450942,-20
32-17,73454848,-26
32-18,73458754,-15
32-19,73462660,2
32-20,73466566,12
32-21,73470472,8
32-22,73474378,-8
32-23,73478284,-21
32-24,73482190,-33
32-25,73486096,-38
32-26,73490002,-26
32-27,73493908,-3
32-28,73497814,10
32-29,73501720,3
32-30,73505626,-18
32-31,73509532,-36
32-32,73513438,-43
32-1,73517411,-44
32-2,73521317,-37
32-3,73525223,-28
32-4,73529129,-26
32-5,73533035,-28
32-6,73536941,-35
32-7,73540847,-39
32-8,73544753,-31
32-9,73548659,-17
32-10,73552565,-4
32-11,73556471,5
32-12,73560377,8
32-13,73564283,2
32-14,73568189,-12
32-15,73572095,-24
32-16,73576001,-26
32-17,73579907,-28
32-18,73583813,-36
32-19,73587719,-40
32-20,73591625,-29
32-21,73595531,-7
32-22,73599437,4
32-23,73603343,1
32-24,73607249,-16
32-25,73611155,-37
32-26,73615061,-46
32-27,73618967,-35
32-28,73622873,-11
32-29,73626779,11
32-30,73630685,5
32-31,73634591,-25
32-32,73638497,-52
32-1,73642348,-57
32-2,73646254,-40
32-3,73650160,-28
32-4,73654066,-30
32-5,73657972,-30
32-6,73661878,-27
32-7,73665784,-24
32-8,73669690,-26
32-9,73673596,-32
32-10,73677502,-37
32-11,73681408,-40
32-12,73685314,-40
32-13,73689220,-36
32-14,73693126,-25
32-15,73697032,-16
32-16,73700938,-11
32-17,73704844,-13
32-18,73708750,-16
32-19,73712656,-15
32-20,73716562,-13
32-21,73720468,-4
32-22,73724374,5
32-23,73728280,15
32-24,73732186,13
32-25,73736092,1
32-26,73739998,0
32-27,73743904,13
32-28,73747810,24
32-29,73751716,16
32-30,73755622,-17
32-31,73759528,-52
32-32,73763434,-72
32-1,73767345,-75
32-2,73771251,-67
32-3,73775157,-59
32-4,73779063,-65
32-5,73782969,-72
32-6,73786875,-78
32-7,73790781,-72
32-8,73794687,-58
32-9,73798593,-49
32-10,73802499,-44
32-11,73806405,-44
32-12,73810311,-44
32-13,73814217,-53
32-14,73818123,-71
32-15,73822029,-83
32-16,73825935,-77
32-17,73829841,-59
32-18,73833747,-44
32-19,73837653,-39
32-20,73841559,-35
32-21,73845465,-24
32-22,73849371,-18
32-23,73853277,-20
32-24,73857183,-28
32-25,73861089,-34
32-26,73864995,-27
32-27,73868901,-8
32-28,73872807,12
32-29,73876713,18
32-30,73880619,2
32-31,73884525,-22
32-32,73888431,-28
32-1,73892465,-15
32-2,73896371,6
32-3,73900277,17
32-4,73904183,18
32-5,73908089,22
32-6,73911995,17
32-7,73915901,-6
32-8,73919807,-31
32-9,73923713,-41
32-10,73927619,-31
32-11,73931525,-28
32-12,73935431,-46
32-13,73939337,-70
32-14,73943243,-71
32-15,73947149,-45
32-16,73951055,-15
32-17,73954961,-4
32-18,73958867,-15
32-19,73962773,-31
32-20,73966679,-41
32-21,73970585,-40
32-22,73974491,-33
32-23,73978397,-23
32-24,73982303,-19
32-25,73986209,-27
32-26,73990115,-34
32-27,73994021,-37
32-28,73997927,-40
32-29,74001833,-43
32-30,74005739,-42
32-31,74009645,-40
32-32,74013551,-41
32-1,74017341,-45
32-2,74021247,-42
32-3,74025153,-27
32-4,74029059,-7
32-5,74032965,4
32-6,74036871,4
32-7,74040777,1
32-8,74044683,2
32-9,74048589,0
32-10,74052495,-5
32-11,74056401,-9
32-12,74060307,-3
32-13,74064213,4
32-14,74068119,6
32-15,74072025,-1
32-16,74075931,-12
32-17,74079837,-19
32-18,74083743,-18
32-19,74087649,-6
32-20,74091555,8
32-21,74095461,9
32-22,74099367,-13
32-23,74103273,-42
32-24,74107179,-61
32-25,74111085,-62
32-26,74114991,-41
32-27,74118897,-10
32-28,74122803,15
32-29,74126709,18
32-30,74130615,-9
32-31,74134521,-40
32-32,74138427,-44
32-1,74142338,-20
32-2,74146244,9
32-3,74150150,9
32-4,74154056,-19
32-5,74157962,-35
32-6,74161868,-31
32-7,74165774,-27
32-8,74169680,-27
32-9,74173586,-31
32-10,74177492,-25
32-11,74181398,-19
32-12,74185304,-26
32-13,74189210,-42
32-14,74193116,-52
32-15,74197022,-50
32-16,74200928,-35
32-17,74204834,-15
32-18,74208740,1
32-19,74212646,4
32-20,74216552,-5
32-21,74220458,-8
32-22,74224364,-4
32-23,74228270,5
32-24,74232176,-12
32-25,74236082,-51
32-26,74239988,-78
32-27,74243894,-73
32-28,74247800,-47
32-29,74251706,-35
32-30,74255612,-56
32-31,74259518,-85
32-32,74263424,-93
32-1,74267427,-78
32-2,74271333,-47
32-3,74275239,-24
32-4,74279145,-16
32-5,74283051,-14
32-6,74286957,-14
32-7,74290863,-8
32-8,74294769,-4
32-9,74298675,-13
32-10,74302581,-31
32-11,74306487,-43
32-12,74310393,-37
32-13,74314299,-25
32-14,74318205,-27
32-15,74322111,-47
32-16,74326017,-75
32-17,74329923,-97
32-18,74333829,-102
32-19,74337735,-87
32-20,74341641,-68
32-21,74345547,-55
32-22,74349453,-63
32-23,74353359,-72
32-24,74357265,-78
32-25,74361171,-80
32-26,74365077,-74
32-27,74368983,-62
32-28,74372889,-48
32-29,74376795,-38
32-30,74380701,-44
32-31,74384607,-65
32-32,74388513,-79
32-1,74392333,-68
32-2,74396239,-42
32-3,74400145,-29
32-4,74404051,-36
32-5,74407957,-47
32-6,74411863,-56
32-7,74415769,-66
32-8,74419675,-74
32-9,74423581,-79
32-10,74427487,-78
32-11,74431393,-77
32-12,74435299,-69
32-13,74439205,-56
32-14,74443111,-41
32-15,74447017,-36
32-16,74450923,-41
32-17,74454829,-47
32-18,74458735,-44
32-19,74462641,-34
32-20,74466547,-29
32-21,74470453,-28
32-22,74474359,-23
32-23,74478265,-11
32-24,74482171,-9
32-25,74486077,-21
32-26,74489983,-22
32-27,74493889,-1
32-28,74497795,23
32-29,74501701,26
32-30,74505607,-3
32-31,74509513,-42
32-32,74513419,-67
32-1,74517484,-71
32-2,74521390,-56
32-3,74525296,-42
32-4,74529202,-37
32-5,74533108,-35
32-6,74537014,-33
32-7,74540920,-30
32-8,74544826,-24
32-9,74548732,-28
32-10,74552638,-40
32-11,74556544,-47
32-12,74560450,-39
32-13,74564356,-24
32-14,74568262,-17
32-15,74572168,-21
32-16,74576074,-24
32-17,74579980,-23
32-18,74583886,-23
32-19,74587792,-22
32-20,74591698,-22
32-21,74595604,-23
32-22,74599510,-33
32-23,74603416,-45
32-24,74607322,-60
32-25,74611228,-68
32-26,74615134,-59
32-27,74619040,-33
32-28,74622946,0
32-29,74626852,20
32-30,74630758,9
32-31,74634664,-22
32-32,74638570,-39
32-1,74642329,-22
32-2,74646235,14
32-3,74650141,39
32-4,74654047,43
32-5,74657953,41
32-6,74661859,39
32-7,74665765,30
32-8,74669671,16
32-9,74673577,-3
32-10,74677483,-24
32-11,74681389,-43
32-12,74685295,-50
32-13,74689201,-40
32-14,74693107,-16
32-15,74697013,-3
32-16,74700919,-12
32-17,74704825,-26
32-18,74708731,-23
32-19,74712637,0
32-20,74716543,20
32-21,74720449,28
32-22,74724355,25
32-23,74728261,22
32-24,74732167,15
32-25,74736073,8
32-26,74739979,21
32-27,74743885,49
32-28,74747791,70
32-29,74751697,59
32-30,74755603,20
32-31,74759509,-12
32-32,74763415,-11
32-1,74767326,12
32-2,74771232,34
32-3,74775138,35
32-4,74779044,16
32-5,74782950,-8
32-6,74786856,-20
32-7,74790762,-16
32-8,74794668,4
32-9,74798574,18
32-10,74802480,22
32-11,74806386,17
32-12,74810292,8
32-13,74814198,-5
32-14,74818104,-17
32-15,74822010,-20
32-16,74825916,-10
32-17,74829822,0
32-18,74833728,-2
32-19,74837634,-14
32-20,74841540,-26
32-21,74845446,-29
32-22,74849352,-31
32-23,74853258,-32
32-24,74857164,-41
32-25,74861070,-57
32-26,74864976,-67
32-27,74868882,-63
32-28,74872788,-45
32-29,74876694,-29
32-30,74880600,-38
32-31,74884506,-67
32-32,74888412,-86
32-1,74892324,-85
32-2,74896230,-67
32-3,74900136,-57
32-4,74904042,-56
32-5,74907948,-45
32-6,74911854,-30
32-7,74915760,-26
32-8,74919666,-34
32-9,74923572,-46
32-10,74927478,-44
32-11,74931384,-35
32-12,74935290,-28
32-13,74939196,-19
32-14,74943102,-6
32-15,74947008,3
32-16,74950914,-1
32-17,74954820,-14
32-18,74958726,-23
32-19,74962632,-19
32-20,74966538,-15
32-21,74970444,-11
32-22,74974350,-4
32-23,74978256,9
32-24,74982162,19
32-25,74986068,12
32-26,74989974,-1
32-27,74993880,-7
32-28,74997786,-8
32-29,75001692,-7
32-30,75005598,-14
32-31,75009504,-29
32-32,75013410,-41
32-1,75017444,-48
32-2,75021350,-43
32-3,75025256,-35
32-4,75029162,-37
32-5,75033068,-47
32-6,75036974,-63
32-7,75040880,-74
32-8,75044786,-70
32-9,75048692,-60
32-10,75052598,-54
32-11,75056504,-51
32-12,75060410,-46
32-13,75064316,-44
32-14,75068222,-51
32-15,75072128,-59
32-16,75076034,-67
32-17,75079940,-78
32-18,75083846,-94
32-19,75087752,-104
32-20,75091658,-95
32-21,75095564,-64
32-22,75099470,-37
32-23,75103376,-25
32-24,75107282,-34
32-25,75111188,-52
32-26,75115094,-53
32-27,75119000,-32
32-28,75122906,2
32-29,75126812,23
32-30,75130718,8
32-31,75134624,-30
32-32,75138530,-54
32-1,75142472,-51
32-2,75146378,-37
32-3,75150284,-40
32-4,75154190,-56
32-5,75158096,-60
32-6,75162002,-47
32-7,75165908,-40
32-8,75169814,-41
32-9,75173720,-46
32-10,75177626,-41
32-11,75181532,-31
32-12,75185438,-23
32-13,75189344,-24
32-14,75193250,-26
32-15,75197156,-24
32-16,75201062,-21
32-17,75204968,-16
32-18,75208874,-13
32-19,75212780,-9
32-20,75216686,-11
32-21,75220592,-16
32-22,75224498,-25
32-23,75228404,-25
32-24,75232310,-22
32-25,75236216,-18
32-26,75240122,1
32-27,75244028,31
32-28,75247934,49
32-29,75251840,42
32-30,75255746,10
32-31,75259652,-25
32-32,75263558,-47
32-1,75267378,-55
32-2,75271284,-52
32-3,75275190,-47
32-4,75279096,-49
32-5,75283002,-49
32-6,75286908,-44
32-7,75290814,-34
32-8,75294720,-24
32-9,75298626,-27
32-10,75302532,-40
32-11,75306438,-52
32-12,75310344,-45
32-13,75314250,-31
32-14,75318156,-24
32-15,75322062,-28
32-16,75325968,-34
32-17,75329874,-36
32-18,75333780,-38
32-19,75337686,-35
32-20,75341592,-26
32-21,75345498,-6
32-22,75349404,12
32-23,75353310,26
32-24,75357216,22
32-25,75361122,0
32-26,75365028,-19
32-27,75368934,-20
32-28,75372840,-4
32-29,75376746,12
32-30,75380652,-2
32-31,75384558,-38
32-32,75388464,-63
32-1,75392314,-50
32-2,75396220,-8
32-3,75400126,23
32-4,75404032,22
32-5,75407938,0
32-6,75411844,-30
32-7,75415750,-63
32-8,75419656,-87
32-9,75423562,-102
32-10,75427468,-106
32-11,75431374,-105
32-12,75435280,-100
32-13,75439186,-89
32-14,75443092,-67
32-15,75446998,-44
32-16,75450904,-31
32-17,75454810,-34
32-18,75458716,-48
32-19,75462622,-62
32-20,75466528,-75
32-21,75470434,-80
32-22,75474340,-75
32-23,75478246,-65
32-24,75482152,-66
32-25,75486058,-75
32-26,75489964,-66
32-27,75493870,-34
32-28,75497776,-8
32-29,75501682,-16
32-30,75505588,-55
32-31,75509494,-91
32-32,75513400,-99
32-1,75517312,-89
32-2,75521218,-75
32-3,75525124,-63
32-4,75529030,-50
32-5,75532936,-29
32-6,75536842,-7
32-7,75540748,2
32-8,75544654,-1
32-9,75548560,-14
32-10,75552466,-30
32-11,75556372,-39
32-12,75560278,-34
32-13,75564184,-31
32-14,75568090,-33
32-15,75571996,-39
32-16,75575902,-44
32-17,75579808,-43
32-18,75583714,-45
32-19,75587620,-47
32-20,75591526,-47
32-21,75595432,-46
32-22,75599338,-48
32-23,75603244,-48
32-24,75607150,-50
32-25,75611056,-48
32-26,75614962,-40
32-27,75618868,-26
32-28,75622774,-11
32-29,75626680,-2
32-30,75630586,-9
32-31,75634492,-22
32-32,75638398,-24
32-1,75642310,-11
32-2,75646216,5
32-3,75650122,0
32-4,75654028,-20
32-5,75657934,-35
32-6,75661840,-48
32-7,75665746,-64
32-8,75669652,-72
32-9,75673558,-66
32-10,75677464,-45
32-11,75681370,-28
32-12,75685276,-26
32-13,75689182,-30
32-14,75693088,-27
32-15,75696994,-21
32-16,75700900,-21
32-17,75704806,-30
32-18,75708712,-42
32-19,75712618,-47
32-20,75716524,-49
32-21,75720430,-44
32-22,75724336,-39
32-23,75728242,-25
32-24,75732148,-15
32-25,75736054,-16
32-26,75739960,-14
32-27,75743866,-6
32-28,75747772,1
32-29,75751678,0
32-30,75755584,-8
32-31,75759490,-12
32-32,75763396,-12
32-1,75767307,-16
32-2,75771213,-17
32-3,75775119,-24
32-4,75779025,-32
32-5,75782931,-35
32-6,75786837,-32
32-7,75790743,-25
32-8,75794649,-18
32-9,75798555,-27
32-10,75802461,-48
32-11,75806367,-66
32-12,75810273,-65
32-13,75814179,-48
32-14,75818085,-35
32-15,75821991,-33
32-16,75825897,-41
32-17,75829803,-48
32-18,75833709,-55
32-19,75837615,-57
32-20,75841521,-54
32-21,75845427,-44
32-22,75849333,-39
32-23,75853239,-35
32-24,75857145,-37
32-25,75861051,-43
32-26,75864957,-51
32-27,75868863,-58
32-28,75872769,-55
32-29,75876675,-46
32-30,75880581,-44
32-31,75884487,-51
32-32,75888393,-59
32-1,75892305,-64
32-2,75896211,-61
32-3,75900117,-57
32-4,75904023,-53
32-5,75907929,-39
32-6,75911835,-24
32-7,75915741,-21
32-8,75919647,-24
32-9,75923553,-33
32-10,75927459,-39
32-11,75931365,-46
32-12,75935271,-51
32-13,75939177,-43
32-14,75943083,-20
32-15,75946989,5
32-16,75950895,18
32-17,75954801,17
32-18,75958707,13
32-19,75962613,11
32-20,75966519,-2
32-21,75970425,-22
32-22,75974331,-32
32-23,75978237,-11
32-24,75982143,18
32-25,75986049,29
32-26,75989955,29
32-27,75993861,25
32-28,75997767,23
32-29,76001673,18
32-30,76005579,0
32-31,76009485,-23
32-32,76013391,-40
32-1,76017303,-49
32-2,76021209,-49
32-3,76025115,-47
32-4,76029021,-48
32-5,76032927,-50
32-6,76036833,-54
32-7,76040739,-56
32-8,76044645,-46
32-9,76048551,-31
32-10,76052457,-12
32-11,76056363,1
32-12,76060269,7
32-13,76064175,-1
32-14,76068081,-17
32-15,76071987,-32
32-16,76075893,-39
32-17,76079799,-35
32-18,76083705,-28
32-19,76087611,-18
32-20,76091517,-6
32-21,76095423,9
32-22,76099329,9
32-23,76103235,3
32-24,76107141,-8
32-25,76111047,-20
32-26,76114953,-25
32-27,76118859,-23
32-28,76122765,-16
32-29,76126671,-13
32-30,76130577,-23
32-31,76134483,-43
32-32,76138389,-56
32-1,76142300,-53
32-2,76146206,-35
32-3,76150112,-23
32-4,76154018,-15
32-5,76157924,-6
32-6,76161830,-2
32-7,76165736,-15
32-8,76169642,-36
32-9,76173548,-50
32-10,76177454,-46
32-11,76181360,-32
32-12,76185266,-16
32-13,76189172,-11
32-14,76193078,-26
32-15,76196984,-52
32-16,76200890,-71
32-17,76204796,-65
32-18,76208702,-38
32-19,76212608,-14
32-20,76216514,-21
32-21,76220420,-49
32-22,76224326,-76
32-23,76228232,-74
32-24,76232138,-59
32-25,76236044,-51
32-26,76239950,-42
32-27,76243856,-28
32-28,76247762,-17
32-29,76251668,-17
32-30,76255574,-31
32-31,76259480,-51
32-32,76263386,-67
32-1,76267298,-73
32-2,76271204,-64
32-3,76275110,-50
32-4,76279016,-39
32-5,76282922,-34
32-6,76286828,-37
32-7,76290734,-43
32-8,76294640,-45
32-9,76298546,-52
32-10,76302452,-63
32-11,76306358,-74
32-12,76310264,-70
32-13,76314170,-51
32-14,76318076,-29
32-15,76321982,-11
32-16,76325888,-6
32-17,76329794,-18
32-18,76333700,-39
32-19,76337606,-51
32-20,76341512,-52
32-21,76345418,-41
32-22,76349324,-34
32-23,76353230,-35
32-24,76357136,-42
32-25,76361042,-52
32-26,76364948,-56
32-27,76368854,-46
32-28,76372760,-33
32-29,76376666,-31
32-30,76380572,-47
32-31,76384478,-63
32-32,76388384,-55
32-1,76392296,-22
32-2,76396202,10
32-3,76400108,10
32-4,76404014,-14
32-5,76407920,-31
32-6,76411826,-32
32-7,76415732,-29
32-8,76419638,-25
32-9,76423544,-15
32-10,76427450,2
32-11,76431356,11
32-12,76435262,1
32-13,76439168,-16
32-14,76443074,-26
32-15,76446980,-26
32-16,76450886,-24
32-17,76454792,-22
32-18,76458698,-23
32-19,76462604,-28
32-20,76466510,-45
32-21,76470416,-61
32-22,76474322,-66
32-23,76478228,-45
32-24,76482134,-21
32-25,76486040,-10
32-26,76489946,-4
32-27,76493852,-4
32-28,76497758,-12
32-29,76501664,-37
32-30,76505570,-74
32-31,76509476,-91
32-32,76513382,-78
32-1,76517446,-50
32-2,76521352,-25
32-3,76525258,-20
32-4,76529164,-30
32-5,76533070,-42
32-6,76536976,-51
32-7,76540882,-52
32-8,76544788,-40
32-9,76548694,-30
32-10,76552600,-31
32-11,76556506,-37
32-12,76560412,-38
32-13,76564318,-33
32-14,76568224,-27
32-15,76572130,-21
32-16,76576036,-19
32-17,76579942,-20
32-18,76583848,-31
32-19,76587754,-40
32-20,76591660,-36
32-21,76595566,-21
32-22,76599472,-10
32-23,76603378,-8
32-24,76607284,-16
32-25,76611190,-21
32-26,76615096,-15
32-27,76619002,-3
32-28,76622908,13
32-29,76626814,22
32-30,76630720,11
32-31,76634626,-14
32-32,76638532,-39
32-1,76642291,-55
32-2,76646197,-59
32-3,76650103,-64
32-4,76654009,-70
32-5,76657915,-62
32-6,76661821,-45
32-7,76665727,-36
32-8,76669633,-39
32-9,76673539,-50
32-10,76677445,-58
32-11,76681351,-63
32-12,76685257,-66
32-13,76689163,-62
32-14,76693069,-48
32-15,76696975,-33
32-16,76700881,-27
32-17,76704787,-29
32-18,76708693,-29
32-19,76712599,-22
32-20,76716505,-17
32-21,76720411,-16
32-22,76724317,-24
32-23,76728223,-28
32-24,76732129,-43
32-25,76736035,-70
32-26,76739941,-75
32-27,76743847,-48
32-28,76747753,-15
32-29,76751659,-5
32-30,76755565,-33
32-31,76759471,-68
32-32,76763377,-78
32-1,76767288,-68
32-2,76771194,-50
32-3,76775100,-40
32-4,76779006,-42
32-5,76782912,-41
32-6,76786818,-40
32-7,76790724,-40
32-8,76794630,-32
32-9,76798536,-25
32-10,76802442,-20
32-11,76806348,-20
32-12,76810254,-17
32-13,76814160,-15
32-14,76818066,-17
32-15,76821972,-21
32-16,76825878,-30
32-17,76829784,-38
32-18,76833690,-43
32-19,76837596,-41
32-20,76841502,-32
32-21,76845408,-23
32-22,76849314,-32
32-23,76853220,-46
32-24,76857126,-65
32-25,76861032,-76
32-26,76864938,-71
32-27,76868844,-54
32-28,76872750,-27
32-29,76876656,-7
32-30,76880562,-13
32-31,76884468,-43
32-32,76888374,-69
32-1,76892286,-68
32-2,76896192,-46
32-3,76900098,-30
32-4,76904004,-33
32-5,76907910,-38
32-6,76911816,-42
32-7,76915722,-49
32-8,76919628,-52
32-9,76923534,-49
32-10,76927440,-38
32-11,76931346,-27
32-12,76935252,-19
32-13,76939158,-12
32-14,76943064,1
32-15,76946970,15
32-16,76950876,14
32-17,76954782,0
32-18,76958688,-22
32-19,76962594,-38
32-20,76966500,-51
32-21,76970406,-56
32-22,76974312,-53
32-23,76978218,-36
32-24,76982124,-21
32-25,76986030,-17
32-26,76989936,-9
32-27,76993842,-2
32-28,76997748,-2
32-29,77001654,-19
32-30,77005560,-46
32-31,77009466,-64
32-32,77013372,-60
32-1,77017284,-45
32-2,77021190,-22
32-3,77025096,-11
32-4,77029002,-17
32-5,77032908,-38
32-6,77036814,-65
32-7,77040720,-81
32-8,77044626,-70
32-9,77048532,-47
32-10,77052438,-28
32-11,77056344,-20
32-12,77060250,-20
32-13,77064156,-26
32-14,77068062,-27
32-15,77071968,-18
32-16,77075874,-1
32-17,77079780,11
32-18,77083686,5
32-19,77087592,-9
32-20,77091498,-21
32-21,77095404,-19
32-22,77099310,-12
32-23,77103216,-7
32-24,77107122,-10
32-25,77111028,-16
32-26,77114934,-12
32-27,77118840,1
32-28,77122746,14
32-29,77126652,14
32-30,77130558,-4
32-31,77134464,-28
32-32,77138370,-37
32-1,77142281,-28
32-2,77146187,-12
32-3,77150093,-7
32-4,77153999,-11
32-5,77157905,-6
32-6,77161811,3
32-7,77165717,1
32-8,77169623,-10
32-9,77173529,-20
32-10,77177435,-20
32-11,77181341,-17
32-12,77185247,-19
32-13,77189153,-24
32-14,77193059,-28
32-15,77196965,-34
32-16,77200871,-42
32-17,77204777,-44
32-18,77208683,-33
32-19,77212589,-18
32-20,77216495,-19
32-21,77220401,-29
32-22,77224307,-39
32-23,77228213,-34
32-24,77232119,-26
32-25,77236025,-23
32-26,77239931,-14
32-27,77243837,-1
32-28,77247743,3
32-29,77251649,-12
32-30,77255555,-41
32-31,77259461,-56
32-32,77263367,-49
32-1,77267462,-40
32-2,77271368,-42
32-3,77275274,-56
32-4,77279180,-65
32-5,77283086,-58
32-6,77286992,-47
32-7,77290898,-34
32-8,77294804,-17
32-9,77298710,-4
32-10,77302616,1
32-11,77306522,-3
32-12,77310428,-4
32-13,77314334,-1
32-14,77318240,3
32-15,77322146,12
32-16,77326052,19
32-17,77329958,19
32-18,77333864,4
32-19,77337770,-15
32-20,77341676,-28
32-21,77345582,-20
32-22,77349488,-8
32-23,77353394,4
32-24,77357300,7
32-25,77361206,-3
32-26,77365112,-13
32-27,77369018,-22
32-28,77372924,-31
32-29,77376830,-40
32-30,77380736,-60
32-31,77384642,-87
32-32,77388548,-101
32-1,77392277,-98
32-2,77396183,-80
32-3,77400089,-66
32-4,77403995,-61
32-5,77407901,-49
32-6,77411807,-30
32-7,77415713,-15
32-8,77419619,-4
32-9,77423525,-5
32-10,77427431,-8
32-11,77431337,-13
32-12,77435243,-14
32-13,77439149,-11
32-14,77443055,-7
32-15,77446961,-12
32-16,77450867,-33
32-17,77454773,-54
32-18,77458679,-59
32-19,77462585,-44
32-20,77466491,-26
32-21,77470397,-18
32-22,77474303,-28
32-23,77478209,-38
32-24,77482115,-54
32-25,77486021,-70
32-26,77489927,-58
32-27,77493833,-20
32-28,77497739,19
32-29,77501645,25
32-30,77505551,-16
32-31,77509457,-73
32-32,77513363,-106
32-1,77517274,-103
32-2,77521180,-65
32-3,77525086,-26
32-4,77528992,-9
32-5,77532898,-5
32-6,77536804,-8
32-7,77540710,-9
32-8,77544616,-1
32-9,77548522,0
32-10,77552428,-7
32-11,77556334,-12
32-12,77560240,-8
32-13,77564146,0
32-14,77568052,1
32-15,77571958,-8
32-16,77575864,-24
32-17,77579770,-45
32-18,77583676,-69
32-19,77587582,-80
32-20,77591488,-76
32-21,77595394,-63
32-22,77599300,-59
32-23,77603206,-54
32-24,77607112,-40
32-25,77611018,-14
32-26,77614924,14
32-27,77618830,28
32-28,77622736,26
32-29,77626642,12
32-30,77630548,-10
32-31,77634454,-36
32-32,77638360,-47
32-1,77642272,-40
32-2,77646178,-24
32-3,77650084,-20
32-4,77653990,-30
32-5,77657896,-36
32-6,77661802,-33
32-7,77665708,-33
32-8,77669614,-32
32-9,77673520,-25
32-10,77677426,-12
32-11,77681332,-8
32-12,77685238,-21
32-13,77689144,-44
32-14,77693050,-60
32-15,77696956,-61
32-16,77700862,-63
32-17,77704768,-63
32-18,77708674,-62
32-19,77712580,-59
32-20,77716486,-60
32-21,77720392,-59
32-22,77724298,-55
32-23,77728204,-43
32-24,77732110,-44
32-25,77736016,-61
32-26,77739922,-65
32-27,77743828,-44
32-28,77747734,-12
32-29,77751640,0
32-30,77755546,-22
32-31,77759452,-52
32-32,77763358,-59
32-1,77767269,-42
32-2,77771175,-12
32-3,77775081,-1
32-4,77778987,-16
32-5,77782893,-44
32-6,77786799,-70
32-7,77790705,-77
32-8,77794611,-64
32-9,77798517,-50
32-10,77802423,-49
32-11,77806329,-57
32-12,77810235,-61
32-13,77814141,-58
32-14,77818047,-57
32-15,77821953,-56
32-16,77825859,-51
32-17,77829765,-42
32-18,77833671,-36
32-19,77837577,-36
32-20,77841483,-42
32-21,77845389,-43
32-22,77849295,-43
32-23,77853201,-31
32-24,77857107,-13
32-25,77861013,2
32-26,77864919,12
32-27,77868825,7
32-28,77872731,-5
32-29,77876637,-20
32-30,77880543,-43
32-31,77884449,-67
32-32,77888355,-79
32-1,77892267,-73
32-2,77896173,-55
32-3,77900079,-46
32-4,77903985,-45
32-5,77907891,-39
32-6,77911797,-31
32-7,77915703,-28
32-8,77919609,-32
32-9,77923515,-36
32-10,77927421,-37
32-11,77931327,-45
32-12,77935233,-61
32-13,77939139,-68
32-14,77943045,-51
32-15,77946951,-22
32-16,77950857,-15
32-17,77954763,-32
32-18,77958669,-49
32-19,77962575,-43
32-20,77966481,-23
32-21,77970387,-10
32-22,77974293,-13
32-23,77978199,-19
32-24,77982105,-26
32-25,77986011,-30
32-26,77989917,-18
32-27,77993823,1
32-28,77997729,11
32-29,78001635,1
32-30,78005541,-16
32-31,78009447,-25
32-32,78013353,-20
32-1,78017448,-23
32-2,78021354,-42
32-3,78025260,-72
32-4,78029166,-91
32-5,78033072,-90
32-6,78036978,-80
32-7,78040884,-70
32-8,78044790,-53
32-9,78048696,-36
32-10,78052602,-26
32-11,78056508,-20
32-12,78060414,-14
32-13,78064320,-10
32-14,78068226,-4
32-15,78072132,7
32-16,78076038,26
32-17,78079944,35
32-18,78083850,14
32-19,78087756,-23
32-20,78091662,-62
32-21,78095568,-77
32-22,78099474,-67
32-23,78103380,-39
32-24,78107286,-11
32-25,78111192,0
32-26,78115098,-1
32-27,78119004,-7
32-28,78122910,-7
32-29,78126816,-3
32-30,78130722,-6
32-31,78134628,-21
32-32,78138534,-32
32-1,78142262,-28
32-2,78146168,-13
32-3,78150074,-11
32-4,78153980,-27
32-5,78157886,-35
32-6,78161792,-25
32-7,78165698,-14
32-8,78169604,-13
32-9,78173510,-28
32-10,78177416,-47
32-11,78181322,-56
32-12,78185228,-54
32-13,78189134,-40
32-14,78193040,-29
32-15,78196946,-34
32-16,78200852,-56
32-17,78204758,-75
32-18,78208664,-72
32-19,78212570,-44
32-20,78216476,-23
32-21,78220382,-22
32-22,78224288,-40
32-23,78228194,-48
32-24,78232100,-52
32-25,78236006,-62
32-26,78239912,-56
32-27,78243818,-29
32-28,78247724,3
32-29,78251630,16
32-30,78255536,-5
32-31,78259442,-41
32-32,78263348,-67
32-1,78267260,-78
32-2,78271166,-73
32-3,78275072,-61
32-4,78278978,-48
32-5,78282884,-31
32-6,78286790,-20
32-7,78290696,-11
32-8,78294602,4
32-9,78298508,12
32-10,78302414,8
32-11,78306320,-8
32-12,78310226,-25
32-13,78314132,-35
32-14,78318038,-39
32-15,78321944,-33
32-16,78325850,-19
32-17,78329756,-7
32-18,78333662,-13
32-19,78337568,-37
32-20,78341474,-60
32-21,78345380,-62
32-22,78349286,-51
32-23,78353192,-36
32-24,78357098,-32
32-25,78361004,-33
32-26,78364910,-23
32-27,78368816,-3
32-28,78372722,18
32-29,78376628,19
32-30,78380534,-7
32-31,78384440,-41
32-32,78388346,-50
32-1,78392258,-29
32-2,78396164,7
32-3,78400070,22
32-4,78403976,9
32-5,78407882,-8
32-6,78411788,-16
32-7,78415694,-23
32-8,78419600,-34
32-9,78423506,-43
32-10,78427412,-38
32-11,78431318,-23
32-12,78435224,-11
32-13,78439130,-9
32-14,78443036,-20
32-15,78446942,-33
32-16,78450848,-37
32-17,78454754,-24
32-18,78458660,-6
32-19,78462566,-4
32-20,78466472,-31
32-21,78470378,-69
32-22,78474284,-96
32-23,78478190,-92
32-24,78482096,-79
32-25,78486002,-77
32-26,78489908,-67
32-27,78493814,-35
32-28,78497720,5
32-29,78501626,25
32-30,78505532,8
32-31,78509438,-24
32-32,78513344,-42
32-1,78517255,-44
32-2,78521161,-35
32-3,78525067,-36
32-4,78528973,-48
32-5,78532879,-63
32-6,78536785,-73
32-7,78540691,-60
32-8,78544597,-33
32-9,78548503,-14
32-10,78552409,-22
32-11,78556315,-54
32-12,78560221,-83
32-13,78564127,-90
32-14,78568033,-85
32-15,78571939,-71
32-16,78575845,-59
32-17,78579751,-54
32-18,78583657,-54
32-19,78587563,-47
32-20,78591469,-30
32-21,78595375,-4
32-22,78599281,8
32-23,78603187,2
32-24,78607093,-11
32-25,78610999,-17
32-26,78614905,-11
32-27,78618811,-6
32-28,78622717,-15
32-29,78626623,-41
32-30,78630529,-79
32-31,78634435,-114
32-32,78638341,-124
32-1,78642253,-108
32-2,78646159,-79
32-3,78650065,-66
32-4,78653971,-71
32-5,78657877,-70
32-6,78661783,-60
32-7,78665689,-49
32-8,78669595,-45
32-9,78673501,-47
32-10,78677407,-45
32-11,78681313,-44
32-12,78685219,-48
32-13,78689125,-55
32-14,78693031,-53
32-15,78696937,-37
32-16,78700843,-17
32-17,78704749,0
32-18,78708655,10
32-19,78712561,4
32-20,78716467,-20
32-21,78720373,-47
32-22,78724279,-63
32-23,78728185,-60
32-24,78732091,-61
32-25,78735997,-72
32-26,78739903,-68
32-27,78743809,-45
32-28,78747715,-15
32-29,78751621,-3
32-30,78755527,-15
32-31,78759433,-33
32-32,78763339,-42
32-1,78767434,-53
32-2,78771340,-64
32-3,78775246,-72
32-4,78779152,-70
32-5,78783058,-63
32-6,78786964,-58
32-7,78790870,-53
32-8,78794776,-38
32-9,78798682,-21
32-10,78802588,-17
32-11,78806494,-28
32-12,78810400,-37
32-13,78814306,-39
32-14,78818212,-36
32-15,78822118,-33
32-16,78826024,-35
32-17,78829930,-39
32-18,78833836,-44
32-19,78837742,-39
32-20,78841648,-24
32-21,78845554,-3
32-22,78849460,2
32-23,78853366,-12
32-24,78857272,-40
32-25,78861178,-64
32-26,78865084,-64
32-27,78868990,-44
32-28,78872896,-15
32-29,78876802,8
32-30,78880708,11
32-31,78884614,-7
32-32,78888520,-21
32-1,78892248,-24
32-2,78896154,-10
32-3,78900060,2
32-4,78903966,11
32-5,78907872,25
32-6,78911778,34
32-7,78915684,22
32-8,78919590,-6
32-9,78923496,-31
32-10,78927402,-29
32-11,78931308,-12
32-12,78935214,-6
32-13,78939120,-16
32-14,78943026,-31
32-15,78946932,-35
32-16,78950838,-33
32-17,78954744,-39
32-18,78958650,-52
32-19,78962556,-58
32-20,78966462,-60
32-21,78970368,-52
32-22,78974274,-47
32-23,78978180,-38
32-24,78982086,-38
32-25,78985992,-53
32-26,78989898,-48
32-27,78993804,-15
32-28,78997710,29
32-29,79001616,49
32-30,79005522,26
32-31,79009428,-18
32-32,79013334,-42
32-1,79017246,-32
32-2,79021152,2
32-3,79025058,23
32-4,79028964,13
32-5,79032870,-5
32-6,79036776,-16
32-7,79040682,-11
32-8,79044588,4
32-9,79048494,2
32-10,79052400,-22
32-11,79056306,-44
32-12,79060212,-40
32-13,79064118,-22
32-14,79068024,-12
32-15,79071930,-20
32-16,79075836,-34
32-17,79079742,-35
32-18,79083648,-28
32-19,79087554,-18
32-20,79091460,-9
32-21,79095366,3
32-22,79099272,8
32-23,79103178,10
32-24,79107084,7
32-25,79110990,6
32-26,79114896,19
32-27,79118802,36
32-28,79122708,47
32-29,79126614,45
32-30,79130520,26
32-31,79134426,-5
32-32,79138332,-31
32-1,79142243,-43
32-2,79146149,-35
32-3,79150055,-22
32-4,79153961,-10
32-5,79157867,0
32-6,79161773,3
32-7,79165679,-7
32-8,79169585,-22
32-9,79173491,-28
32-10,79177397,-23
32-11,79181303,-15
32-12,79185209,-18
32-13,79189115,-28
32-14,79193021,-30
32-15,79196927,-14
32-16,79200833,3
32-17,79204739,13
32-18,79208645,8
32-19,79212551,-1
32-20,79216457,-13
32-21,79220363,-24
32-22,79224269,-35
32-23,79228175,-46
32-24,79232081,-65
32-25,79235987,-88
32-26,79239893,-88
32-27,79243799,-59
32-28,79247705,-21
32-29,79251611,-3
32-30,79255517,-11
32-31,79259423,-24
32-32,79263329,-15
32-1,79267241,7
32-2,79271147,24
32-3,79275053,20
32-4,79278959,1
32-5,79282865,-12
32-6,79286771,-19
32-7,79290677,-19
32-8,79294583,-16
32-9,79298489,-18
32-10,79302395,-24
32-11,79306301,-26
32-12,79310207,-16
32-13,79314113,-6
32-14,79318019,-10
32-15,79321925,-25
32-16,79325831,-36
32-17,79329737,-29
32-18,79333643,-11
32-19,79337549,-2
32-20,79341455,-6
32-21,79345361,-17
32-22,79349267,-28
32-23,79353173,-31
32-24,79357079,-32
32-25,79360985,-33
32-26,79364891,-27
32-27,79368797,-15
32-28,79372703,2
32-29,79376609,5
32-30,79380515,-20
32-31,79384421,-70
32-32,79388327,-109
32-1,79392300,-116
32-2,79396206,-91
32-3,79400112,-64
32-4,79404018,-50
32-5,79407924,-44
32-6,79411830,-46
32-7,79415736,-59
32-8,79419642,-74
32-9,79423548,-77
32-10,79427454,-60
32-11,79431360,-41
32-12,79435266,-39
32-13,79439172,-53
32-14,79443078,-69
32-15,79446984,-73
32-16,79450890,-76
32-17,79454796,-84
32-18,79458702,-92
32-19,79462608,-86
32-20,79466514,-77
32-21,79470420,-68
32-22,79474326,-60
32-23,79478232,-41
32-24,79482138,-20
32-25,79486044,-9
32-26,79489950,-6
32-27,79493856,-11
32-28,79497762,-21
32-29,79501668,-29
32-30,79505574,-26
32-31,79509480,-11
32-32,79513386,4
32-1,79517419,0
32-2,79521325,-19
32-3,79525231,-35
32-4,79529137,-31
32-5,79533043,-21
32-6,79536949,-28
32-7,79540855,-44
32-8,79544761,-46
32-9,79548667,-31
32-10,79552573,-12
32-11,79556479,1
32-12,79560385,5
32-13,79564291,1
32-14,79568197,-13
32-15,79572103,-25
32-16,79576009,-31
32-17,79579915,-24
32-18,79583821,-20
32-19,79587727,-27
32-20,79591633,-40
32-21,79595539,-41
32-22,79599445,-32
32-23,79603351,-16
32-24,79607257,-9
32-25,79611163,-13
32-26,79615069,-19
32-27,79618975,-25
32-28,79622881,-24
32-29,79626787,-22
32-30,79630693,-27
32-31,79634599,-47
32-32,79638505,-62
32-1,79642234,-63
32-2,79646140,-47
32-3,79650046,-34
32-4,79653952,-32
32-5,79657858,-21
32-6,79661764,-1
32-7,79665670,12
32-8,79669576,9
32-9,79673482,-9
32-10,79677388,-23
32-11,79681294,-21
32-12,79685200,-15
32-13,79689106,-14
32-14,79693012,-20
32-15,79696918,-30
32-16,79700824,-41
32-17,79704730,-46
32-18,79708636,-36
32-19,79712542,-15
32-20,79716448,-7
32-21,79720354,-20
32-22,79724260,-43
32-23,79728166,-50
32-24,79732072,-48
32-25,79735978,-50
32-26,79739884,-42
32-27,79743790,-17
32-28,79747696,11
32-29,79751602,14
32-30,79755508,-13
32-31,79759414,-47
32-32,79763320,-58
32-1,79767232,-48
32-2,79771138,-25
32-3,79775044,-9
32-4,79778950,-7
32-5,79782856,-7
32-6,79786762,-12
32-7,79790668,-18
32-8,79794574,-12
32-9,79798480,-3
32-10,79802386,-7
32-11,79806292,-27
32-12,79810198,-46
32-13,79814104,-55
32-14,79818010,-64
32-15,79821916,-72
32-16,79825822,-83
32-17,79829728,-85
32-18,79833634,-78
32-19,79837540,-63
32-20,79841446,-46
32-21,79845352,-32
32-22,79849258,-33
32-23,79853164,-45
32-24,79857070,-60
32-25,79860976,-64
32-26,79864882,-46
32-27,79868788,-22
32-28,79872694,-12
32-29,79876600,-26
32-30,79880506,-61
32-31,79884412,-106
32-32,79888318,-123
32-1,79892229,-107
32-2,79896135,-70
32-3,79900041,-40
32-4,79903947,-34
32-5,79907853,-31
32-6,79911759,-24
32-7,79915665,-19
32-8,79919571,-26
32-9,79923477,-44
32-10,79927383,-59
32-11,79931289,-57
32-12,79935195,-47
32-13,79939101,-40
32-14,79943007,-40
32-15,79946913,-41
32-16,79950819,-32
32-17,79954725,-9
32-18,79958631,15
32-19,79962537,25
32-20,79966443,5
32-21,79970349,-26
32-22,79974255,-45
32-23,79978161,-38
32-24,79982067,-21
32-25,79985973,-15
32-26,79989879,-12
32-27,79993785,-6
32-28,79997691,-1
32-29,80001597,-13
32-30,80005503,-43
32-31,80009409,-74
32-32,80013315,-83
32-1,80017349,-73
32-2,80021255,-48
32-3,80025161,-24
32-4,80029067,-10
32-5,80032973,-4
32-6,80036879,-8
32-7,80040785,-15
32-8,80044691,-18
32-9,80048597,-24
32-10,80052503,-35
32-11,80056409,-45
32-12,80060315,-39
32-13,80064221,-16
32-14,80068127,5
32-15,80072033,14
32-16,80075939,8
32-17,80079845,-6
32-18,80083751,-25
32-19,80087657,-38
32-20,80091563,-44
32-21,80095469,-41
32-22,80099375,-38
32-23,80103281,-35
32-24,80107187,-36
32-25,80111093,-36
32-26,80114999,-29
32-27,80118905,-18
32-28,80122811,-13
32-29,80126717,-21
32-30,80130623,-36
32-31,80134529,-48
32-32,80138435,-41
32-1,80142225,-17
32-2,80146131,9
32-3,80150037,11
32-4,80153943,-10
32-5,80157849,-26
32-6,80161755,-33
32-7,80165661,-29
32-8,80169567,-22
32-9,80173473,-18
32-10,80177379,-25
32-11,80181285,-44
32-12,80185191,-72
32-13,80189097,-93
32-14,80193003,-96
32-15,80196909,-79
32-16,80200815,-57
32-17,80204721,-41
32-18,80208627,-31
32-19,80212533,-26
32-20,80216439,-30
32-21,80220345,-29
32-22,80224251,-23
32-23,80228157,-11
32-24,80232063,-20
32-25,80235969,-53
32-26,80239875,-72
32-27,80243781,-57
32-28,80247687,-12
32-29,80251593,17
32-30,80255499,9
32-31,80259405,-19
32-32,80263311,-32
32-1,80267405,-27
32-2,80271311,-13
32-3,80275217,-9
32-4,80279123,-18
32-5,80283029,-25
32-6,80286935,-33
32-7,80290841,-35
32-8,80294747,-29
32-9,80298653,-22
32-10,80302559,-19
32-11,80306465,-20
32-12,80310371,-18
32-13,80314277,-11
32-14,80318183,-11
32-15,80322089,-16
32-16,80325995,-21
32-17,80329901,-25
32-18,80333807,-36
32-19,80337713,-44
32-20,80341619,-44
32-21,80345525,-34
32-22,80349431,-26
32-23,80353337,-24
32-24,80357243,-28
32-25,80361149,-33
32-26,80365055,-31
32-27,80368961,-29
32-28,80372867,-28
32-29,80376773,-30
32-30,80380679,-40
32-31,80384585,-64
32-32,80388491,-82
32-1,80392220,-83
32-2,80396126,-66
32-3,80400032,-53
32-4,80403938,-54
32-5,80407844,-57
32-6,80411750,-59
32-7,80415656,-62
32-8,80419562,-59
32-9,80423468,-48
32-10,80427374,-31
32-11,80431280,-12
32-12,80435186,-11
32-13,80439092,-23
32-14,80442998,-34
32-15,80446904,-31
32-16,80450810,-22
32-17,80454716,-13
32-18,80458622,-12
32-19,80462528,-16
32-20,80466434,-38
32-21,80470340,-63
32-22,80474246,-74
32-23,80478152,-55
32-24,80482058,-31
32-25,80485964,-27
32-26,80489870,-20
32-27,80493776,1
32-28,80497682,30
32-29,80501588,38
32-30,80505494,10
32-31,80509400,-35
32-32,80513306,-64
32-1,80517217,-75
32-2,80521123,-64
32-3,80525029,-45
32-4,80528935,-29
32-5,80532841,-15
32-6,80536747,-12
32-7,80540653,-9
32-8,80544559,6
32-9,80548465,26
32-10,80552371,29
32-11,80556277,15
32-12,80560183,-1
32-13,80564089,-8
32-14,80567995,-6
32-15,80571901,0
32-16,80575807,1
32-17,80579713,2
32-18,80583619,-6
32-19,80587525,-23
32-20,80591431,-29
32-21,80595337,-15
32-22,80599243,7
32-23,80603149,22
32-24,80607055,9
32-25,80610961,-18
32-26,80614867,-26
32-27,80618773,-7
32-28,80622679,28
32-29,80626585,45
32-30,80630491,20
32-31,80634397,-32
32-32,80638303,-68
32-1,80642368,-71
32-2,80646274,-43
32-3,80650180,-28
32-4,80654086,-38
32-5,80657992,-52
32-6,80661898,-49
32-7,80665804,-37
32-8,80669710,-31
32-9,80673616,-37
32-10,80677522,-50
32-11,80681428,-60
32-12,80685334,-63
32-13,80689240,-60
32-14,80693146,-49
32-15,80697052,-33
32-16,80700958,-19
32-17,80704864,-9
32-18,80708770,-10
32-19,80712676,-23
32-20,80716582,-47
32-21,80720488,-69
32-22,80724394,-80
32-23,80728300,-75
32-24,80732206,-72
32-25,80736112,-85
32-26,80740018,-95
32-27,80743924,-90
32-28,80747830,-70
32-29,80751736,-57
32-30,80755642,-63
32-31,80759548,-76
32-32,80763454,-74
32-1,80767213,-62
32-2,80771119,-47
32-3,80775025,-44
32-4,80778931,-57
32-5,80782837,-70
32-6,80786743,-73
32-7,80790649,-64
32-8,80794555,-46
32-9,80798461,-37
32-10,80802367,-41
32-11,80806273,-42
32-12,80810179,-31
32-13,80814085,-17
32-14,80817991,-13
32-15,80821897,-14
32-16,80825803,-4
32-17,80829709,12
32-18,80833615,15
32-19,80837521,-2
32-20,80841427,-30
32-21,80845333,-43
32-22,80849239,-39
32-23,80853145,-22
32-24,80857051,-9
32-25,80860957,-6
32-26,80864863,1
32-27,80868769,8
32-28,80872675,11
32-29,80876581,1
32-30,80880487,-22
32-31,80884393,-50
32-32,80888299,-61
32-1,80892210,-47
32-2,80896116,-18
32-3,80900022,-1
32-4,80903928,-3
32-5,80907834,-10
32-6,80911740,-15
32-7,80915646,-21
32-8,80919552,-24
32-9,80923458,-17
32-10,80927364,-2
32-11,80931270,10
32-12,80935176,7
32-13,80939082,-4
32-14,80942988,-14
32-15,80946894,-23
32-16,80950800,-32
32-17,80954706,-33
32-18,80958612,-21
32-19,80962518,-1
32-20,80966424,8
32-21,80970330,-5
32-22,80974236,-23
32-23,80978142,-24
32-24,80982048,-19
32-25,80985954,-25
32-26,80989860,-29
32-27,80993766,-25
32-28,80997672,-9
32-29,81001578,-1
32-30,81005484,-3
32-31,81009390,-11
32-32,81013296,-19
32-1,81017208,-34
32-2,81021114,-48
32-3,81025020,-55
32-4,81028926,-49
32-5,81032832,-29
32-6,81036738,-18
32-7,81040644,-13
32-8,81044550,-4
32-9,81048456,7
32-10,81052362,2
32-11,81056268,-20
32-12,81060174,-36
32-13,81064080,-27
32-14,81067986,-7
32-15,81071892,6
32-16,81075798,-1
32-17,81079704,-21
32-18,81083610,-42
32-19,81087516,-50
32-20,81091422,-43
32-21,81095328,-26
32-22,81099234,-15
32-23,81103140,-14
32-24,81107046,-24
32-25,81110952,-42
32-26,81114858,-44
32-27,81118764,-32
32-28,81122670,-11
32-29,81126576,4
32-30,81130482,7
32-31,81134388,-5
32-32,81138294,-20
32-1,81142206,-29
32-2,81146112,-27
32-3,81150018,-27
32-4,81153924,-29
32-5,81157830,-22
32-6,81161736,-9
32-7,81165642,-1
32-8,81169548,-7
32-9,81173454,-14
32-10,81177360,-20
32-11,81181266,-23
32-12,81185172,-30
32-13,81189078,-36
32-14,81192984,-33
32-15,81196890,-18
32-16,81200796,-10
32-17,81204702,-12
32-18,81208608,-20
32-19,81212514,-22
32-20,81216420,-19
32-21,81220326,-21
32-22,81224232,-30
32-23,81228138,-39
32-24,81232044,-53
32-25,81235950,-79
32-26,81239856,-91
32-27,81243762,-73
32-28,81247668,-34
32-29,81251574,-9
32-30,81255480,-18
32-31,81259386,-47
32-32,81263292,-62
32-1,81267356,-59
32-2,81271262,-44
32-3,81275168,-30
32-4,81279074,-25
32-5,81282980,-23
32-6,81286886,-27
32-7,81290792,-34
32-8,81294698,-40
32-9,81298604,-48
32-10,81302510,-61
32-11,81306416,-72
32-12,81310322,-74
32-13,81314228,-70
32-14,81318134,-72
32-15,81322040,-81
32-16,81325946,-88
32-17,81329852,-85
32-18,81333758,-82
32-19,81337664,-86
32-20,81341570,-94
32-21,81345476,-92
32-22,81349382,-80
32-23,81353288,-64
32-24,81357194,-49
32-25,81361100,-36
32-26,81365006,-20
32-27,81368912,-8
32-28,81372818,-1
32-29,81376724,-7
32-30,81380630,-24
32-31,81384536,-49
32-32,81388442,-67
32-1,81392201,-69
32-2,81396107,-52
32-3,81400013,-36
32-4,81403919,-33
32-5,81407825,-34
32-6,81411731,-37
32-7,81415637,-44
32-8,81419543,-46
32-9,81423449,-39
32-10,81427355,-20
32-11,81431261,3
32-12,81435167,11
32-13,81439073,4
32-14,81442979,-11
32-15,81446885,-27
32-16,81450791,-40
32-17,81454697,-44
32-18,81458603,-36
32-19,81462509,-18
32-20,81466415,-3
32-21,81470321,2
32-22,81474227,-3
32-23,81478133,-5
32-24,81482039,-12
32-25,81485945,-29
32-26,81489851,-26
32-27,81493757,0
32-28,81497663,33
32-29,81501569,33
32-30,81505475,-11
32-31,81509381,-64
32-32,81513287,-83
32-1,81517198,-71
32-2,81521104,-43
32-3,81525010,-20
32-4,81528916,-7
32-5,81532822,3
32-6,81536728,-1
32-7,81540634,-15
32-8,81544540,-26
32-9,81548446,-31
32-10,81552352,-33
32-11,81556258,-33
32-12,81560164,-32
32-13,81564070,-24
32-14,81567976,-19
32-15,81571882,-16
32-16,81575788,-18
32-17,81579694,-16
32-18,81583600,-11
32-19,81587506,-5
32-20,81591412,-8
32-21,81595318,-19
32-22,81599224,-38
32-23,81603130,-51
32-24,81607036,-52
32-25,81610942,-45
32-26,81614848,-29
32-27,81618754,-21
32-28,81622660,-20
32-29,81626566,-25
32-30,81630472,-34
32-31,81634378,-48
32-32,81638284,-53
32-1,81642196,-48
32-2,81646102,-37
32-3,81650008,-35
32-4,81653914,-48
32-5,81657820,-55
32-6,81661726,-52
32-7,81665632,-44
32-8,81669538,-33
32-9,81673444,-20
32-10,81677350,-1
32-11,81681256,10
32-12,81685162,-1
32-13,81689068,-26
32-14,81692974,-44
32-15,81696880,-40
32-16,81700786,-26
32-17,81704692,-14
32-18,81708598,-13
32-19,81712504,-17
32-20,81716410,-19
32-21,81720316,-21
32-22,81724222,-22
32-23,81728128,-23
32-24,81732034,-36
32-25,81735940,-58
32-26,81739846,-62
32-27,81743752,-41
32-28,81747658,-12
32-29,81751564,-10
32-30,81755470,-38
32-31,81759376,-71
32-32,81763282,-79
32-1,81767194,-66
32-2,81771100,-50
32-3,81775006,-51
32-4,81778912,-59
32-5,81782818,-55
32-6,81786724,-33
32-7,81790630,-6
32-8,81794536,12
32-9,81798442,8
32-10,81802348,-19
32-11,81806254,-46
32-12,81810160,-53
