32-1,16268892,-71
32-2,16272798,-49
32-3,16276704,-28
32-4,16280610,-26
32-5,16284516,-22
32-6,16288422,-15
32-7,16292328,-12
32-8,16296234,-11
32-9,16300140,-16
32-10,16304046,-22
32-11,16307952,-32
32-12,16311858,-41
32-13,16315764,-45
32-14,16319670,-49
32-15,16323576,-59
32-16,16327482,-76
32-17,16331388,-92
32-18,16335294,-93
32-19,16339200,-79
32-20,16343106,-64
32-21,16347012,-59
32-22,16350918,-65
32-23,16354824,-66
32-24,16358730,-66
32-25,16362636,-69
32-26,16366542,-54
32-27,16370448,-18
32-28,16374354,27
32-29,16378260,59
32-30,16382166,53
32-31,16386072,17
32-32,16389978,-20
32-1,16393890,-40
32-2,16397796,-33
32-3,16401702,-9
32-4,16405608,16
32-5,16409514,41
32-6,16413420,47
32-7,16417326,31
32-8,16421232,6
32-9,16425138,-19
32-10,16429044,-35
32-11,16432950,-43
32-12,16436856,-45
32-13,16440762,-47
32-14,16444668,-47
32-15,16448574,-43
32-16,16452480,-41
32-17,16456386,-45
32-18,16460292,-56
32-19,16464198,-58
32-20,16468104,-38
32-21,16472010,-3
32-22,16475916,25
32-23,16479822,40
32-24,16483728,38
32-25,16487634,28
32-26,16491540,34
32-27,16495446,57
32-28,16499352,85
32-29,16503258,101
32-30,16507164,84
32-31,16511070,47
32-32,16514976,18
32-1,16518888,7
32-2,16522794,13
32-3,16526700,9
32-4,16530606,-12
32-5,16534512,-27
32-6,16538418,-28
32-7,16542324,-20
32-8,16546230,-13
32-9,16550136,-13
32-10,16554042,-17
32-11,16557948,-21
32-12,16561854,-24
32-13,16565760,-27
32-14,16569666,-24
32-15,16573572,-11
32-16,16577478,4
32-17,16581384,11
32-18,16585290,6
32-19,16589196,-5
32-20,16593102,-17
32-21,16597008,-23
32-22,16600914,-28
32-23,16604820,-35
32-24,16608726,-46
32-25,16612632,-61
32-26,16616538,-57
32-27,16620444,-31
32-28,16624350,-1
32-29,16628256,10
32-30,16632162,-12
32-31,16636068,-55
32-32,16639974,-90
32-1,16643885,-107
32-2,16647791,-103
32-3,16651697,-83
32-4,16655603,-65
32-5,16659509,-50
32-6,16663415,-48
32-7,16667321,-61
32-8,16671227,-73
32-9,16675133,-82
32-10,16679039,-89
32-11,16682945,-90
32-12,16686851,-91
32-13,16690757,-86
32-14,16694663,-76
32-15,16698569,-64
32-16,16702475,-51
32-17,16706381,-37
32-18,16710287,-27
32-19,16714193,-15
32-20,16718099,-7
32-21,16722005,-8
32-22,16725911,-17
32-23,16729817,-30
32-24,16733723,-39
32-25,16737629,-54
32-26,16741535,-48
32-27,16745441,-13
32-28,16749347,32
32-29,16753253,57
32-30,16757159,29
32-31,16761065,-39
32-32,16764971,-89
32-1,16768883,-92
32-2,16772789,-58
32-3,16776695,-28
32-4,16780601,-35
32-5,16784507,-49
32-6,16788413,-52
32-7,16792319,-54
32-8,16796225,-53
32-9,16800131,-59
32-10,16804037,-67
32-11,16807943,-64
32-12,16811849,-53
32-13,16815755,-46
32-14,16819661,-54
32-15,16823567,-75
32-16,16827473,-94
32-17,16831379,-95
32-18,16835285,-81
32-19,16839191,-63
32-20,16843097,-55
32-21,16847003,-47
32-22,16850909,-39
32-23,16854815,-33
32-24,16858721,-44
32-25,16862627,-72
32-26,16866533,-80
32-27,16870439,-57
32-28,16874345,-18
32-29,16878251,4
32-30,16882157,-11
32-31,16886063,-49
32-32,16889969,-77
32-1,16893880,-89
32-2,16897786,-85
32-3,16901692,-75
32-4,16905598,-73
32-5,16909504,-68
32-6,16913410,-62
32-7,16917316,-59
32-8,16921222,-52
32-9,16925128,-50
32-10,16929034,-54
32-11,16932940,-63
32-12,16936846,-70
32-13,16940752,-74
32-14,16944658,-77
32-15,16948564,-78
32-16,16952470,-78
32-17,16956376,-81
32-18,16960282,-85
32-19,16964188,-88
32-20,16968094,-83
32-21,16972000,-67
32-22,16975906,-47
32-23,16979812,-28
32-24,16983718,-19
32-25,16987624,-25
32-26,16991530,-23
32-27,16995436,-5
32-28,16999342,18
32-29,17003248,30
32-30,17007154,14
32-31,17011060,-18
32-32,17014966,-38
32-1,17018878,-36
32-2,17022784,-19
32-3,17026690,-4
32-4,17030596,2
32-5,17034502,11
32-6,17038408,16
32-7,17042314,5
32-8,17046220,-13
32-9,17050126,-21
32-10,17054032,-13
32-11,17057938,0
32-12,17061844,8
32-13,17065750,4
32-14,17069656,-5
32-15,17073562,-11
32-16,17077468,-12
32-17,17081374,-8
32-18,17085280,3
32-19,17089186,13
32-20,17093092,14
32-21,17096998,2
32-22,17100904,-18
32-23,17104810,-29
32-24,17108716,-35
32-25,17112622,-41
32-26,17116528,-25
32-27,17120434,12
32-28,17124340,47
32-29,17128246,51
32-30,17132152,12
32-31,17136058,-47
32-32,17139964,-83
32-1,17143876,-87
32-2,17147782,-68
32-3,17151688,-55
32-4,17155594,-64
32-5,17159500,-70
32-6,17163406,-71
32-7,17167312,-69
32-8,17171218,-68
32-9,17175124,-70
32-10,17179030,-77
32-11,17182936,-84
32-12,17186842,-89
32-13,17190748,-95
32-14,17194654,-102
32-15,17198560,-103
32-16,17202466,-92
32-17,17206372,-70
32-18,17210278,-42
32-19,17214184,-16
32-20,17218090,1
32-21,17221996,3
32-22,17225902,-14
32-23,17229808,-32
32-24,17233714,-42
32-25,17237620,-51
32-26,17241526,-50
32-27,17245432,-52
32-28,17249338,-60
32-29,17253244,-79
32-30,17257150,-117
32-31,17261056,-159
32-32,17264962,-178
32-1,17268904,-167
32-2,17272810,-128
32-3,17276716,-90
32-4,17280622,-74
32-5,17284528,-67
32-6,17288434,-64
32-7,17292340,-61
32-8,17296246,-57
32-9,17300152,-55
32-10,17304058,-57
32-11,17307964,-60
32-12,17311870,-58
32-13,17315776,-51
32-14,17319682,-45
32-15,17323588,-51
32-16,17327494,-69
32-17,17331400,-86
32-18,17335306,-86
32-19,17339212,-70
32-20,17343118,-52
32-21,17347024,-42
32-22,17350930,-36
32-23,17354836,-26
32-24,17358742,-21
32-25,17362648,-38
32-26,17366554,-54
32-27,17370460,-57
32-28,17374366,-46
32-29,17378272,-38
32-30,17382178,-47
32-31,17386084,-63
32-32,17389990,-60
32-1,17393871,-37
32-2,17397777,-5
32-3,17401683,11
32-4,17405589,4
32-5,17409495,3
32-6,17413401,9
32-7,17417307,13
32-8,17421213,8
32-9,17425119,-9
32-10,17429025,-24
32-11,17432931,-31
32-12,17436837,-30
32-13,17440743,-30
32-14,17444649,-39
32-15,17448555,-48
32-16,17452461,-45
32-17,17456367,-33
32-18,17460273,-29
32-19,17464179,-36
32-20,17468085,-46
32-21,17471991,-40
32-22,17475897,-24
32-23,17479803,-4
32-24,17483709,7
32-25,17487615,-12
32-26,17491521,-20
32-27,17495427,8
32-28,17499333,59
32-29,17503239,93
32-30,17507145,69
32-31,17511051,1
32-32,17514957,-54
32-1,17518869,-64
32-2,17522775,-40
32-3,17526681,-18
32-4,17530587,-29
32-5,17534493,-42
32-6,17538399,-39
32-7,17542305,-34
32-8,17546211,-27
32-9,17550117,-28
32-10,17554023,-39
32-11,17557929,-52
32-12,17561835,-59
32-13,17565741,-62
32-14,17569647,-63
32-15,17573553,-75
32-16,17577459,-99
32-17,17581365,-113
32-18,17585271,-109
32-19,17589177,-86
32-20,17593083,-64
32-21,17596989,-51
32-22,17600895,-50
32-23,17604801,-47
32-24,17608707,-52
32-25,17612613,-75
32-26,17616519,-86
32-27,17620425,-68
32-28,17624331,-27
32-29,17628237,1
32-30,17632143,-15
32-31,17636049,-60
32-32,17639955,-96
32-1,17643866,-104
32-2,17647772,-89
32-3,17651678,-78
32-4,17655584,-85
32-5,17659490,-86
32-6,17663396,-74
32-7,17667302,-54
32-8,17671208,-31
32-9,17675114,-18
32-10,17679020,-21
32-11,17682926,-35
32-12,17686832,-49
32-13,17690738,-56
32-14,17694644,-62
32-15,17698550,-67
32-16,17702456,-68
32-17,17706362,-68
32-18,17710268,-66
32-19,17714174,-62
32-20,17718080,-57
32-21,17721986,-50
32-22,17725892,-46
32-23,17729798,-37
32-24,17733704,-30
32-25,17737610,-37
32-26,17741516,-41
32-27,17745422,-32
32-28,17749328,-16
32-29,17753234,-6
32-30,17757140,-25
32-31,17761046,-70
32-32,17764952,-102
32-1,17768864,-104
32-2,17772770,-79
32-3,17776676,-54
32-4,17780582,-48
32-5,17784488,-46
32-6,17788394,-41
32-7,17792300,-35
32-8,17796206,-27
32-9,17800112,-21
32-10,17804018,-16
32-11,17807924,-17
32-12,17811830,-27
32-13,17815736,-43
32-14,17819642,-52
32-15,17823548,-49
32-16,17827454,-38
32-17,17831360,-29
32-18,17835266,-28
32-19,17839172,-41
32-20,17843078,-65
32-21,17846984,-86
32-22,17850890,-93
32-23,17854796,-79
32-24,17858702,-59
32-25,17862608,-54
32-26,17866514,-47
32-27,17870420,-33
32-28,17874326,-15
32-29,17878232,-6
32-30,17882138,-14
32-31,17886044,-31
32-32,17889950,-40
32-1,17893862,-45
32-2,17897768,-47
32-3,17901674,-51
32-4,17905580,-64
32-5,17909486,-68
32-6,17913392,-67
32-7,17917298,-67
32-8,17921204,-63
32-9,17925110,-63
32-10,17929016,-68
32-11,17932922,-74
32-12,17936828,-74
32-13,17940734,-68
32-14,17944640,-63
32-15,17948546,-67
32-16,17952452,-79
32-17,17956358,-87
32-18,17960264,-90
32-19,17964170,-83
32-20,17968076,-67
32-21,17971982,-51
32-22,17975888,-42
32-23,17979794,-37
32-24,17983700,-43
32-25,17987606,-59
32-26,17991512,-59
32-27,17995418,-43
32-28,17999324,-12
32-29,18003230,7
32-30,18007136,-11
32-31,18011042,-56
32-32,18014948,-97
32-1,18018920,-110
32-2,18022826,-90
32-3,18026732,-58
32-4,18030638,-35
32-5,18034544,-12
32-6,18038450,10
32-7,18042356,23
32-8,18046262,21
32-9,18050168,7
32-10,18054074,-12
32-11,18057980,-29
32-12,18061886,-34
32-13,18065792,-27
32-14,18069698,-16
32-15,18073604,-19
32-16,18077510,-36
32-17,18081416,-60
32-18,18085322,-72
32-19,18089228,-75
32-20,18093134,-80
32-21,18097040,-93
32-22,18100946,-108
32-23,18104852,-110
32-24,18108758,-99
32-25,18112664,-91
32-26,18116570,-71
32-27,18120476,-38
32-28,18124382,-10
32-29,18128288,-7
32-30,18132194,-36
32-31,18136100,-75
32-32,18140006,-92
32-1,18143857,-79
32-2,18147763,-53
32-3,18151669,-34
32-4,18155575,-39
32-5,18159481,-50
32-6,18163387,-57
32-7,18167293,-59
32-8,18171199,-49
32-9,18175105,-43
32-10,18179011,-50
32-11,18182917,-69
32-12,18186823,-82
32-13,18190729,-79
32-14,18194635,-62
32-15,18198541,-43
32-16,18202447,-35
32-17,18206353,-41
32-18,18210259,-52
32-19,18214165,-60
32-20,18218071,-60
32-21,18221977,-46
32-22,18225883,-33
32-23,18229789,-25
32-24,18233695,-26
32-25,18237601,-50
32-26,18241507,-61
32-27,18245413,-38
32-28,18249319,3
32-29,18253225,32
32-30,18257131,12
32-31,18261037,-46
32-32,18264943,-94
32-1,18268854,-110
32-2,18272760,-103
32-3,18276666,-97
32-4,18280572,-107
32-5,18284478,-102
32-6,18288384,-79
32-7,18292290,-61
32-8,18296196,-52
32-9,18300102,-52
32-10,18304008,-50
32-11,18307914,-46
32-12,18311820,-36
32-13,18315726,-22
32-14,18319632,-6
32-15,18323538,10
32-16,18327444,20
32-17,18331350,20
32-18,18335256,9
32-19,18339162,-4
32-20,18343068,-10
32-21,18346974,-4
32-22,18350880,8
32-23,18354786,18
32-24,18358692,10
32-25,18362598,-19
32-26,18366504,-33
32-27,18370410,-14
32-28,18374316,21
32-29,18378222,40
32-30,18382128,25
32-31,18386034,-10
32-32,18389940,-32
32-1,18393852,-30
32-2,18397758,-10
32-3,18401664,6
32-4,18405570,8
32-5,18409476,11
32-6,18413382,12
32-7,18417288,6
32-8,18421194,-4
32-9,18425100,-12
32-10,18429006,-10
32-11,18432912,4
32-12,18436818,22
32-13,18440724,36
32-14,18444630,38
32-15,18448536,27
32-16,18452442,7
32-17,18456348,-16
32-18,18460254,-34
32-19,18464160,-36
32-20,18468066,-27
32-21,18471972,-15
32-22,18475878,-11
32-23,18479784,-8
32-24,18483690,-7
32-25,18487596,-17
32-26,18491502,-26
32-27,18495408,-29
32-28,18499314,-20
32-29,18503220,-13
32-30,18507126,-25
32-31,18511032,-56
32-32,18514938,-81
32-1,18518850,-83
32-2,18522756,-60
32-3,18526662,-40
32-4,18530568,-32
32-5,18534474,-24
32-6,18538380,-19
32-7,18542286,-23
32-8,18546192,-36
32-9,18550098,-52
32-10,18554004,-57
32-11,18557910,-49
32-12,18561816,-32
32-13,18565722,-19
32-14,18569628,-17
32-15,18573534,-25
32-16,18577440,-35
32-17,18581346,-40
32-18,18585252,-43
32-19,18589158,-47
32-20,18593064,-56
32-21,18596970,-69
32-22,18600876,-79
32-23,18604782,-80
32-24,18608688,-79
32-25,18612594,-76
32-26,18616500,-52
32-27,18620406,-13
32-28,18624312,19
32-29,18628218,15
32-30,18632124,-21
32-31,18636030,-63
32-32,18639936,-84
32-1,18643847,-81
32-2,18647753,-61
32-3,18651659,-45
32-4,18655565,-42
32-5,18659471,-41
32-6,18663377,-47
32-7,18667283,-57
32-8,18671189,-61
32-9,18675095,-53
32-10,18679001,-33
32-11,18682907,-14
32-12,18686813,-7
32-13,18690719,-13
32-14,18694625,-30
32-15,18698531,-49
32-16,18702437,-63
32-17,18706343,-68
32-18,18710249,-64
32-19,18714155,-55
32-20,18718061,-48
32-21,18721967,-39
32-22,18725873,-40
32-23,18729779,-40
32-24,18733685,-41
32-25,18737591,-53
32-26,18741497,-60
32-27,18745403,-49
32-28,18749309,-29
32-29,18753215,-17
32-30,18757121,-35
32-31,18761027,-78
32-32,18764933,-107
32-1,18768906,-106
32-2,18772812,-85
32-3,18776718,-63
32-4,18780624,-54
32-5,18784530,-39
32-6,18788436,-27
32-7,18792342,-30
32-8,18796248,-49
32-9,18800154,-68
32-10,18804060,-77
32-11,18807966,-81
32-12,18811872,-87
32-13,18815778,-102
32-14,18819684,-119
32-15,18823590,-118
32-16,18827496,-94
32-17,18831402,-62
32-18,18835308,-32
32-19,18839214,-17
32-20,18843120,-17
32-21,18847026,-20
32-22,18850932,-24
32-23,18854838,-20
32-24,18858744,-24
32-25,18862650,-42
32-26,18866556,-43
32-27,18870462,-19
32-28,18874368,12
32-29,18878274,24
32-30,18882180,5
32-31,18886086,-29
32-32,18889992,-48
32-1,18893934,-45
32-2,18897840,-30
32-3,18901746,-19
32-4,18905652,-27
32-5,18909558,-37
32-6,18913464,-47
32-7,18917370,-59
32-8,18921276,-63
32-9,18925182,-57
32-10,18929088,-46
32-11,18932994,-34
32-12,18936900,-23
32-13,18940806,-15
32-14,18944712,-13
32-15,18948618,-16
32-16,18952524,-22
32-17,18956430,-33
32-18,18960336,-41
32-19,18964242,-39
32-20,18968148,-28
32-21,18972054,-14
32-22,18975960,-15
32-23,18979866,-25
32-24,18983772,-43
32-25,18987678,-86
32-26,18991584,-120
32-27,18995490,-117
32-28,18999396,-81
32-29,19003302,-34
32-30,19007208,-25
32-31,19011114,-66
32-32,19015020,-113
32-1,19018840,-131
32-2,19022746,-109
32-3,19026652,-73
32-4,19030558,-59
32-5,19034464,-49
32-6,19038370,-46
32-7,19042276,-60
32-8,19046182,-80
32-9,19050088,-91
32-10,19053994,-87
32-11,19057900,-76
32-12,19061806,-69
32-13,19065712,-68
32-14,19069618,-70
32-15,19073524,-68
32-16,19077430,-61
32-17,19081336,-53
32-18,19085242,-39
32-19,19089148,-25
32-20,19093054,-13
32-21,19096960,-7
32-22,19100866,-10
32-23,19104772,-13
32-24,19108678,-18
32-25,19112584,-31
32-26,19116490,-27
32-27,19120396,0
32-28,19124302,30
32-29,19128208,38
32-30,19132114,5
32-31,19136020,-53
32-32,19139926,-95
32-1,19143838,-102
32-2,19147744,-72
32-3,19151650,-28
32-4,19155556,0
32-5,19159462,16
32-6,19163368,19
32-7,19167274,10
32-8,19171180,5
32-9,19175086,5
32-10,19178992,7
32-11,19182898,14
32-12,19186804,27
32-13,19190710,44
32-14,19194616,54
32-15,19198522,54
32-16,19202428,46
32-17,19206334,35
32-18,19210240,24
32-19,19214146,16
32-20,19218052,14
32-21,19221958,14
32-22,19225864,7
32-23,19229770,0
32-24,19233676,-14
32-25,19237582,-33
32-26,19241488,-27
32-27,19245394,3
32-28,19249300,38
32-29,19253206,49
32-30,19257112,19
32-31,19261018,-31
32-32,19264924,-69
32-1,19268835,-85
32-2,19272741,-81
32-3,19276647,-78
32-4,19280553,-80
32-5,19284459,-67
32-6,19288365,-51
32-7,19292271,-44
32-8,19296177,-44
32-9,19300083,-48
32-10,19303989,-50
32-11,19307895,-55
32-12,19311801,-57
32-13,19315707,-49
32-14,19319613,-31
32-15,19323519,-14
32-16,19327425,-8
32-17,19331331,-16
32-18,19335237,-29
32-19,19339143,-39
32-20,19343049,-46
32-21,19346955,-41
32-22,19350861,-31
32-23,19354767,-16
32-24,19358673,-16
32-25,19362579,-47
32-26,19366485,-68
32-27,19370391,-57
32-28,19374297,-23
32-29,19378203,0
32-30,19382109,-19
32-31,19386015,-67
32-32,19389921,-108
32-1,19393833,-123
32-2,19397739,-109
32-3,19401645,-87
32-4,19405551,-75
32-5,19409457,-65
32-6,19413363,-61
32-7,19417269,-58
32-8,19421175,-48
32-9,19425081,-32
32-10,19428987,-16
32-11,19432893,-10
32-12,19436799,-14
32-13,19440705,-17
32-14,19444611,-19
32-15,19448517,-17
32-16,19452423,-13
32-17,19456329,-9
32-18,19460235,-5
32-19,19464141,-6
32-20,19468047,-14
32-21,19471953,-30
32-22,19475859,-49
32-23,19479765,-52
32-24,19483671,-44
32-25,19487577,-38
32-26,19491483,-22
32-27,19495389,9
32-28,19499295,43
32-29,19503201,63
32-30,19507107,40
32-31,19511013,-10
32-32,19514919,-51
32-1,19519105,-57
32-2,19523011,-31
32-3,19526917,-3
32-4,19530823,-3
32-5,19534729,-8
32-6,19538635,-11
32-7,19542541,-8
32-8,19546447,5
32-9,19550353,16
32-10,19554259,17
32-11,19558165,-2
32-12,19562071,-32
32-13,19565977,-57
32-14,19569883,-74
32-15,19573789,-83
32-16,19577695,-89
32-17,19581601,-89
32-18,19585507,-81
32-19,19589413,-69
32-20,19593319,-57
32-21,19597225,-48
32-22,19601131,-39
32-23,19605037,-27
32-24,19608943,-22
32-25,19612849,-36
32-26,19616755,-44
32-27,19620661,-36
32-28,19624567,-22
32-29,19628473,-21
32-30,19632379,-42
32-31,19636285,-70
32-32,19640191,-83
32-1,19643889,-78
32-2,19647795,-64
32-3,19651701,-56
32-4,19655607,-64
32-5,19659513,-71
32-6,19663419,-75
32-7,19667325,-77
32-8,19671231,-69
32-9,19675137,-54
32-10,19679043,-39
32-11,19682949,-29
32-12,19686855,-24
32-13,19690761,-28
32-14,19694667,-36
32-15,19698573,-48
32-16,19702479,-58
32-17,19706385,-64
32-18,19710291,-64
32-19,19714197,-60
32-20,19718103,-56
32-21,19722009,-53
32-22,19725915,-59
32-23,19729821,-61
32-24,19733727,-61
32-25,19737633,-77
32-26,19741539,-76
32-27,19745445,-36
32-28,19749351,28
32-29,19753257,79
32-30,19757163,70
32-31,19761069,8
32-32,19764975,-55
32-1,19768826,-83
32-2,19772732,-83
32-3,19776638,-81
32-4,19780544,-99
32-5,19784450,-107
32-6,19788356,-101
32-7,19792262,-99
32-8,19796168,-99
32-9,19800074,-94
32-10,19803980,-77
32-11,19807886,-55
32-12,19811792,-44
32-13,19815698,-44
32-14,19819604,-53
32-15,19823510,-54
32-16,19827416,-46
32-17,19831322,-36
32-18,19835228,-26
32-19,19839134,-13
32-20,19843040,-3
32-21,19846946,7
32-22,19850852,5
32-23,19854758,-2
32-24,19858664,-15
32-25,19862570,-34
32-26,19866476,-30
32-27,19870382,5
32-28,19874288,38
32-29,19878194,39
32-30,19882100,-8
32-31,19886006,-72
32-32,19889912,-113
32-1,19893824,-118
32-2,19897730,-96
32-3,19901636,-65
32-4,19905542,-45
32-5,19909448,-29
32-6,19913354,-25
32-7,19917260,-32
32-8,19921166,-35
32-9,19925072,-33
32-10,19928978,-27
32-11,19932884,-26
32-12,19936790,-30
32-13,19940696,-37
32-14,19944602,-42
32-15,19948508,-43
32-16,19952414,-41
32-17,19956320,-38
32-18,19960226,-34
32-19,19964132,-26
32-20,19968038,-18
32-21,19971944,-6
32-22,19975850,0
32-23,19979756,5
32-24,19983662,0
32-25,19987568,-22
32-26,19991474,-41
32-27,19995380,-43
32-28,19999286,-23
32-29,20003192,-1
32-30,20007098,-3
32-31,20011004,-35
32-32,20014910,-75
32-1,20018821,-105
32-2,20022727,-117
32-3,20026633,-116
32-4,20030539,-106
32-5,20034445,-76
32-6,20038351,-41
32-7,20042257,-21
32-8,20046163,-15
32-9,20050069,-19
32-10,20053975,-19
32-11,20057881,-12
32-12,20061787,-1
32-13,20065693,8
32-14,20069599,11
32-15,20073505,6
32-16,20077411,-4
32-17,20081317,-15
32-18,20085223,-19
32-19,20089129,-20
32-20,20093035,-24
32-21,20096941,-33
32-22,20100847,-41
32-23,20104753,-39
32-24,20108659,-33
32-25,20112565,-34
32-26,20116471,-29
32-27,20120377,-18
32-28,20124283,-6
32-29,20128189,-6
32-30,20132095,-27
32-31,20136001,-52
32-32,20139907,-61
32-1,20143971,-54
32-2,20147877,-41
32-3,20151783,-42
32-4,20155689,-61
32-5,20159595,-68
32-6,20163501,-58
32-7,20167407,-40
32-8,20171313,-30
32-9,20175219,-37
32-10,20179125,-55
32-11,20183031,-70
32-12,20186937,-75
32-13,20190843,-77
32-14,20194749,-82
32-15,20198655,-88
32-16,20202561,-89
32-17,20206467,-82
32-18,20210373,-73
32-19,20214279,-65
32-20,20218185,-55
32-21,20222091,-39
32-22,20225997,-26
32-23,20229903,-14
32-24,20233809,-8
32-25,20237715,-15
32-26,20241621,-12
32-27,20245527,4
32-28,20249433,23
32-29,20253339,23
32-30,20257245,-15
32-31,20261151,-78
32-32,20265057,-124
32-1,20268939,-133
32-2,20272845,-105
32-3,20276751,-68
32-4,20280657,-49
32-5,20284563,-36
32-6,20288469,-26
32-7,20292375,-16
32-8,20296281,1
32-9,20300187,19
32-10,20304093,36
32-11,20307999,43
32-12,20311905,40
32-13,20315811,29
32-14,20319717,15
32-15,20323623,-2
32-16,20327529,-26
32-17,20331435,-50
32-18,20335341,-64
32-19,20339247,-68
32-20,20343153,-64
32-21,20347059,-54
32-22,20350965,-42
32-23,20354871,-26
32-24,20358777,-19
32-25,20362683,-29
32-26,20366589,-28
32-27,20370495,-15
32-28,20374401,-2
32-29,20378307,-10
32-30,20382213,-43
32-31,20386119,-77
32-32,20390025,-83
32-1,20393875,-65
32-2,20397781,-37
32-3,20401687,-21
32-4,20405593,-25
32-5,20409499,-31
32-6,20413405,-39
32-7,20417311,-51
32-8,20421217,-58
32-9,20425123,-59
32-10,20429029,-52
32-11,20432935,-42
32-12,20436841,-41
32-13,20440747,-47
32-14,20444653,-51
32-15,20448559,-45
32-16,20452465,-32
32-17,20456371,-24
32-18,20460277,-35
32-19,20464183,-57
32-20,20468089,-75
32-21,20471995,-74
32-22,20475901,-64
32-23,20479807,-48
32-24,20483713,-39
32-25,20487619,-58
32-26,20491525,-72
32-27,20495431,-47
32-28,20499337,13
32-29,20503243,66
32-30,20507149,65
32-31,20511055,10
32-32,20514961,-47
32-1,20518812,-66
32-2,20522718,-44
32-3,20526624,-11
32-4,20530530,-6
32-5,20534436,-10
32-6,20538342,-18
32-7,20542248,-36
32-8,20546154,-55
32-9,20550060,-64
32-10,20553966,-59
32-11,20557872,-50
32-12,20561778,-42
32-13,20565684,-37
32-14,20569590,-37
32-15,20573496,-38
32-16,20577402,-37
32-17,20581308,-30
32-18,20585214,-17
32-19,20589120,-9
32-20,20593026,-16
32-21,20596932,-31
32-22,20600838,-38
32-23,20604744,-23
32-24,20608650,-4
32-25,20612556,-5
32-26,20616462,-7
32-27,20620368,8
32-28,20624274,35
32-29,20628180,53
32-30,20632086,33
32-31,20635992,-15
32-32,20639898,-57
32-1,20643809,-69
32-2,20647715,-52
32-3,20651621,-29
32-4,20655527,-26
32-5,20659433,-30
32-6,20663339,-38
32-7,20667245,-38
32-8,20671151,-24
32-9,20675057,-4
32-10,20678963,14
32-11,20682869,26
32-12,20686775,37
32-13,20690681,46
32-14,20694587,52
32-15,20698493,60
32-16,20702399,65
32-17,20706305,65
32-18,20710211,55
32-19,20714117,41
32-20,20718023,33
32-21,20721929,38
32-22,20725835,51
32-23,20729741,66
32-24,20733647,68
32-25,20737553,49
32-26,20741459,35
32-27,20745365,40
32-28,20749271,59
32-29,20753177,66
32-30,20757083,40
32-31,20760989,-4
32-32,20764895,-34
32-1,20768960,-42
32-2,20772866,-39
32-3,20776772,-52
32-4,20780678,-80
32-5,20784584,-88
32-6,20788490,-79
32-7,20792396,-74
32-8,20796302,-85
32-9,20800208,-96
32-10,20804114,-90
32-11,20808020,-65
32-12,20811926,-38
32-13,20815832,-23
32-14,20819738,-23
32-15,20823644,-29
32-16,20827550,-34
32-17,20831456,-35
32-18,20835362,-34
32-19,20839268,-31
32-20,20843174,-34
32-21,20847080,-40
32-22,20850986,-50
32-23,20854892,-50
32-24,20858798,-47
32-25,20862704,-49
32-26,20866610,-42
32-27,20870516,-25
32-28,20874422,-5
32-29,20878328,4
32-30,20882234,-5
32-31,20886140,-27
32-32,20890046,-45
32-1,20893805,-53
32-2,20897711,-47
32-3,20901617,-38
32-4,20905523,-36
32-5,20909429,-30
32-6,20913335,-28
32-7,20917241,-28
32-8,20921147,-23
32-9,20925053,-14
32-10,20928959,-11
32-11,20932865,-12
32-12,20936771,-15
32-13,20940677,-20
32-14,20944583,-30
32-15,20948489,-44
32-16,20952395,-48
32-17,20956301,-39
32-18,20960207,-21
32-19,20964113,-2
32-20,20968019,6
32-21,20971925,-4
32-22,20975831,-27
32-23,20979737,-43
32-24,20983643,-50
32-25,20987549,-51
32-26,20991455,-32
32-27,20995361,-1
32-28,20999267,28
32-29,21003173,36
32-30,21007079,13
32-31,21010985,-30
32-32,21014891,-67
32-1,21018955,-85
32-2,21022861,-82
32-3,21026767,-76
32-4,21030673,-81
32-5,21034579,-80
32-6,21038485,-78
32-7,21042391,-78
32-8,21046297,-78
32-9,21050203,-82
32-10,21054109,-85
32-11,21058015,-82
32-12,21061921,-67
32-13,21065827,-42
32-14,21069733,-21
32-15,21073639,-13
32-16,21077545,-13
32-17,21081451,-12
32-18,21085357,-7
32-19,21089263,-8
32-20,21093169,-25
32-21,21097075,-47
32-22,21100981,-71
32-23,21104887,-87
32-24,21108793,-99
32-25,21112699,-117
32-26,21116605,-112
32-27,21120511,-76
32-28,21124417,-26
32-29,21128323,7
32-30,21132229,-2
32-31,21136135,-34
32-32,21140041,-56
32-1,21143800,-60
32-2,21147706,-48
32-3,21151612,-36
32-4,21155518,-34
32-5,21159424,-33
32-6,21163330,-36
32-7,21167236,-53
32-8,21171142,-76
32-9,21175048,-94
32-10,21178954,-93
32-11,21182860,-77
32-12,21186766,-66
32-13,21190672,-70
32-14,21194578,-87
32-15,21198484,-97
32-16,21202390,-92
32-17,21206296,-80
32-18,21210202,-71
32-19,21214108,-62
32-20,21218014,-53
32-21,21221920,-32
32-22,21225826,-12
32-23,21229732,10
32-24,21233638,22
32-25,21237544,5
32-26,21241450,-6
32-27,21245356,18
32-28,21249262,67
32-29,21253168,109
32-30,21257074,89
32-31,21260980,15
32-32,21264886,-57
32-1,21268798,-89
32-2,21272704,-81
32-3,21276610,-64
32-4,21280516,-78
32-5,21284422,-99
32-6,21288328,-114
32-7,21292234,-121
32-8,21296140,-116
32-9,21300046,-108
32-10,21303952,-102
32-11,21307858,-102
32-12,21311764,-103
32-13,21315670,-96
32-14,21319576,-88
32-15,21323482,-82
32-16,21327388,-87
32-17,21331294,-100
32-18,21335200,-108
32-19,21339106,-108
32-20,21343012,-99
32-21,21346918,-82
32-22,21350824,-70
32-23,21354730,-55
32-24,21358636,-47
32-25,21362542,-54
32-26,21366448,-46
32-27,21370354,-22
32-28,21374260,7
32-29,21378166,22
32-30,21382072,2
32-31,21385978,-43
32-32,21389884,-80
32-1,21393795,-92
32-2,21397701,-77
32-3,21401607,-52
32-4,21405513,-48
32-5,21409419,-50
32-6,21413325,-45
32-7,21417231,-21
32-8,21421137,18
32-9,21425043,47
32-10,21428949,49
32-11,21432855,28
32-12,21436761,4
32-13,21440667,-12
32-14,21444573,-18
32-15,21448479,-13
32-16,21452385,-5
32-17,21456291,0
32-18,21460197,-3
32-19,21464103,-7
32-20,21468009,-1
32-21,21471915,16
32-22,21475821,28
32-23,21479727,31
32-24,21483633,22
32-25,21487539,1
32-26,21491445,-4
32-27,21495351,10
32-28,21499257,30
32-29,21503163,34
32-30,21507069,13
32-31,21510975,-16
32-32,21514881,-26
32-1,21518793,-18
32-2,21522699,-7
32-3,21526605,-7
32-4,21530511,-17
32-5,21534417,-13
32-6,21538323,4
32-7,21542229,20
32-8,21546135,26
32-9,21550041,24
32-10,21553947,15
32-11,21557853,-2
32-12,21561759,-14
32-13,21565665,-15
32-14,21569571,-4
32-15,21573477,5
32-16,21577383,5
32-17,21581289,-3
32-18,21585195,-10
32-19,21589101,-17
32-20,21593007,-25
32-21,21596913,-30
32-22,21600819,-32
32-23,21604725,-20
32-24,21608631,-12
32-25,21612537,-18
32-26,21616443,-15
32-27,21620349,7
32-28,21624255,35
32-29,21628161,45
32-30,21632067,22
32-31,21635973,-15
32-32,21639879,-38
32-1,21643790,-42
32-2,21647696,-34
32-3,21651602,-37
32-4,21655508,-64
32-5,21659414,-79
32-6,21663320,-72
32-7,21667226,-49
32-8,21671132,-29
32-9,21675038,-33
32-10,21678944,-56
32-11,21682850,-74
32-12,21686756,-77
32-13,21690662,-70
32-14,21694568,-70
32-15,21698474,-81
32-16,21702380,-89
32-17,21706286,-85
32-18,21710192,-76
32-19,21714098,-69
32-20,21718004,-76
32-21,21721910,-94
32-22,21725816,-115
32-23,21729722,-124
32-24,21733628,-119
32-25,21737534,-116
32-26,21741440,-101
32-27,21745346,-72
32-28,21749252,-36
32-29,21753158,-9
32-30,21757064,-12
32-31,21760970,-35
32-32,21764876,-48
32-1,21768971,-38
32-2,21772877,-16
32-3,21776783,-8
32-4,21780689,-28
32-5,21784595,-45
32-6,21788501,-53
32-7,21792407,-54
32-8,21796313,-47
32-9,21800219,-39
32-10,21804125,-28
32-11,21808031,-16
32-12,21811937,-11
32-13,21815843,-12
32-14,21819749,-22
32-15,21823655,-33
32-16,21827561,-44
32-17,21831467,-53
32-18,21835373,-58
32-19,21839279,-59
32-20,21843185,-59
32-21,21847091,-55
32-22,21850997,-53
32-23,21854903,-51
32-24,21858809,-60
32-25,21862715,-84
32-26,21866621,-92
32-27,21870527,-75
32-28,21874433,-44
32-29,21878339,-16
32-30,21882245,-12
32-31,21886151,-32
32-32,21890057,-56
32-1,21893786,-71
32-2,21897692,-67
32-3,21901598,-54
32-4,21905504,-44
32-5,21909410,-26
32-6,21913316,-10
32-7,21917222,-9
32-8,21921128,-22
32-9,21925034,-43
32-10,21928940,-56
32-11,21932846,-55
32-12,21936752,-40
32-13,21940658,-23
32-14,21944564,-15
32-15,21948470,-13
32-16,21952376,-18
32-17,21956282,-33
32-18,21960188,-59
32-19,21964094,-79
32-20,21968000,-83
32-21,21971906,-64
32-22,21975812,-37
32-23,21979718,-3
32-24,21983624,23
32-25,21987530,16
32-26,21991436,6
32-27,21995342,18
32-28,21999248,50
32-29,22003154,78
32-30,22007060,67
32-31,22010966,20
32-32,22014872,-22
32-1,22018783,-29
32-2,22022689,-15
32-3,22026595,-5
32-4,22030501,-22
32-5,22034407,-32
32-6,22038313,-21
32-7,22042219,-9
32-8,22046125,1
32-9,22050031,4
32-10,22053937,-2
32-11,22057843,-14
32-12,22061749,-25
32-13,22065655,-35
32-14,22069561,-40
32-15,22073467,-42
32-16,22077373,-40
32-17,22081279,-36
32-18,22085185,-31
32-19,22089091,-33
32-20,22092997,-45
32-21,22096903,-60
32-22,22100809,-69
32-23,22104715,-61
32-24,22108621,-50
32-25,22112527,-46
32-26,22116433,-22
32-27,22120339,16
32-28,22124245,43
32-29,22128151,40
32-30,22132057,1
32-31,22135963,-42
32-32,22139869,-56
32-1,22143781,-48
32-2,22147687,-40
32-3,22151593,-47
32-4,22155499,-63
32-5,22159405,-65
32-6,22163311,-59
32-7,22167217,-57
32-8,22171123,-64
32-9,22175029,-77
32-10,22178935,-83
32-11,22182841,-75
32-12,22186747,-55
32-13,22190653,-38
32-14,22194559,-32
32-15,22198465,-32
32-16,22202371,-34
32-17,22206277,-31
32-18,22210183,-27
32-19,22214089,-26
32-20,22217995,-27
32-21,22221901,-29
32-22,22225807,-36
32-23,22229713,-50
32-24,22233619,-74
32-25,22237525,-103
32-26,22241431,-103
32-27,22245337,-72
32-28,22249243,-24
32-29,22253149,11
32-30,22257055,3
32-31,22260961,-35
32-32,22264867,-72
32-1,22268779,-90
32-2,22272685,-85
32-3,22276591,-72
32-4,22280497,-61
32-5,22284403,-47
32-6,22288309,-41
32-7,22292215,-52
32-8,22296121,-78
32-9,22300027,-100
32-10,22303933,-101
32-11,22307839,-82
32-12,22311745,-52
32-13,22315651,-28
32-14,22319557,-21
32-15,22323463,-28
32-16,22327369,-42
32-17,22331275,-51
32-18,22335181,-54
32-19,22339087,-54
32-20,22342993,-53
32-21,22346899,-53
32-22,22350805,-53
32-23,22354711,-47
32-24,22358617,-44
32-25,22362523,-49
32-26,22366429,-37
32-27,22370335,-4
32-28,22374241,40
32-29,22378147,66
32-30,22382053,60
32-31,22385959,29
32-32,22389865,-3
32-1,22393776,-24
32-2,22397682,-27
32-3,22401588,-20
32-4,22405494,-19
32-5,22409400,-19
32-6,22413306,-26
32-7,22417212,-43
32-8,22421118,-62
32-9,22425024,-77
32-10,22428930,-82
32-11,22432836,-78
32-12,22436742,-64
32-13,22440648,-46
32-14,22444554,-33
32-15,22448460,-27
32-16,22452366,-26
32-17,22456272,-26
32-18,22460178,-31
32-19,22464084,-42
32-20,22467990,-57
32-21,22471896,-68
32-22,22475802,-76
32-23,22479708,-69
32-24,22483614,-61
32-25,22487520,-68
32-26,22491426,-76
32-27,22495332,-72
32-28,22499238,-53
32-29,22503144,-34
32-30,22507050,-41
32-31,22510956,-68
32-32,22514862,-88
32-1,22518957,-92
32-2,22522863,-80
32-3,22526769,-71
32-4,22530675,-70
32-5,22534581,-56
32-6,22538487,-33
32-7,22542393,-20
32-8,22546299,-24
32-9,22550205,-45
32-10,22554111,-64
32-11,22558017,-69
32-12,22561923,-62
32-13,22565829,-44
32-14,22569735,-26
32-15,22573641,-11
32-16,22577547,-5
32-17,22581453,-5
32-18,22585359,-11
32-19,22589265,-19
32-20,22593171,-25
32-21,22597077,-22
32-22,22600983,-17
32-23,22604889,-12
32-24,22608795,-15
32-25,22612701,-33
32-26,22616607,-29
32-27,22620513,3
32-28,22624419,46
32-29,22628325,63
32-30,22632231,38
32-31,22636137,-6
32-32,22640043,-32
32-1,22643772,-30
32-2,22647678,-11
32-3,22651584,-3
32-4,22655490,-18
32-5,22659396,-32
32-6,22663302,-38
32-7,22667208,-28
32-8,22671114,-8
32-9,22675020,9
32-10,22678926,18
32-11,22682832,17
32-12,22686738,9
32-13,22690644,-8
32-14,22694550,-33
32-15,22698456,-56
32-16,22702362,-70
32-17,22706268,-73
32-18,22710174,-68
32-19,22714080,-64
32-20,22717986,-63
32-21,22721892,-65
32-22,22725798,-68
32-23,22729704,-69
32-24,22733610,-70
32-25,22737516,-91
32-26,22741422,-98
32-27,22745328,-66
32-28,22749234,-3
32-29,22753140,53
32-30,22757046,49
32-31,22760952,-15
32-32,22764858,-84
32-1,22768769,-116
32-2,22772675,-109
32-3,22776581,-90
32-4,22780487,-98
32-5,22784393,-106
32-6,22788299,-107
32-7,22792205,-113
32-8,22796111,-120
32-9,22800017,-125
32-10,22803923,-120
32-11,22807829,-108
32-12,22811735,-85
32-13,22815641,-59
32-14,22819547,-36
32-15,22823453,-24
32-16,22827359,-21
32-17,22831265,-21
32-18,22835171,-20
32-19,22839077,-15
32-20,22842983,-12
32-21,22846889,-13
32-22,22850795,-17
32-23,22854701,-11
32-24,22858607,-5
32-25,22862513,-5
32-26,22866419,12
32-27,22870325,48
32-28,22874231,85
32-29,22878137,92
32-30,22882043,57
32-31,22885949,7
32-32,22889855,-28
32-1,22893767,-34
32-2,22897673,-20
32-3,22901579,0
32-4,22905485,7
32-5,22909391,15
32-6,22913297,20
32-7,22917203,20
32-8,22921109,21
32-9,22925015,21
32-10,22928921,22
32-11,22932827,25
32-12,22936733,23
32-13,22940639,17
32-14,22944545,4
32-15,22948451,-8
32-16,22952357,-14
32-17,22956263,-17
32-18,22960169,-22
32-19,22964075,-25
32-20,22967981,-20
32-21,22971887,-7
32-22,22975793,0
32-23,22979699,2
32-24,22983605,-9
32-25,22987511,-29
32-26,22991417,-35
32-27,22995323,-19
32-28,22999229,11
32-29,23003135,32
32-30,23007041,21
32-31,23010947,-14
32-32,23014853,-46
32-1,23018764,-56
32-2,23022670,-44
32-3,23026576,-29
32-4,23030482,-27
32-5,23034388,-21
32-6,23038294,-17
32-7,23042200,-24
32-8,23046106,-36
32-9,23050012,-47
32-10,23053918,-54
32-11,23057824,-55
32-12,23061730,-51
32-13,23065636,-41
32-14,23069542,-26
32-15,23073448,-10
32-16,23077354,-2
32-17,23081260,-1
32-18,23085166,-6
32-19,23089072,-11
32-20,23092978,-15
32-21,23096884,-16
32-22,23100790,-23
32-23,23104696,-28
32-24,23108602,-35
32-25,23112508,-48
32-26,23116414,-40
32-27,23120320,-13
32-28,23124226,12
32-29,23128132,21
32-30,23132038,6
32-31,23135944,-21
32-32,23139850,-41
32-1,23143762,-55
32-2,23147668,-66
32-3,23151574,-77
32-4,23155480,-90
32-5,23159386,-94
32-6,23163292,-94
32-7,23167198,-101
32-8,23171104,-104
32-9,23175010,-101
32-10,23178916,-89
32-11,23182822,-76
32-12,23186728,-70
32-13,23190634,-72
32-14,23194540,-74
32-15,23198446,-72
32-16,23202352,-63
32-17,23206258,-51
32-18,23210164,-40
32-19,23214070,-34
32-20,23217976,-36
32-21,23221882,-47
32-22,23225788,-61
32-23,23229694,-62
32-24,23233600,-55
32-25,23237506,-54
32-26,23241412,-50
32-27,23245318,-35
32-28,23249224,-8
32-29,23253130,11
32-30,23257036,1
32-31,23260942,-29
32-32,23264848,-50
32-1,23268973,-52
32-2,23272879,-41
32-3,23276785,-33
32-4,23280691,-38
32-5,23284597,-38
32-6,23288503,-37
32-7,23292409,-42
32-8,23296315,-51
32-9,23300221,-54
32-10,23304127,-45
32-11,23308033,-31
32-12,23311939,-21
32-13,23315845,-19
32-14,23319751,-20
32-15,23323657,-24
32-16,23327563,-30
32-17,23331469,-35
32-18,23335375,-46
32-19,23339281,-61
32-20,23343187,-70
32-21,23347093,-62
32-22,23350999,-47
32-23,23354905,-32
32-24,23358811,-32
32-25,23362717,-50
32-26,23366623,-58
32-27,23370529,-56
32-28,23374435,-58
32-29,23378341,-74
32-30,23382247,-105
32-31,23386153,-129
32-32,23390059,-127
32-1,23393757,-105
32-2,23397663,-70
32-3,23401569,-39
32-4,23405475,-32
32-5,23409381,-29
32-6,23413287,-26
32-7,23417193,-13
32-8,23421099,8
32-9,23425005,21
32-10,23428911,18
32-11,23432817,8
32-12,23436723,7
32-13,23440629,17
32-14,23444535,32
32-15,23448441,40
32-16,23452347,34
32-17,23456253,14
32-18,23460159,-11
32-19,23464065,-31
32-20,23467971,-40
32-21,23471877,-37
32-22,23475783,-37
32-23,23479689,-41
32-24,23483595,-47
32-25,23487501,-62
32-26,23491407,-48
32-27,23495313,5
32-28,23499219,74
32-29,23503125,114
32-30,23507031,83
32-31,23510937,-5
32-32,23514843,-83
32-1,23518755,-115
32-2,23522661,-104
32-3,23526567,-85
32-4,23530473,-89
32-5,23534379,-87
32-6,23538285,-66
32-7,23542191,-42
32-8,23546097,-24
32-9,23550003,-21
32-10,23553909,-24
32-11,23557815,-26
32-12,23561721,-29
32-13,23565627,-35
32-14,23569533,-43
32-15,23573439,-45
32-16,23577345,-36
32-17,23581251,-25
32-18,23585157,-20
32-19,23589063,-30
32-20,23592969,-52
32-21,23596875,-65
32-22,23600781,-65
32-23,23604687,-48
32-24,23608593,-35
32-25,23612499,-42
32-26,23616405,-51
32-27,23620311,-45
32-28,23624217,-27
32-29,23628123,-11
32-30,23632029,-17
32-31,23635935,-40
32-32,23639841,-60
32-1,23643753,-66
32-2,23647659,-61
32-3,23651565,-55
32-4,23655471,-64
32-5,23659377,-70
32-6,23663283,-69
32-7,23667189,-66
32-8,23671095,-66
32-9,23675001,-74
32-10,23678907,-78
32-11,23682813,-71
32-12,23686719,-54
32-13,23690625,-41
32-14,23694531,-47
32-15,23698437,-67
32-16,23702343,-90
32-17,23706249,-99
32-18,23710155,-88
32-19,23714061,-64
32-20,23717967,-40
32-21,23721873,-29
32-22,23725779,-37
32-23,23729685,-49
32-24,23733591,-59
32-25,23737497,-70
32-26,23741403,-65
32-27,23745309,-42
32-28,23749215,-5
32-29,23753121,22
32-30,23757027,16
32-31,23760933,-13
32-32,23764839,-36
32-1,23768750,-34
32-2,23772656,-15
32-3,23776562,-1
32-4,23780468,-8
32-5,23784374,-17
32-6,23788280,-23
32-7,23792186,-26
32-8,23796092,-27
32-9,23799998,-29
32-10,23803904,-36
32-11,23807810,-48
32-12,23811716,-55
32-13,23815622,-51
32-14,23819528,-40
32-15,23823434,-34
32-16,23827340,-37
32-17,23831246,-40
32-18,23835152,-35
32-19,23839058,-27
32-20,23842964,-22
32-21,23846870,-20
32-22,23850776,-14
32-23,23854682,-2
32-24,23858588,3
32-25,23862494,-10
32-26,23866400,-12
32-27,23870306,10
32-28,23874212,46
32-29,23878118,65
32-30,23882024,45
32-31,23885930,-4
32-32,23889836,-42
32-1,23893748,-50
32-2,23897654,-29
32-3,23901560,1
32-4,23905466,18
32-5,23909372,31
32-6,23913278,36
32-7,23917184,33
32-8,23921090,28
32-9,23924996,22
32-10,23928902,13
32-11,23932808,6
32-12,23936714,1
32-13,23940620,-4
32-14,23944526,-13
32-15,23948432,-30
32-16,23952338,-52
32-17,23956244,-74
32-18,23960150,-82
32-19,23964056,-74
32-20,23967962,-60
32-21,23971868,-49
32-22,23975774,-50
32-23,23979680,-54
32-24,23983586,-59
32-25,23987492,-70
32-26,23991398,-68
32-27,23995304,-45
32-28,23999210,-12
32-29,24003116,8
32-30,24007022,-6
32-31,24010928,-37
32-32,24014834,-51
32-1,24018959,-43
32-2,24022865,-30
32-3,24026771,-31
32-4,24030677,-46
32-5,24034583,-52
32-6,24038489,-47
32-7,24042395,-43
32-8,24046301,-47
32-9,24050207,-56
32-10,24054113,-63
32-11,24058019,-65
32-12,24061925,-56
32-13,24065831,-45
32-14,24069737,-39
32-15,24073643,-51
32-16,24077549,-75
32-17,24081455,-94
32-18,24085361,-95
32-19,24089267,-83
32-20,24093173,-67
32-21,24097079,-54
32-22,24100985,-43
32-23,24104891,-35
32-24,24108797,-43
32-25,24112703,-71
32-26,24116609,-80
32-27,24120515,-59
32-28,24124421,-26
32-29,24128327,-11
32-30,24132233,-31
32-31,24136139,-64
32-32,24140045,-74
32-1,24143743,-60
32-2,24147649,-39
32-3,24151555,-34
32-4,24155461,-48
32-5,24159367,-55
32-6,24163273,-56
32-7,24167179,-56
32-8,24171085,-53
32-9,24174991,-53
32-10,24178897,-55
32-11,24182803,-58
32-12,24186709,-55
32-13,24190615,-48
32-14,24194521,-38
32-15,24198427,-27
32-16,24202333,-20
32-17,24206239,-19
32-18,24210145,-21
32-19,24214051,-15
32-20,24217957,-7
32-21,24221863,-1
32-22,24225769,-15
32-23,24229675,-40
32-24,24233581,-64
32-25,24237487,-85
32-26,24241393,-74
32-27,24245299,-28
32-28,24249205,23
32-29,24253111,49
32-30,24257017,30
32-31,24260923,-18
32-32,24264829,-52
32-1,24268741,-60
32-2,24272647,-50
32-3,24276553,-42
32-4,24280459,-55
32-5,24284365,-62
32-6,24288271,-58
32-7,24292177,-54
32-8,24296083,-46
32-9,24299989,-38
32-10,24303895,-32
32-11,24307801,-33
32-12,24311707,-34
32-13,24315613,-30
32-14,24319519,-21
32-15,24323425,-16
32-16,24327331,-11
32-17,24331237,0
32-18,24335143,13
32-19,24339049,24
32-20,24342955,30
32-21,24346861,32
32-22,24350767,24
32-23,24354673,7
32-24,24358579,-22
32-25,24362485,-58
32-26,24366391,-58
32-27,24370297,-14
32-28,24374203,45
32-29,24378109,78
32-30,24382015,59
32-31,24385921,6
32-32,24389827,-43
32-1,24393738,-70
32-2,24397644,-71
32-3,24401550,-63
32-4,24405456,-68
32-5,24409362,-71
32-6,24413268,-64
32-7,24417174,-56
32-8,24421080,-48
32-9,24424986,-47
32-10,24428892,-47
32-11,24432798,-44
32-12,24436704,-42
32-13,24440610,-41
32-14,24444516,-36
32-15,24448422,-27
32-16,24452328,-10
32-17,24456234,3
32-18,24460140,-1
32-19,24464046,-17
32-20,24467952,-32
32-21,24471858,-34
32-22,24475764,-30
32-23,24479670,-22
32-24,24483576,-24
32-25,24487482,-42
32-26,24491388,-56
32-27,24495294,-52
32-28,24499200,-29
32-29,24503106,-8
32-30,24507012,-16
32-31,24510918,-49
32-32,24514824,-79
32-1,24518736,-82
32-2,24522642,-58
32-3,24526548,-26
32-4,24530454,-11
32-5,24534360,-3
32-6,24538266,-5
32-7,24542172,-14
32-8,24546078,-22
32-9,24549984,-29
32-10,24553890,-38
32-11,24557796,-42
32-12,24561702,-31
32-13,24565608,-12
32-14,24569514,6
32-15,24573420,12
32-16,24577326,10
32-17,24581232,7
32-18,24585138,8
32-19,24589044,11
32-20,24592950,8
32-21,24596856,-4
32-22,24600762,-22
32-23,24604668,-39
32-24,24608574,-57
32-25,24612480,-70
32-26,24616386,-52
32-27,24620292,-8
32-28,24624198,37
32-29,24628104,54
32-30,24632010,33
32-31,24635916,-7
32-32,24639822,-39
32-1,24643734,-47
32-2,24647640,-31
32-3,24651546,-9
32-4,24655452,-1
32-5,24659358,-1
32-6,24663264,-6
32-7,24667170,-9
32-8,24671076,-5
32-9,24674982,3
32-10,24678888,13
32-11,24682794,19
32-12,24686700,19
32-13,24690606,10
32-14,24694512,-9
32-15,24698418,-27
32-16,24702324,-37
32-17,24706230,-41
32-18,24710136,-45
32-19,24714042,-47
32-20,24717948,-47
32-21,24721854,-48
32-22,24725760,-50
32-23,24729666,-46
32-24,24733572,-43
32-25,24737478,-50
32-26,24741384,-50
32-27,24745290,-33
32-28,24749196,-5
32-29,24753102,16
32-30,24757008,6
32-31,24760914,-23
32-32,24764820,-39
32-1,24768914,-35
32-2,24772820,-16
32-3,24776726,-10
32-4,24780632,-21
32-5,24784538,-26
32-6,24788444,-29
32-7,24792350,-37
32-8,24796256,-50
32-9,24800162,-58
32-10,24804068,-53
32-11,24807974,-42
32-12,24811880,-30
32-13,24815786,-27
32-14,24819692,-29
32-15,24823598,-31
32-16,24827504,-26
32-17,24831410,-17
32-18,24835316,-10
32-19,24839222,-11
32-20,24843128,-18
32-21,24847034,-19
32-22,24850940,-11
32-23,24854846,5
32-24,24858752,11
32-25,24862658,-3
32-26,24866564,-11
32-27,24870470,-1
32-28,24874376,16
32-29,24878282,18
32-30,24882188,-8
32-31,24886094,-55
32-32,24890000,-92
32-1,24893729,-105
32-2,24897635,-92
32-3,24901541,-72
32-4,24905447,-66
32-5,24909353,-58
32-6,24913259,-44
32-7,24917165,-23
32-8,24921071,-1
32-9,24924977,12
32-10,24928883,13
32-11,24932789,10
32-12,24936695,8
32-13,24940601,9
32-14,24944507,6
32-15,24948413,0
32-16,24952319,-9
32-17,24956225,-19
32-18,24960131,-27
32-19,24964037,-25
32-20,24967943,-18
32-21,24971849,-7
32-22,24975755,-7
32-23,24979661,-7
32-24,24983567,-4
32-25,24987473,-17
32-26,24991379,-12
32-27,24995285,20
32-28,24999191,62
32-29,25003097,84
32-30,25007003,53
32-31,25010909,-14
32-32,25014815,-66
32-1,25018788,-78
32-2,25022694,-64
32-3,25026600,-50
32-4,25030506,-65
32-5,25034412,-73
32-6,25038318,-65
32-7,25042224,-52
32-8,25046130,-37
32-9,25050036,-25
32-10,25053942,-20
32-11,25057848,-22
32-12,25061754,-27
32-13,25065660,-27
32-14,25069566,-22
32-15,25073472,-19
32-16,25077378,-21
32-17,25081284,-24
32-18,25085190,-25
32-19,25089096,-24
32-20,25093002,-19
32-21,25096908,-4
32-22,25100814,16
32-23,25104720,32
32-24,25108626,25
32-25,25112532,-3
32-26,25116438,-17
32-27,25120344,-6
32-28,25124250,16
32-29,25128156,28
32-30,25132062,9
32-31,25135968,-25
32-32,25139874,-48
32-1,25143724,-56
32-2,25147630,-56
32-3,25151536,-59
32-4,25155442,-76
32-5,25159348,-92
32-6,25163254,-103
32-7,25167160,-105
32-8,25171066,-87
32-9,25174972,-58
32-10,25178878,-31
32-11,25182784,-20
32-12,25186690,-31
32-13,25190596,-56
32-14,25194502,-74
32-15,25198408,-73
32-16,25202314,-55
32-17,25206220,-38
32-18,25210126,-28
32-19,25214032,-24
32-20,25217938,-23
32-21,25221844,-28
32-22,25225750,-43
32-23,25229656,-58
32-24,25233562,-68
32-25,25237468,-75
32-26,25241374,-59
32-27,25245280,-25
32-28,25249186,10
32-29,25253092,29
32-30,25256998,19
32-31,25260904,-2
32-32,25264810,-9
32-1,25268722,-3
32-2,25272628,5
32-3,25276534,1
32-4,25280440,-16
32-5,25284346,-25
32-6,25288252,-32
32-7,25292158,-46
32-8,25296064,-59
32-9,25299970,-61
32-10,25303876,-54
32-11,25307782,-50
32-12,25311688,-53
32-13,25315594,-57
32-14,25319500,-54
32-15,25323406,-47
32-16,25327312,-42
32-17,25331218,-40
32-18,25335124,-43
32-19,25339030,-46
32-20,25342936,-41
32-21,25346842,-30
32-22,25350748,-22
32-23,25354654,-14
32-24,25358560,-14
32-25,25362466,-23
32-26,25366372,-20
32-27,25370278,-9
32-28,25374184,-4
32-29,25378090,-19
32-30,25381996,-51
32-31,25385902,-83
32-32,25389808,-95
32-1,25393719,-90
32-2,25397625,-71
32-3,25401531,-55
32-4,25405437,-50
32-5,25409343,-44
32-6,25413249,-37
32-7,25417155,-32
32-8,25421061,-29
32-9,25424967,-23
32-10,25428873,-14
32-11,25432779,-5
32-12,25436685,1
32-13,25440591,-3
32-14,25444497,-10
32-15,25448403,-11
32-16,25452309,-7
32-17,25456215,-4
32-18,25460121,-6
32-19,25464027,-12
32-20,25467933,-12
32-21,25471839,-9
32-22,25475745,-16
32-23,25479651,-24
32-24,25483557,-33
32-25,25487463,-42
32-26,25491369,-33
32-27,25495275,-17
32-28,25499181,-9
32-29,25503087,-22
32-30,25506993,-60
32-31,25510899,-96
32-32,25514805,-105
32-1,25518931,-95
32-2,25522837,-83
32-3,25526743,-85
32-4,25530649,-95
32-5,25534555,-87
32-6,25538461,-65
32-7,25542367,-47
32-8,25546273,-36
32-9,25550179,-31
32-10,25554085,-30
32-11,25557991,-32
32-12,25561897,-31
32-13,25565803,-28
32-14,25569709,-21
32-15,25573615,-12
32-16,25577521,-8
32-17,25581427,-4
32-18,25585333,-1
32-19,25589239,-5
32-20,25593145,-15
32-21,25597051,-23
32-22,25600957,-27
32-23,25604863,-25
32-24,25608769,-29
32-25,25612675,-44
32-26,25616581,-39
32-27,25620487,-16
32-28,25624393,4
32-29,25628299,-1
32-30,25632205,-38
32-31,25636111,-84
32-32,25640017,-108
32-1,25643928,-103
32-2,25647834,-73
32-3,25651740,-40
32-4,25655646,-20
32-5,25659552,-7
32-6,25663458,-9
32-7,25667364,-22
32-8,25671270,-34
32-9,25675176,-43
32-10,25679082,-41
32-11,25682988,-36
32-12,25686894,-29
32-13,25690800,-26
32-14,25694706,-27
32-15,25698612,-29
32-16,25702518,-32
32-17,25706424,-37
32-18,25710330,-44
32-19,25714236,-46
32-20,25718142,-43
32-21,25722048,-37
32-22,25725954,-38
32-23,25729860,-34
32-24,25733766,-31
32-25,25737672,-48
32-26,25741578,-56
32-27,25745484,-34
32-28,25749390,8
32-29,25753296,31
32-30,25757202,-7
32-31,25761108,-90
32-32,25765014,-162
32-1,25768712,-184
32-2,25772618,-164
32-3,25776524,-132
32-4,25780430,-120
32-5,25784336,-109
32-6,25788242,-95
32-7,25792148,-92
32-8,25796054,-96
32-9,25799960,-103
32-10,25803866,-102
32-11,25807772,-99
32-12,25811678,-90
32-13,25815584,-75
32-14,25819490,-60
32-15,25823396,-53
32-16,25827302,-61
32-17,25831208,-77
32-18,25835114,-92
32-19,25839020,-104
32-20,25842926,-114
32-21,25846832,-114
32-22,25850738,-102
32-23,25854644,-82
32-24,25858550,-70
32-25,25862456,-81
32-26,25866362,-82
32-27,25870268,-58
32-28,25874174,-22
32-29,25878080,-1
32-30,25881986,-19
32-31,25885892,-66
32-32,25889798,-108
32-1,25893710,-126
32-2,25897616,-117
32-3,25901522,-96
32-4,25905428,-83
32-5,25909334,-70
32-6,25913240,-64
32-7,25917146,-69
32-8,25921052,-75
32-9,25924958,-75
32-10,25928864,-71
32-11,25932770,-62
32-12,25936676,-56
32-13,25940582,-56
32-14,25944488,-53
32-15,25948394,-45
32-16,25952300,-29
32-17,25956206,-14
32-18,25960112,-12
32-19,25964018,-16
32-20,25967924,-23
32-21,25971830,-29
32-22,25975736,-36
32-23,25979642,-38
32-24,25983548,-43
32-25,25987454,-55
32-26,25991360,-56
32-27,25995266,-34
32-28,25999172,0
32-29,26003078,14
32-30,26006984,-19
32-31,26010890,-79
32-32,26014796,-119
32-1,26018708,-114
32-2,26022614,-75
32-3,26026520,-33
32-4,26030426,-13
32-5,26034332,2
32-6,26038238,10
32-7,26042144,9
32-8,26046050,1
32-9,26049956,-11
32-10,26053862,-25
32-11,26057768,-34
32-12,26061674,-30
32-13,26065580,-16
32-14,26069486,2
32-15,26073392,6
32-16,26077298,-6
32-17,26081204,-23
32-18,26085110,-28
32-19,26089016,-21
32-20,26092922,-14
32-21,26096828,-11
32-22,26100734,-16
32-23,26104640,-22
32-24,26108546,-38
32-25,26112452,-67
32-26,26116358,-83
32-27,26120264,-78
32-28,26124170,-64
32-29,26128076,-57
32-30,26131982,-67
32-31,26135888,-89
32-32,26139794,-106
32-1,26143705,-111
32-2,26147611,-102
32-3,26151517,-86
32-4,26155423,-75
32-5,26159329,-58
32-6,26163235,-44
32-7,26167141,-40
32-8,26171047,-46
32-9,26174953,-59
32-10,26178859,-71
32-11,26182765,-74
32-12,26186671,-59
32-13,26190577,-39
32-14,26194483,-26
32-15,26198389,-21
32-16,26202295,-18
32-17,26206201,-13
32-18,26210107,-8
32-19,26214013,-6
32-20,26217919,-11
32-21,26221825,-24
32-22,26225731,-40
32-23,26229637,-44
32-24,26233543,-37
32-25,26237449,-35
32-26,26241355,-20
32-27,26245261,10
32-28,26249167,45
32-29,26253073,66
32-30,26256979,49
32-31,26260885,9
32-32,26264791,-24
32-1,26269069,-39
32-2,26272975,-38
32-3,26276881,-36
32-4,26280787,-41
32-5,26284693,-28
32-6,26288599,-6
32-7,26292505,4
32-8,26296411,2
32-9,26300317,-9
32-10,26304223,-23
32-11,26308129,-29
32-12,26312035,-28
32-13,26315941,-23
32-14,26319847,-15
32-15,26323753,-14
32-16,26327659,-17
32-17,26331565,-18
32-18,26335471,-13
32-19,26339377,-4
32-20,26343283,1
32-21,26347189,-2
32-22,26351095,-8
32-23,26355001,-14
32-24,26358907,-26
32-25,26362813,-40
32-26,26366719,-37
32-27,26370625,-13
32-28,26374531,24
32-29,26378437,43
32-30,26382343,27
32-31,26386249,-12
32-32,26390155,-47
32-1,26393701,-62
32-2,26397607,-52
32-3,26401513,-37
32-4,26405419,-32
32-5,26409325,-27
32-6,26413231,-20
32-7,26417137,-17
32-8,26421043,-23
32-9,26424949,-39
32-10,26428855,-57
32-11,26432761,-71
32-12,26436667,-72
32-13,26440573,-63
32-14,26444479,-52
32-15,26448385,-43
32-16,26452291,-40
32-17,26456197,-42
32-18,26460103,-50
32-19,26464009,-57
32-20,26467915,-56
32-21,26471821,-49
32-22,26475727,-47
32-23,26479633,-42
32-24,26483539,-39
32-25,26487445,-56
32-26,26491351,-64
32-27,26495257,-35
32-28,26499163,21
32-29,26503069,66
32-30,26506975,57
32-31,26510881,5
32-32,26514787,-46
32-1,26518698,-60
32-2,26522604,-45
32-3,26526510,-30
32-4,26530416,-47
32-5,26534322,-62
32-6,26538228,-59
32-7,26542134,-44
32-8,26546040,-26
32-9,26549946,-15
32-10,26553852,-13
32-11,26557758,-19
32-12,26561664,-22
32-13,26565570,-17
32-14,26569476,-16
32-15,26573382,-26
32-16,26577288,-42
32-17,26581194,-56
32-18,26585100,-57
32-19,26589006,-47
32-20,26592912,-38
32-21,26596818,-33
32-22,26600724,-35
32-23,26604630,-43
32-24,26608536,-55
32-25,26612442,-76
32-26,26616348,-73
32-27,26620254,-38
32-28,26624160,6
32-29,26628066,29
32-30,26631972,7
32-31,26635878,-44
32-32,26639784,-82
32-1,26643696,-86
32-2,26647602,-62
32-3,26651508,-38
32-4,26655414,-41
32-5,26659320,-53
32-6,26663226,-59
32-7,26667132,-53
32-8,26671038,-35
32-9,26674944,-21
32-10,26678850,-16
32-11,26682756,-18
32-12,26686662,-15
32-13,26690568,-1
32-14,26694474,12
32-15,26698380,14
32-16,26702286,4
32-17,26706192,-10
32-18,26710098,-17
32-19,26714004,-15
32-20,26717910,-12
32-21,26721816,-14
32-22,26725722,-23
32-23,26729628,-25
32-24,26733534,-22
32-25,26737440,-34
32-26,26741346,-41
32-27,26745252,-33
32-28,26749158,-4
32-29,26753064,22
32-30,26756970,16
32-31,26760876,-15
32-32,26764782,-42
32-1,26768693,-51
32-2,26772599,-42
32-3,26776505,-32
32-4,26780411,-32
32-5,26784317,-31
32-6,26788223,-29
32-7,26792129,-31
32-8,26796035,-29
32-9,26799941,-25
32-10,26803847,-22
32-11,26807753,-24
32-12,26811659,-29
32-13,26815565,-27
32-14,26819471,-17
32-15,26823377,-7
32-16,26827283,-2
32-17,26831189,2
32-18,26835095,4
32-19,26839001,-1
32-20,26842907,-14
32-21,26846813,-25
32-22,26850719,-30
32-23,26854625,-26
32-24,26858531,-30
32-25,26862437,-54
32-26,26866343,-74
32-27,26870249,-72
32-28,26874155,-56
32-29,26878061,-48
32-30,26881967,-67
32-31,26885873,-103
32-32,26889779,-130
32-1,26893844,-134
32-2,26897750,-119
32-3,26901656,-99
32-4,26905562,-88
32-5,26909468,-77
32-6,26913374,-66
32-7,26917280,-59
32-8,26921186,-49
32-9,26925092,-36
32-10,26928998,-28
32-11,26932904,-31
32-12,26936810,-42
32-13,26940716,-54
32-14,26944622,-58
32-15,26948528,-52
32-16,26952434,-44
32-17,26956340,-44
32-18,26960246,-56
32-19,26964152,-70
32-20,26968058,-71
32-21,26971964,-59
32-22,26975870,-49
32-23,26979776,-49
32-24,26983682,-70
32-25,26987588,-102
32-26,26991494,-115
32-27,26995400,-100
32-28,26999306,-65
32-29,27003212,-39
32-30,27007118,-41
32-31,27011024,-55
32-32,27014930,-59
32-1,27018689,-49
32-2,27022595,-28
32-3,27026501,-13
32-4,27030407,-12
32-5,27034313,-7
32-6,27038219,-1
32-7,27042125,4
32-8,27046031,8
32-9,27049937,6
32-10,27053843,8
32-11,27057749,13
32-12,27061655,21
32-13,27065561,30
32-14,27069467,34
32-15,27073373,27
32-16,27077279,18
32-17,27081185,15
32-18,27085091,16
32-19,27088997,20
32-20,27092903,22
32-21,27096809,23
32-22,27100715,21
32-23,27104621,14
32-24,27108527,2
32-25,27112433,-18
32-26,27116339,-19
32-27,27120245,0
32-28,27124151,16
32-29,27128057,13
32-30,27131963,-11
32-31,27135869,-38
32-32,27139775,-37
32-1,27143686,-15
32-2,27147592,12
32-3,27151498,20
32-4,27155404,1
32-5,27159310,-16
32-6,27163216,-20
32-7,27167122,-16
32-8,27171028,-9
32-9,27174934,-11
32-10,27178840,-16
32-11,27182746,-11
32-12,27186652,2
32-13,27190558,12
32-14,27194464,17
32-15,27198370,14
32-16,27202276,8
32-17,27206182,6
32-18,27210088,5
32-19,27213994,3
32-20,27217900,-6
32-21,27221806,-20
32-22,27225712,-37
32-23,27229618,-39
32-24,27233524,-28
32-25,27237430,-31
32-26,27241336,-35
32-27,27245242,-16
32-28,27249148,24
32-29,27253054,59
32-30,27256960,47
32-31,27260866,-16
32-32,27264772,-77
32-1,27268684,-96
32-2,27272590,-71
32-3,27276496,-34
32-4,27280402,-21
32-5,27284308,-15
32-6,27288214,-8
32-7,27292120,-18
32-8,27296026,-42
32-9,27299932,-77
32-10,27303838,-105
32-11,27307744,-112
32-12,27311650,-100
32-13,27315556,-80
32-14,27319462,-70
32-15,27323368,-77
32-16,27327274,-92
32-17,27331180,-91
32-18,27335086,-75
32-19,27338992,-52
32-20,27342898,-38
32-21,27346804,-34
32-22,27350710,-34
32-23,27354616,-35
32-24,27358522,-46
32-25,27362428,-69
32-26,27366334,-75
32-27,27370240,-49
32-28,27374146,-13
32-29,27378052,-4
32-30,27381958,-39
32-31,27385864,-95
32-32,27389770,-128
32-1,27393682,-126
32-2,27397588,-98
32-3,27401494,-72
32-4,27405400,-69
32-5,27409306,-72
32-6,27413212,-78
32-7,27417118,-85
32-8,27421024,-84
32-9,27424930,-75
32-10,27428836,-68
32-11,27432742,-66
32-12,27436648,-72
32-13,27440554,-80
32-14,27444460,-75
32-15,27448366,-57
32-16,27452272,-39
32-17,27456178,-33
32-18,27460084,-42
32-19,27463990,-53
32-20,27467896,-54
32-21,27471802,-41
32-22,27475708,-26
32-23,27479614,-13
32-24,27483520,-8
32-25,27487426,-14
32-26,27491332,-9
32-27,27495238,10
32-28,27499144,27
32-29,27503050,28
32-30,27506956,-3
32-31,27510862,-49
32-32,27514768,-81
32-1,27518679,-94
32-2,27522585,-85
32-3,27526491,-64
32-4,27530397,-45
32-5,27534303,-25
32-6,27538209,-23
32-7,27542115,-33
32-8,27546021,-36
32-9,27549927,-27
32-10,27553833,-15
32-11,27557739,-13
32-12,27561645,-21
32-13,27565551,-25
32-14,27569457,-23
32-15,27573363,-21
32-16,27577269,-21
32-17,27581175,-18
32-18,27585081,-7
32-19,27588987,9
32-20,27592893,22
32-21,27596799,24
32-22,27600705,14
32-23,27604611,3
32-24,27608517,-10
32-25,27612423,-27
32-26,27616329,-23
32-27,27620235,-4
32-28,27624141,6
32-29,27628047,-6
32-30,27631953,-40
32-31,27635859,-68
32-32,27639765,-72
32-1,27643677,-61
32-2,27647583,-51
32-3,27651489,-59
32-4,27655395,-84
32-5,27659301,-94
32-6,27663207,-87
32-7,27667113,-68
32-8,27671019,-43
32-9,27674925,-28
32-10,27678831,-27
32-11,27682737,-33
32-12,27686643,-42
32-13,27690549,-53
32-14,27694455,-65
32-15,27698361,-72
32-16,27702267,-64
32-17,27706173,-44
32-18,27710079,-15
32-19,27713985,10
32-20,27717891,21
32-21,27721797,18
32-22,27725703,9
32-23,27729609,4
32-24,27733515,-2
32-25,27737421,-20
32-26,27741327,-28
32-27,27745233,-16
32-28,27749139,11
32-29,27753045,31
32-30,27756951,20
32-31,27760857,-12
32-32,27764763,-31
32-1,27768674,-34
32-2,27772580,-29
32-3,27776486,-28
32-4,27780392,-36
32-5,27784298,-35
32-6,27788204,-29
32-7,27792110,-26
32-8,27796016,-25
32-9,27799922,-23
32-10,27803828,-19
32-11,27807734,-17
32-12,27811640,-14
32-13,27815546,-9
32-14,27819452,-1
32-15,27823358,9
32-16,27827264,17
32-17,27831170,20
32-18,27835076,13
32-19,27838982,2
32-20,27842888,-8
32-21,27846794,-10
32-22,27850700,-9
32-23,27854606,-16
32-24,27858512,-35
32-25,27862418,-61
32-26,27866324,-65
32-27,27870230,-44
32-28,27874136,-12
32-29,27878042,5
32-30,27881948,-4
32-31,27885854,-30
32-32,27889760,-56
32-1,27893764,-67
32-2,27897670,-63
32-3,27901576,-52
32-4,27905482,-51
32-5,27909388,-52
32-6,27913294,-54
32-7,27917200,-53
32-8,27921106,-44
32-9,27925012,-29
32-10,27928918,-11
32-11,27932824,4
32-12,27936730,7
32-13,27940636,-8
32-14,27944542,-38
32-15,27948448,-65
32-16,27952354,-77
32-17,27956260,-75
32-18,27960166,-70
32-19,27964072,-70
32-20,27967978,-77
32-21,27971884,-88
32-22,27975790,-100
32-23,27979696,-97
32-24,27983602,-82
32-25,27987508,-78
32-26,27991414,-70
32-27,27995320,-45
32-28,27999226,-5
32-29,28003132,24
32-30,28007038,14
32-31,28010944,-30
32-32,28014850,-70
32-1,28018670,-82
32-2,28022576,-65
32-3,28026482,-42
32-4,28030388,-34
32-5,28034294,-28
32-6,28038200,-17
32-7,28042106,-12
32-8,28046012,-10
32-9,28049918,-15
32-10,28053824,-25
32-11,28057730,-39
32-12,28061636,-50
32-13,28065542,-60
32-14,28069448,-72
32-15,28073354,-90
32-16,28077260,-100
32-17,28081166,-90
32-18,28085072,-66
32-19,28088978,-47
32-20,28092884,-40
32-21,28096790,-39
32-22,28100696,-39
32-23,28104602,-42
32-24,28108508,-57
32-25,28112414,-91
32-26,28116320,-107
32-27,28120226,-91
32-28,28124132,-54
32-29,28128038,-32
32-30,28131944,-44
32-31,28135850,-66
32-32,28139756,-74
32-1,28143667,-67
32-2,28147573,-58
32-3,28151479,-65
32-4,28155385,-88
32-5,28159291,-100
32-6,28163197,-101
32-7,28167103,-105
32-8,28171009,-112
32-9,28174915,-119
32-10,28178821,-110
32-11,28182727,-88
32-12,28186633,-69
32-13,28190539,-63
32-14,28194445,-66
32-15,28198351,-69
32-16,28202257,-64
32-17,28206163,-54
32-18,28210069,-43
32-19,28213975,-31
32-20,28217881,-22
32-21,28221787,-22
32-22,28225693,-31
32-23,28229599,-39
32-24,28233505,-50
32-25,28237411,-68
32-26,28241317,-70
32-27,28245223,-56
32-28,28249129,-33
32-29,28253035,-24
32-30,28256941,-49
32-31,28260847,-95
32-32,28264753,-121
32-1,28268665,-119
32-2,28272571,-98
32-3,28276477,-82
32-4,28280383,-84
32-5,28284289,-83
32-6,28288195,-78
32-7,28292101,-71
32-8,28296007,-57
32-9,28299913,-43
32-10,28303819,-36
32-11,28307725,-37
32-12,28311631,-39
32-13,28315537,-35
32-14,28319443,-24
32-15,28323349,-13
32-16,28327255,-8
32-17,28331161,-1
32-18,28335067,10
32-19,28338973,22
32-20,28342879,25
32-21,28346785,16
32-22,28350691,-3
32-23,28354597,-18
32-24,28358503,-30
32-25,28362409,-33
32-26,28366315,-12
32-27,28370221,20
32-28,28374127,45
32-29,28378033,45
32-30,28381939,13
32-31,28385845,-30
32-32,28389751,-55
32-1,28393663,-55
32-2,28397569,-36
32-3,28401475,-21
32-4,28405381,-24
32-5,28409287,-32
32-6,28413193,-40
32-7,28417099,-43
32-8,28421005,-37
32-9,28424911,-31
32-10,28428817,-29
32-11,28432723,-34
32-12,28436629,-47
32-13,28440535,-69
32-14,28444441,-89
32-15,28448347,-101
32-16,28452253,-104
32-17,28456159,-100
32-18,28460065,-94
32-19,28463971,-85
32-20,28467877,-77
32-21,28471783,-72
32-22,28475689,-72
32-23,28479595,-73
32-24,28483501,-80
32-25,28487407,-91
32-26,28491313,-81
32-27,28495219,-52
32-28,28499125,-18
32-29,28503031,-5
32-30,28506937,-26
32-31,28510843,-52
32-32,28514749,-53
32-1,28518660,-31
32-2,28522566,-1
32-3,28526472,14
32-4,28530378,10
32-5,28534284,13
32-6,28538190,21
32-7,28542096,27
32-8,28546002,32
32-9,28549908,33
32-10,28553814,34
32-11,28557720,35
32-12,28561626,30
32-13,28565532,19
32-14,28569438,7
32-15,28573344,2
32-16,28577250,8
32-17,28581156,19
32-18,28585062,21
32-19,28588968,9
32-20,28592874,-5
32-21,28596780,-3
32-22,28600686,17
32-23,28604592,43
32-24,28608498,53
32-25,28612404,39
32-26,28616310,33
32-27,28620216,53
32-28,28624122,87
32-29,28628028,101
32-30,28631934,66
32-31,28635840,5
32-32,28639746,-39
32-1,28643658,-43
32-2,28647564,-12
32-3,28651470,15
32-4,28655376,11
32-5,28659282,-5
32-6,28663188,-15
32-7,28667094,-14
32-8,28671000,-10
32-9,28674906,-16
32-10,28678812,-29
32-11,28682718,-43
32-12,28686624,-54
32-13,28690530,-60
32-14,28694436,-61
32-15,28698342,-58
32-16,28702248,-53
32-17,28706154,-51
32-18,28710060,-49
32-19,28713966,-45
32-20,28717872,-38
32-21,28721778,-30
32-22,28725684,-27
32-23,28729590,-19
32-24,28733496,-9
32-25,28737402,-15
32-26,28741308,-14
32-27,28745214,12
32-28,28749120,53
32-29,28753026,75
32-30,28756932,39
32-31,28760838,-40
32-32,28764744,-102
32-1,28768656,-120
32-2,28772562,-99
32-3,28776468,-69
32-4,28780374,-64
32-5,28784280,-62
32-6,28788186,-60
32-7,28792092,-70
32-8,28795998,-78
32-9,28799904,-83
32-10,28803810,-81
32-11,28807716,-83
32-12,28811622,-86
32-13,28815528,-85
32-14,28819434,-70
32-15,28823340,-48
32-16,28827246,-29
32-17,28831152,-24
32-18,28835058,-32
32-19,28838964,-46
32-20,28842870,-54
32-21,28846776,-55
32-22,28850682,-55
32-23,28854588,-55
32-24,28858494,-64
32-25,28862400,-87
32-26,28866306,-94
32-27,28870212,-75
32-28,28874118,-43
32-29,28878024,-24
32-30,28881930,-44
32-31,28885836,-98
32-32,28889742,-153
32-1,28893653,-177
32-2,28897559,-162
32-3,28901465,-129
32-4,28905371,-105
32-5,28909277,-84
32-6,28913183,-68
32-7,28917089,-59
32-8,28920995,-48
32-9,28924901,-37
32-10,28928807,-23
32-11,28932713,-11
32-12,28936619,-3
32-13,28940525,-4
32-14,28944431,-6
32-15,28948337,-4
32-16,28952243,1
32-17,28956149,1
32-18,28960055,-1
32-19,28963961,-2
32-20,28967867,0
32-21,28971773,4
32-22,28975679,0
32-23,28979585,-2
32-24,28983491,-2
32-25,28987397,-12
32-26,28991303,-16
32-27,28995209,-7
32-28,28999115,13
32-29,29003021,22
32-30,29006927,-1
32-31,29010833,-43
32-32,29014739,-75
32-1,29018651,-84
32-2,29022557,-71
32-3,29026463,-53
32-4,29030369,-46
32-5,29034275,-36
32-6,29038181,-29
32-7,29042087,-30
32-8,29045993,-38
32-9,29049899,-45
32-10,29053805,-44
32-11,29057711,-42
32-12,29061617,-41
32-13,29065523,-40
32-14,29069429,-38
32-15,29073335,-33
32-16,29077241,-27
32-17,29081147,-23
32-18,29085053,-29
32-19,29088959,-43
32-20,29092865,-58
32-21,29096771,-59
32-22,29100677,-51
32-23,29104583,-35
32-24,29108489,-29
32-25,29112395,-37
32-26,29116301,-33
32-27,29120207,-9
32-28,29124113,12
32-29,29128019,15
32-30,29131925,-9
32-31,29135831,-47
32-32,29139737,-71
32-1,29143648,-75
32-2,29147554,-66
32-3,29151460,-56
32-4,29155366,-57
32-5,29159272,-56
32-6,29163178,-59
32-7,29167084,-70
32-8,29170990,-83
32-9,29174896,-94
32-10,29178802,-101
32-11,29182708,-102
32-12,29186614,-98
32-13,29190520,-93
32-14,29194426,-87
32-15,29198332,-85
32-16,29202238,-86
32-17,29206144,-87
32-18,29210050,-84
32-19,29213956,-77
32-20,29217862,-70
32-21,29221768,-67
32-22,29225674,-71
32-23,29229580,-76
32-24,29233486,-81
32-25,29237392,-87
32-26,29241298,-75
32-27,29245204,-46
32-28,29249110,-13
32-29,29253016,4
32-30,29256922,-7
32-31,29260828,-32
32-32,29264734,-43
32-1,29268707,-40
32-2,29272613,-26
32-3,29276519,-18
32-4,29280425,-24
32-5,29284331,-34
32-6,29288237,-56
32-7,29292143,-84
32-8,29296049,-103
32-9,29299955,-108
32-10,29303861,-101
32-11,29307767,-87
32-12,29311673,-68
32-13,29315579,-43
32-14,29319485,-16
32-15,29323391,-2
32-16,29327297,-2
32-17,29331203,-11
32-18,29335109,-20
32-19,29339015,-26
32-20,29342921,-32
32-21,29346827,-31
32-22,29350733,-23
32-23,29354639,-6
32-24,29358545,6
32-25,29362451,0
32-26,29366357,-8
32-27,29370263,-9
32-28,29374169,-1
32-29,29378075,0
32-30,29381981,-23
32-31,29385887,-60
32-32,29389793,-87
32-1,29393644,-92
32-2,29397550,-77
32-3,29401456,-56
32-4,29405362,-45
32-5,29409268,-31
32-6,29413174,-21
32-7,29417080,-19
32-8,29420986,-22
32-9,29424892,-26
32-10,29428798,-21
32-11,29432704,-20
32-12,29436610,-27
32-13,29440516,-44
32-14,29444422,-59
32-15,29448328,-67
32-16,29452234,-69
32-17,29456140,-69
32-18,29460046,-64
32-19,29463952,-44
32-20,29467858,-17
32-21,29471764,-1
32-22,29475670,-9
32-23,29479576,-24
32-24,29483482,-33
32-25,29487388,-51
32-26,29491294,-57
32-27,29495200,-32
32-28,29499106,17
32-29,29503012,59
32-30,29506918,53
32-31,29510824,7
32-32,29514730,-31
32-1,29518641,-28
32-2,29522547,10
32-3,29526453,46
32-4,29530359,43
32-5,29534265,29
32-6,29538171,25
32-7,29542077,24
32-8,29545983,27
32-9,29549889,24
32-10,29553795,16
32-11,29557701,7
32-12,29561607,0
32-13,29565513,-5
32-14,29569419,-11
32-15,29573325,-22
32-16,29577231,-33
32-17,29581137,-43
32-18,29585043,-48
32-19,29588949,-52
32-20,29592855,-57
32-21,29596761,-62
32-22,29600667,-64
32-23,29604573,-56
32-24,29608479,-45
32-25,29612385,-51
32-26,29616291,-54
32-27,29620197,-46
32-28,29624103,-23
32-29,29628009,-1
32-30,29631915,-6
32-31,29635821,-40
32-32,29639727,-79
32-1,29643639,-99
32-2,29647545,-85
32-3,29651451,-56
32-4,29655357,-43
32-5,29659263,-38
32-6,29663169,-35
32-7,29667075,-33
32-8,29670981,-28
32-9,29674887,-27
32-10,29678793,-33
32-11,29682699,-46
32-12,29686605,-55
32-13,29690511,-56
32-14,29694417,-49
32-15,29698323,-35
32-16,29702229,-21
32-17,29706135,-8
32-18,29710041,0
32-19,29713947,11
32-20,29717853,23
32-21,29721759,35
32-22,29725665,38
32-23,29729571,38
32-24,29733477,34
32-25,29737383,16
32-26,29741289,5
32-27,29745195,9
32-28,29749101,29
32-29,29753007,51
32-30,29756913,50
32-31,29760819,27
32-32,29764725,3
32-1,29768637,-10
32-2,29772543,-10
32-3,29776449,-9
32-4,29780355,-18
32-5,29784261,-19
32-6,29788167,-17
32-7,29792073,-15
32-8,29795979,-17
32-9,29799885,-29
32-10,29803791,-45
32-11,29807697,-59
32-12,29811603,-64
32-13,29815509,-59
32-14,29819415,-48
32-15,29823321,-34
32-16,29827227,-22
32-17,29831133,-10
32-18,29835039,-6
32-19,29838945,-13
32-20,29842851,-23
32-21,29846757,-20
32-22,29850663,-3
32-23,29854569,24
32-24,29858475,43
32-25,29862381,46
32-26,29866287,59
32-27,29870193,84
32-28,29874099,105
32-29,29878005,108
32-30,29881911,81
32-31,29885817,42
32-32,29889723,11
32-1,29893634,-9
32-2,29897540,-20
32-3,29901446,-32
32-4,29905352,-54
32-5,29909258,-62
32-6,29913164,-55
32-7,29917070,-37
32-8,29920976,-14
32-9,29924882,-4
32-10,29928788,-8
32-11,29932694,-16
32-12,29936600,-15
32-13,29940506,-6
32-14,29944412,1
32-15,29948318,-2
32-16,29952224,-10
32-17,29956130,-14
32-18,29960036,-11
32-19,29963942,-9
32-20,29967848,-14
32-21,29971754,-23
32-22,29975660,-25
32-23,29979566,-8
32-24,29983472,11
32-25,29987378,19
32-26,29991284,30
32-27,29995190,52
32-28,29999096,76
32-29,30003002,81
32-30,30006908,51
32-31,30010814,4
32-32,30014720,-26
32-1,30018693,-32
32-2,30022599,-24
32-3,30026505,-23
32-4,30030411,-33
32-5,30034317,-33
32-6,30038223,-28
32-7,30042129,-18
32-8,30046035,-3
32-9,30049941,7
32-10,30053847,5
32-11,30057753,-8
32-12,30061659,-23
32-13,30065565,-29
32-14,30069471,-25
32-15,30073377,-23
32-16,30077283,-25
32-17,30081189,-33
32-18,30085095,-43
32-19,30089001,-50
32-20,30092907,-56
32-21,30096813,-49
32-22,30100719,-29
32-23,30104625,-5
32-24,30108531,0
32-25,30112437,-27
32-26,30116343,-53
32-27,30120249,-57
32-28,30124155,-40
32-29,30128061,-26
32-30,30131967,-38
32-31,30135873,-67
32-32,30139779,-81
32-1,30143629,-62
32-2,30147535,-21
32-3,30151441,7
32-4,30155347,-6
32-5,30159253,-34
32-6,30163159,-60
32-7,30167065,-70
32-8,30170971,-65
32-9,30174877,-65
32-10,30178783,-69
32-11,30182689,-79
32-12,30186595,-84
32-13,30190501,-85
32-14,30194407,-86
32-15,30198313,-84
32-16,30202219,-80
32-17,30206125,-77
32-18,30210031,-81
32-19,30213937,-86
32-20,30217843,-83
32-21,30221749,-65
32-22,30225655,-47
32-23,30229561,-29
32-24,30233467,-13
32-25,30237373,-19
32-26,30241279,-19
32-27,30245185,9
32-28,30249091,50
32-29,30252997,77
32-30,30256903,53
32-31,30260809,-11
32-32,30264715,-72
32-1,30268627,-98
32-2,30272533,-85
32-3,30276439,-52
32-4,30280345,-35
32-5,30284251,-14
32-6,30288157,10
32-7,30292063,16
32-8,30295969,3
32-9,30299875,-20
32-10,30303781,-35
32-11,30307687,-40
32-12,30311593,-36
32-13,30315499,-34
32-14,30319405,-46
32-15,30323311,-63
32-16,30327217,-73
32-17,30331123,-72
32-18,30335029,-69
32-19,30338935,-68
32-20,30342841,-68
32-21,30346747,-65
32-22,30350653,-62
32-23,30354559,-58
32-24,30358465,-64
32-25,30362371,-78
32-26,30366277,-67
32-27,30370183,-29
32-28,30374089,12
32-29,30377995,27
32-30,30381901,5
32-31,30385807,-32
32-32,30389713,-53
32-1,30393625,-50
32-2,30397531,-30
32-3,30401437,-17
32-4,30405343,-29
32-5,30409249,-42
32-6,30413155,-55
32-7,30417061,-67
32-8,30420967,-74
32-9,30424873,-72
32-10,30428779,-56
32-11,30432685,-32
32-12,30436591,-11
32-13,30440497,-2
32-14,30444403,2
32-15,30448309,9
32-16,30452215,15
32-17,30456121,5
32-18,30460027,-23
32-19,30463933,-56
32-20,30467839,-78
32-21,30471745,-83
32-22,30475651,-80
32-23,30479557,-69
32-24,30483463,-60
32-25,30487369,-65
32-26,30491275,-68
32-27,30495181,-65
32-28,30499087,-51
32-29,30502993,-35
32-30,30506899,-39
32-31,30510805,-60
32-32,30514711,-78
32-1,30518622,-79
32-2,30522528,-65
32-3,30526434,-54
32-4,30530340,-61
32-5,30534246,-62
32-6,30538152,-58
32-7,30542058,-45
32-8,30545964,-19
32-9,30549870,-1
32-10,30553776,4
32-11,30557682,0
32-12,30561588,-11
32-13,30565494,-25
32-14,30569400,-38
32-15,30573306,-48
32-16,30577212,-51
32-17,30581118,-54
32-18,30585024,-64
32-19,30588930,-79
32-20,30592836,-85
32-21,30596742,-69
32-22,30600648,-35
32-23,30604554,-5
32-24,30608460,3
32-25,30612366,-6
32-26,30616272,-7
32-27,30620178,3
32-28,30624084,12
32-29,30627990,4
32-30,30631896,-20
32-31,30635802,-42
32-32,30639708,-48
32-1,30643620,-37
32-2,30647526,-13
32-3,30651432,7
32-4,30655338,12
32-5,30659244,15
32-6,30663150,14
32-7,30667056,12
32-8,30670962,8
32-9,30674868,-1
32-10,30678774,-11
32-11,30682680,-19
32-12,30686586,-20
32-13,30690492,-12
32-14,30694398,-1
32-15,30698304,4
32-16,30702210,0
32-17,30706116,-9
32-18,30710022,-8
32-19,30713928,8
32-20,30717834,22
32-21,30721740,18
32-22,30725646,-11
32-23,30729552,-44
32-24,30733458,-70
32-25,30737364,-98
32-26,30741270,-114
32-27,30745176,-112
32-28,30749082,-94
32-29,30752988,-77
32-30,30756894,-83
32-31,30760800,-108
32-32,30764706,-124
32-1,30768679,-116
32-2,30772585,-87
32-3,30776491,-54
32-4,30780397,-32
32-5,30784303,-19
32-6,30788209,-23
32-7,30792115,-41
32-8,30796021,-49
32-9,30799927,-37
32-10,30803833,-13
32-11,30807739,1
32-12,30811645,-8
32-13,30815551,-35
32-14,30819457,-59
32-15,30823363,-65
32-16,30827269,-51
32-17,30831175,-31
32-18,30835081,-20
32-19,30838987,-27
32-20,30842893,-38
32-21,30846799,-37
32-22,30850705,-28
32-23,30854611,-16
32-24,30858517,-21
32-25,30862423,-50
32-26,30866329,-72
32-27,30870235,-73
32-28,30874141,-59
32-29,30878047,-47
32-30,30881953,-57
32-31,30885859,-81
32-32,30889765,-95
32-1,30893615,-86
32-2,30897521,-62
32-3,30901427,-47
32-4,30905333,-53
32-5,30909239,-56
32-6,30913145,-49
32-7,30917051,-45
32-8,30920957,-53
32-9,30924863,-72
32-10,30928769,-89
32-11,30932675,-90
32-12,30936581,-77
32-13,30940487,-70
32-14,30944393,-69
32-15,30948299,-73
32-16,30952205,-74
32-17,30956111,-77
32-18,30960017,-87
32-19,30963923,-103
32-20,30967829,-126
32-21,30971735,-149
32-22,30975641,-162
32-23,30979547,-147
32-24,30983453,-117
32-25,30987359,-104
32-26,30991265,-95
32-27,30995171,-72
32-28,30999077,-38
32-29,31002983,-16
32-30,31006889,-36
32-31,31010795,-90
32-32,31014701,-133
32-1,31018613,-134
32-2,31022519,-106
32-3,31026425,-74
32-4,31030331,-68
32-5,31034237,-67
32-6,31038143,-62
32-7,31042049,-57
32-8,31045955,-53
32-9,31049861,-54
32-10,31053767,-64
32-11,31057673,-83
32-12,31061579,-96
32-13,31065485,-98
32-14,31069391,-93
32-15,31073297,-92
32-16,31077203,-99
32-17,31081109,-102
32-18,31085015,-94
32-19,31088921,-79
32-20,31092827,-63
32-21,31096733,-46
32-22,31100639,-33
32-23,31104545,-28
32-24,31108451,-40
32-25,31112357,-70
32-26,31116263,-80
32-27,31120169,-59
32-28,31124075,-19
32-29,31127981,8
32-30,31131887,3
32-31,31135793,-24
32-32,31139699,-46
32-1,31143672,-50
32-2,31147578,-37
32-3,31151484,-20
32-4,31155390,-15
32-5,31159296,-9
32-6,31163202,-6
32-7,31167108,-7
32-8,31171014,-4
32-9,31174920,-1
32-10,31178826,-1
32-11,31182732,-6
32-12,31186638,-13
32-13,31190544,-27
32-14,31194450,-43
32-15,31198356,-52
32-16,31202262,-54
32-17,31206168,-49
32-18,31210074,-43
32-19,31213980,-35
32-20,31217886,-29
32-21,31221792,-26
32-22,31225698,-23
32-23,31229604,-15
32-24,31233510,-11
32-25,31237416,-18
32-26,31241322,-20
32-27,31245228,-8
32-28,31249134,11
32-29,31253040,16
32-30,31256946,-12
32-31,31260852,-62
32-32,31264758,-98
32-1,31268608,-102
32-2,31272514,-76
32-3,31276420,-43
32-4,31280326,-23
32-5,31284232,-9
32-6,31288138,-8
32-7,31292044,-14
32-8,31295950,-15
32-9,31299856,-7
32-10,31303762,-1
32-11,31307668,-11
32-12,31311574,-38
32-13,31315480,-66
32-14,31319386,-79
32-15,31323292,-77
32-16,31327198,-61
32-17,31331104,-39
32-18,31335010,-23
32-19,31338916,-20
32-20,31342822,-34
32-21,31346728,-51
32-22,31350634,-64
32-23,31354540,-68
32-24,31358446,-72
32-25,31362352,-88
32-26,31366258,-90
32-27,31370164,-65
32-28,31374070,-22
32-29,31377976,14
32-30,31381882,22
32-31,31385788,5
32-32,31389694,-15
32-1,31393606,-24
32-2,31397512,-17
32-3,31401418,0
32-4,31405324,5
32-5,31409230,2
32-6,31413136,-11
32-7,31417042,-29
32-8,31420948,-38
32-9,31424854,-37
32-10,31428760,-30
32-11,31432666,-31
32-12,31436572,-35
32-13,31440478,-38
32-14,31444384,-29
32-15,31448290,-9
32-16,31452196,13
32-17,31456102,29
32-18,31460008,41
32-19,31463914,46
32-20,31467820,43
32-21,31471726,34
32-22,31475632,17
32-23,31479538,-1
32-24,31483444,-16
32-25,31487350,-32
32-26,31491256,-24
32-27,31495162,10
32-28,31499068,51
32-29,31502974,68
32-30,31506880,44
32-31,31510786,-3
32-32,31514692,-36
32-1,31518634,-42
32-2,31522540,-31
32-3,31526446,-23
32-4,31530352,-30
32-5,31534258,-32
32-6,31538164,-31
32-7,31542070,-33
32-8,31545976,-38
32-9,31549882,-47
32-10,31553788,-64
32-11,31557694,-76
32-12,31561600,-70
32-13,31565506,-48
32-14,31569412,-25
32-15,31573318,-14
32-16,31577224,-15
32-17,31581130,-18
32-18,31585036,-15
32-19,31588942,-9
32-20,31592848,-12
32-21,31596754,-25
32-22,31600660,-48
32-23,31604566,-60
32-24,31608472,-66
32-25,31612378,-72
32-26,31616284,-63
32-27,31620190,-43
32-28,31624096,-19
32-29,31628002,-14
32-30,31631908,-41
32-31,31635814,-87
32-32,31639720,-118
32-1,31643601,-120
32-2,31647507,-96
32-3,31651413,-72
32-4,31655319,-73
32-5,31659225,-80
32-6,31663131,-84
32-7,31667037,-82
32-8,31670943,-75
32-9,31674849,-69
32-10,31678755,-66
32-11,31682661,-66
32-12,31686567,-65
32-13,31690473,-62
32-14,31694379,-56
32-15,31698285,-49
32-16,31702191,-45
32-17,31706097,-39
32-18,31710003,-32
32-19,31713909,-26
32-20,31717815,-28
32-21,31721721,-36
32-22,31725627,-43
32-23,31729533,-31
32-24,31733439,-9
32-25,31737345,-15
32-26,31741251,-27
32-27,31745157,-19
32-28,31749063,13
32-29,31752969,46
32-30,31756875,29
32-31,31760781,-32
32-32,31764687,-87
32-1,31768721,-98
32-2,31772627,-70
32-3,31776533,-38
32-4,31780439,-39
32-5,31784345,-44
32-6,31788251,-40
32-7,31792157,-36
32-8,31796063,-32
32-9,31799969,-40
32-10,31803875,-54
32-11,31807781,-65
32-12,31811687,-70
32-13,31815593,-70
32-14,31819499,-74
32-15,31823405,-79
32-16,31827311,-76
32-17,31831217,-63
32-18,31835123,-49
32-19,31839029,-52
32-20,31842935,-71
32-21,31846841,-83
32-22,31850747,-78
32-23,31854653,-55
32-24,31858559,-37
32-25,31862465,-38
32-26,31866371,-32
32-27,31870277,-7
32-28,31874183,23
32-29,31878089,28
32-30,31881995,-15
32-31,31885901,-87
32-32,31889807,-146
32-1,31893596,-169
32-2,31897502,-153
32-3,31901408,-125
32-4,31905314,-111
32-5,31909220,-97
32-6,31913126,-84
32-7,31917032,-75
32-8,31920938,-75
32-9,31924844,-81
32-10,31928750,-80
32-11,31932656,-67
32-12,31936562,-51
32-13,31940468,-38
32-14,31944374,-36
32-15,31948280,-43
32-16,31952186,-56
32-17,31956092,-76
32-18,31959998,-92
32-19,31963904,-96
32-20,31967810,-84
32-21,31971716,-59
32-22,31975622,-35
32-23,31979528,-16
32-24,31983434,-5
32-25,31987340,-12
32-26,31991246,-11
32-27,31995152,11
32-28,31999058,46
32-29,32002964,71
32-30,32006870,57
32-31,32010776,12
32-32,32014682,-30
32-1,32018594,-50
32-2,32022500,-48
32-3,32026406,-33
32-4,32030312,-24
32-5,32034218,-17
32-6,32038124,-26
32-7,32042030,-52
32-8,32045936,-75
32-9,32049842,-80
32-10,32053748,-73
32-11,32057654,-69
32-12,32061560,-76
32-13,32065466,-89
32-14,32069372,-95
32-15,32073278,-92
32-16,32077184,-88
32-17,32081090,-88
32-18,32084996,-90
32-19,32088902,-91
32-20,32092808,-91
32-21,32096714,-87
32-22,32100620,-84
32-23,32104526,-79
32-24,32108432,-75
32-25,32112338,-77
32-26,32116244,-66
32-27,32120150,-46
32-28,32124056,-26
32-29,32127962,-21
32-30,32131868,-37
32-31,32135774,-66
32-32,32139680,-85
32-1,32143592,-87
32-2,32147498,-72
32-3,32151404,-55
32-4,32155310,-51
32-5,32159216,-48
32-6,32163122,-47
32-7,32167028,-48
32-8,32170934,-53
32-9,32174840,-57
32-10,32178746,-54
32-11,32182652,-41
32-12,32186558,-23
32-13,32190464,-9
32-14,32194370,-4
32-15,32198276,-9
32-16,32202182,-21
32-17,32206088,-35
32-18,32209994,-44
32-19,32213900,-45
32-20,32217806,-49
32-21,32221712,-59
32-22,32225618,-75
32-23,32229524,-82
32-24,32233430,-76
32-25,32237336,-71
32-26,32241242,-52
32-27,32245148,-14
32-28,32249054,27
32-29,32252960,47
32-30,32256866,22
32-31,32260772,-28
32-32,32264678,-62
32-1,32268620,-66
32-2,32272526,-48
32-3,32276432,-28
32-4,32280338,-19
32-5,32284244,-14
32-6,32288150,-23
32-7,32292056,-45
32-8,32295962,-63
32-9,32299868,-71
32-10,32303774,-69
32-11,32307680,-69
32-12,32311586,-72
32-13,32315492,-75
32-14,32319398,-66
32-15,32323304,-48
32-16,32327210,-26
32-17,32331116,-7
32-18,32335022,5
32-19,32338928,8
32-20,32342834,1
32-21,32346740,-4
32-22,32350646,-2
32-23,32354552,8
32-24,32358458,10
32-25,32362364,-10
32-26,32366270,-22
32-27,32370176,-15
32-28,32374082,10
32-29,32377988,35
32-30,32381894,32
32-31,32385800,9
32-32,32389706,-8
32-1,32393739,-10
32-2,32397645,1
32-3,32401551,2
32-4,32405457,-19
32-5,32409363,-34
32-6,32413269,-32
32-7,32417175,-22
32-8,32421081,-17
32-9,32424987,-23
32-10,32428893,-36
32-11,32432799,-44
32-12,32436705,-44
32-13,32440611,-39
32-14,32444517,-27
32-15,32448423,-15
32-16,32452329,-6
32-17,32456235,-2
32-18,32460141,-9
32-19,32464047,-15
32-20,32467953,-12
32-21,32471859,8
32-22,32475765,36
32-23,32479671,68
32-24,32483577,85
32-25,32487483,62
32-26,32491389,35
32-27,32495295,39
32-28,32499201,67
32-29,32503107,85
32-30,32507013,56
32-31,32510919,-8
32-32,32514825,-59
32-1,32518584,-70
32-2,32522490,-53
32-3,32526396,-36
32-4,32530302,-43
32-5,32534208,-47
32-6,32538114,-45
32-7,32542020,-49
32-8,32545926,-57
32-9,32549832,-63
32-10,32553738,-56
32-11,32557644,-37
32-12,32561550,-14
32-13,32565456,4
32-14,32569362,9
32-15,32573268,6
32-16,32577174,1
32-17,32581080,-2
32-18,32584986,0
32-19,32588892,4
32-20,32592798,9
32-21,32596704,10
32-22,32600610,-3
32-23,32604516,-22
32-24,32608422,-38
32-25,32612328,-47
32-26,32616234,-28
32-27,32620140,12
32-28,32624046,45
32-29,32627952,48
32-30,32631858,11
32-31,32635764,-44
32-32,32639670,-86
32-1,32643582,-103
32-2,32647488,-104
32-3,32651394,-103
32-4,32655300,-114
32-5,32659206,-111
32-6,32663112,-89
32-7,32667018,-67
32-8,32670924,-52
32-9,32674830,-49
32-10,32678736,-49
32-11,32682642,-48
32-12,32686548,-47
32-13,32690454,-50
32-14,32694360,-51
32-15,32698266,-44
32-16,32702172,-25
32-17,32706078,-1
32-18,32709984,20
32-19,32713890,31
32-20,32717796,31
32-21,32721702,26
32-22,32725608,19
32-23,32729514,16
32-24,32733420,8
32-25,32737326,-13
32-26,32741232,-16
32-27,32745138,7
32-28,32749044,38
32-29,32752950,45
32-30,32756856,5
32-31,32760762,-50
32-32,32764668,-79
32-1,32768580,-71
32-2,32772486,-44
32-3,32776392,-28
32-4,32780298,-31
32-5,32784204,-30
32-6,32788110,-25
32-7,32792016,-30
32-8,32795922,-45
32-9,32799828,-64
32-10,32803734,-74
32-11,32807640,-71
32-12,32811546,-57
32-13,32815452,-39
32-14,32819358,-29
32-15,32823264,-33
32-16,32827170,-43
32-17,32831076,-46
32-18,32834982,-37
32-19,32838888,-25
32-20,32842794,-14
32-21,32846700,-9
32-22,32850606,-11
32-23,32854512,-11
32-24,32858418,-12
32-25,32862324,-14
32-26,32866230,-2
32-27,32870136,26
32-28,32874042,57
32-29,32877948,75
32-30,32881854,62
32-31,32885760,30
32-32,32889666,-2
32-1,32893577,-23
32-2,32897483,-25
32-3,32901389,-7
32-4,32905295,17
32-5,32909201,50
32-6,32913107,70
32-7,32917013,64
32-8,32920919,43
32-9,32924825,19
32-10,32928731,3
32-11,32932637,0
32-12,32936543,1
32-13,32940449,-3
32-14,32944355,-7
32-15,32948261,-8
32-16,32952167,-7
32-17,32956073,-8
32-18,32959979,-14
32-19,32963885,-29
32-20,32967791,-47
32-21,32971697,-54
32-22,32975603,-48
32-23,32979509,-26
32-24,32983415,-11
32-25,32987321,-21
32-26,32991227,-27
32-27,32995133,-15
32-28,32999039,12
32-29,33002945,25
32-30,33006851,5
32-31,33010757,-30
32-32,33014663,-41
32-1,33018758,-22
32-2,33022664,6
32-3,33026570,11
32-4,33030476,-17
32-5,33034382,-44
32-6,33038288,-57
32-7,33042194,-61
32-8,33046100,-56
32-9,33050006,-54
32-10,33053912,-56
32-11,33057818,-59
32-12,33061724,-60
32-13,33065630,-62
32-14,33069536,-65
32-15,33073442,-68
32-16,33077348,-68
32-17,33081254,-62
32-18,33085160,-56
32-19,33089066,-54
32-20,33092972,-55
32-21,33096878,-55
32-22,33100784,-53
32-23,33104690,-48
32-24,33108596,-44
32-25,33112502,-42
32-26,33116408,-30
32-27,33120314,-9
32-28,33124220,6
32-29,33128126,5
32-30,33132032,-12
32-31,33135938,-32
32-32,33139844,-41
32-1,33143573,-38
32-2,33147479,-27
32-3,33151385,-16
32-4,33155291,-15
32-5,33159197,-15
32-6,33163103,-23
32-7,33167009,-42
32-8,33170915,-65
32-9,33174821,-76
32-10,33178727,-72
32-11,33182633,-62
32-12,33186539,-55
32-13,33190445,-54
32-14,33194351,-52
32-15,33198257,-48
32-16,33202163,-45
32-17,33206069,-43
32-18,33209975,-36
32-19,33213881,-17
32-20,33217787,4
32-21,33221693,17
32-22,33225599,9
32-23,33229505,-4
32-24,33233411,-20
32-25,33237317,-57
32-26,33241223,-89
32-27,33245129,-93
32-28,33249035,-66
32-29,33252941,-34
32-30,33256847,-41
32-31,33260753,-83
32-32,33264659,-115
32-1,33268570,-106
32-2,33272476,-62
32-3,33276382,-14
32-4,33280288,-3
32-5,33284194,-4
32-6,33288100,-8
32-7,33292006,-16
32-8,33295912,-24
32-9,33299818,-35
32-10,33303724,-48
32-11,33307630,-55
32-12,33311536,-53
32-13,33315442,-45
32-14,33319348,-40
32-15,33323254,-45
32-16,33327160,-57
32-17,33331066,-71
32-18,33334972,-77
32-19,33338878,-78
32-20,33342784,-79
32-21,33346690,-81
32-22,33350596,-85
32-23,33354502,-82
32-24,33358408,-77
32-25,33362314,-83
32-26,33366220,-75
32-27,33370126,-56
32-28,33374032,-35
32-29,33377938,-30
32-30,33381844,-54
32-31,33385750,-91
32-32,33389656,-112
32-1,33393568,-109
32-2,33397474,-89
32-3,33401380,-73
32-4,33405286,-78
32-5,33409192,-80
32-6,33413098,-73
32-7,33417004,-58
32-8,33420910,-40
32-9,33424816,-30
32-10,33428722,-26
32-11,33432628,-25
32-12,33436534,-24
32-13,33440440,-23
32-14,33444346,-23
32-15,33448252,-32
32-16,33452158,-46
32-17,33456064,-53
32-18,33459970,-50
32-19,33463876,-42
32-20,33467782,-39
32-21,33471688,-50
32-22,33475594,-62
32-23,33479500,-64
32-24,33483406,-56
32-25,33487312,-56
32-26,33491218,-51
32-27,33495124,-36
32-28,33499030,-15
32-29,33502936,-9
32-30,33506842,-36
32-31,33510748,-81
32-32,33514654,-113
32-1,33518566,-118
32-2,33522472,-94
32-3,33526378,-60
32-4,33530284,-42
32-5,33534190,-37
32-6,33538096,-52
32-7,33542002,-72
32-8,33545908,-80
32-9,33549814,-72
32-10,33553720,-59
32-11,33557626,-49
32-12,33561532,-41
32-13,33565438,-34
32-14,33569344,-38
32-15,33573250,-57
32-16,33577156,-82
32-17,33581062,-93
32-18,33584968,-81
32-19,33588874,-55
32-20,33592780,-29
32-21,33596686,-6
32-22,33600592,3
32-23,33604498,4
32-24,33608404,-6
32-25,33612310,-24
32-26,33616216,-20
32-27,33620122,9
32-28,33624028,39
32-29,33627934,44
32-30,33631840,16
32-31,33635746,-17
32-32,33639652,-27
32-1,33643563,-15
32-2,33647469,5
32-3,33651375,7
32-4,33655281,-15
32-5,33659187,-34
32-6,33663093,-46
32-7,33666999,-50
32-8,33670905,-53
32-9,33674811,-61
32-10,33678717,-70
32-11,33682623,-72
32-12,33686529,-64
32-13,33690435,-50
32-14,33694341,-35
32-15,33698247,-24
32-16,33702153,-17
32-17,33706059,-15
32-18,33709965,-18
32-19,33713871,-27
32-20,33717777,-41
32-21,33721683,-59
32-22,33725589,-77
32-23,33729495,-86
32-24,33733401,-85
32-25,33737307,-80
32-26,33741213,-62
32-27,33745119,-33
32-28,33749025,-5
32-29,33752931,3
32-30,33756837,-20
32-31,33760743,-56
32-32,33764649,-82
32-1,33768591,-86
32-2,33772497,-73
32-3,33776403,-56
32-4,33780309,-43
32-5,33784215,-26
32-6,33788121,-15
32-7,33792027,-16
32-8,33795933,-25
32-9,33799839,-29
32-10,33803745,-25
32-11,33807651,-20
32-12,33811557,-25
32-13,33815463,-38
32-14,33819369,-51
32-15,33823275,-52
32-16,33827181,-39
32-17,33831087,-17
32-18,33834993,-1
32-19,33838899,2
32-20,33842805,-4
32-21,33846711,-11
32-22,33850617,-13
32-23,33854523,-7
32-24,33858429,-5
32-25,33862335,-18
32-26,33866241,-29
32-27,33870147,-27
32-28,33874053,-9
32-29,33877959,15
32-30,33881865,24
32-31,33885771,21
32-32,33889677,25
32-1,33893558,40
32-2,33897464,60
32-3,33901370,56
32-4,33905276,20
32-5,33909182,-16
32-6,33913088,-35
32-7,33916994,-39
32-8,33920900,-37
32-9,33924806,-40
32-10,33928712,-45
32-11,33932618,-46
32-12,33936524,-43
32-13,33940430,-38
32-14,33944336,-27
32-15,33948242,-8
32-16,33952148,17
32-17,33956054,35
32-18,33959960,39
32-19,33963866,34
32-20,33967772,23
32-21,33971678,18
32-22,33975584,20
32-23,33979490,27
32-24,33983396,30
32-25,33987302,5
32-26,33991208,-15
32-27,33995114,-3
32-28,33999020,29
32-29,34002926,49
32-30,34006832,21
32-31,34010738,-42
32-32,34014644,-87
32-1,34018556,-94
32-2,34022462,-69
32-3,34026368,-36
32-4,34030274,-24
32-5,34034180,-18
32-6,34038086,-13
32-7,34041992,-20
32-8,34045898,-27
32-9,34049804,-31
32-10,34053710,-26
32-11,34057616,-18
32-12,34061522,-10
32-13,34065428,-9
32-14,34069334,-22
32-15,34073240,-39
32-16,34077146,-42
32-17,34081052,-30
32-18,34084958,-13
32-19,34088864,-8
32-20,34092770,-16
32-21,34096676,-24
32-22,34100582,-25
32-23,34104488,-19
32-24,34108394,-19
32-25,34112300,-36
32-26,34116206,-39
32-27,34120112,-24
32-28,34124018,-1
32-29,34127924,6
32-30,34131830,-17
32-31,34135736,-53
32-32,34139642,-80
32-1,34143554,-85
32-2,34147460,-72
32-3,34151366,-68
32-4,34155272,-80
32-5,34159178,-84
32-6,34163084,-73
32-7,34166990,-57
32-8,34170896,-39
32-9,34174802,-26
32-10,34178708,-18
32-11,34182614,-17
32-12,34186520,-19
32-13,34190426,-20
32-14,34194332,-17
32-15,34198238,-8
32-16,34202144,3
32-17,34206050,8
32-18,34209956,5
32-19,34213862,0
32-20,34217768,1
32-21,34221674,7
32-22,34225580,8
32-23,34229486,11
32-24,34233392,12
32-25,34237298,4
32-26,34241204,8
32-27,34245110,21
32-28,34249016,34
32-29,34252922,33
32-30,34256828,10
32-31,34260734,-15
32-32,34264640,-19
32-1,34268551,-1
32-2,34272457,26
32-3,34276363,44
32-4,34280269,40
32-5,34284175,32
32-6,34288081,18
32-7,34291987,5
32-8,34295893,3
32-9,34299799,6
32-10,34303705,3
32-11,34307611,-12
32-12,34311517,-34
32-13,34315423,-49
32-14,34319329,-50
32-15,34323235,-42
32-16,34327141,-31
32-17,34331047,-25
32-18,34334953,-24
32-19,34338859,-23
32-20,34342765,-25
32-21,34346671,-33
32-22,34350577,-47
32-23,34354483,-56
32-24,34358389,-52
32-25,34362295,-42
32-26,34366201,-18
32-27,34370107,5
32-28,34374013,15
32-29,34377919,9
32-30,34381825,-18
32-31,34385731,-53
32-32,34389637,-73
32-1,34393549,-73
32-2,34397455,-65
32-3,34401361,-59
32-4,34405267,-65
32-5,34409173,-56
32-6,34413079,-31
32-7,34416985,-10
32-8,34420891,-3
32-9,34424797,-4
32-10,34428703,-5
32-11,34432609,1
32-12,34436515,9
32-13,34440421,6
32-14,34444327,-4
32-15,34448233,-15
32-16,34452139,-21
32-17,34456045,-18
32-18,34459951,-14
32-19,34463857,-19
32-20,34467763,-36
32-21,34471669,-58
32-22,34475575,-68
32-23,34479481,-49
32-24,34483387,-22
32-25,34487293,-15
32-26,34491199,-13
32-27,34495105,3
32-28,34499011,33
32-29,34502917,51
32-30,34506823,33
32-31,34510729,-7
32-32,34514635,-32
32-1,34518608,-25
32-2,34522514,7
32-3,34526420,35
32-4,34530326,41
32-5,34534232,38
32-6,34538138,28
32-7,34542044,14
32-8,34545950,7
32-9,34549856,4
32-10,34553762,-1
32-11,34557668,-17
32-12,34561574,-33
32-13,34565480,-36
32-14,34569386,-29
32-15,34573292,-20
32-16,34577198,-19
32-17,34581104,-25
32-18,34585010,-33
32-19,34588916,-42
32-20,34592822,-50
32-21,34596728,-57
32-22,34600634,-72
32-23,34604540,-84
32-24,34608446,-91
32-25,34612352,-92
32-26,34616258,-62
32-27,34620164,-10
32-28,34624070,39
32-29,34627976,52
32-30,34631882,16
32-31,34635788,-43
32-32,34639694,-81
32-1,34643758,-78
32-2,34647664,-41
32-3,34651570,-6
32-4,34655476,-1
32-5,34659382,-11
32-6,34663288,-27
32-7,34667194,-41
32-8,34671100,-42
32-9,34675006,-32
32-10,34678912,-19
32-11,34682818,-12
32-12,34686724,-14
32-13,34690630,-18
32-14,34694536,-16
32-15,34698442,-7
32-16,34702348,4
32-17,34706254,6
32-18,34710160,3
32-19,34714066,-1
32-20,34717972,-4
32-21,34721878,-12
32-22,34725784,-27
32-23,34729690,-36
32-24,34733596,-39
32-25,34737502,-56
32-26,34741408,-59
32-27,34745314,-30
32-28,34749220,15
32-29,34753126,41
32-30,34757032,16
32-31,34760938,-46
32-32,34764844,-97
32-1,34768542,-111
32-2,34772448,-94
32-3,34776354,-64
32-4,34780260,-51
32-5,34784166,-37
32-6,34788072,-25
32-7,34791978,-27
32-8,34795884,-35
32-9,34799790,-42
32-10,34803696,-45
32-11,34807602,-46
32-12,34811508,-46
32-13,34815414,-45
32-14,34819320,-41
32-15,34823226,-31
32-16,34827132,-13
32-17,34831038,7
32-18,34834944,18
32-19,34838850,19
32-20,34842756,17
32-21,34846662,18
32-22,34850568,21
32-23,34854474,22
32-24,34858380,12
32-25,34862286,-10
32-26,34866192,-10
32-27,34870098,28
32-28,34874004,83
32-29,34877910,118
32-30,34881816,99
32-31,34885722,40
32-32,34889628,-17
32-1,34893539,-42
32-2,34897445,-36
32-3,34901351,-25
32-4,34905257,-27
32-5,34909163,-22
32-6,34913069,-11
32-7,34916975,-10
32-8,34920881,-21
32-9,34924787,-33
32-10,34928693,-36
32-11,34932599,-32
32-12,34936505,-29
32-13,34940411,-28
32-14,34944317,-24
32-15,34948223,-6
32-16,34952129,12
32-17,34956035,13
32-18,34959941,5
32-19,34963847,-5
32-20,34967753,-14
32-21,34971659,-20
32-22,34975565,-27
32-23,34979471,-34
32-24,34983377,-40
32-25,34987283,-50
32-26,34991189,-42
32-27,34995095,-20
32-28,34999001,6
32-29,35002907,18
32-30,35006813,4
32-31,35010719,-28
32-32,35014625,-50
32-1,35018537,-61
32-2,35022443,-65
32-3,35026349,-72
32-4,35030255,-83
32-5,35034161,-84
32-6,35038067,-78
32-7,35041973,-66
32-8,35045879,-45
32-9,35049785,-28
32-10,35053691,-27
32-11,35057597,-47
32-12,35061503,-74
32-13,35065409,-94
32-14,35069315,-99
32-15,35073221,-88
32-16,35077127,-66
32-17,35081033,-38
32-18,35084939,-19
32-19,35088845,-15
32-20,35092751,-25
32-21,35096657,-40
32-22,35100563,-58
32-23,35104469,-72
32-24,35108375,-89
32-25,35112281,-107
32-26,35116187,-105
32-27,35120093,-84
32-28,35123999,-59
32-29,35127905,-49
32-30,35131811,-64
32-31,35135717,-88
32-32,35139623,-98
32-1,35143535,-93
32-2,35147441,-74
32-3,35151347,-59
32-4,35155253,-54
32-5,35159159,-42
32-6,35163065,-28
32-7,35166971,-20
32-8,35170877,-15
32-9,35174783,-4
32-10,35178689,17
32-11,35182595,37
32-12,35186501,44
32-13,35190407,29
32-14,35194313,4
32-15,35198219,-11
32-16,35202125,-12
32-17,35206031,-11
32-18,35209937,-15
32-19,35213843,-20
32-20,35217749,-22
32-21,35221655,-23
32-22,35225561,-28
32-23,35229467,-28
32-24,35233373,-28
32-25,35237279,-40
32-26,35241185,-48
32-27,35245091,-44
32-28,35248997,-26
32-29,35252903,-9
32-30,35256809,-16
32-31,35260715,-49
32-32,35264621,-85
32-1,35268624,-107
32-2,35272530,-108
32-3,35276436,-100
32-4,35280342,-102
32-5,35284248,-101
32-6,35288154,-102
32-7,35292060,-102
32-8,35295966,-98
32-9,35299872,-93
32-10,35303778,-89
32-11,35307684,-84
32-12,35311590,-75
32-13,35315496,-60
32-14,35319402,-49
32-15,35323308,-50
32-16,35327214,-57
32-17,35331120,-67
32-18,35335026,-73
32-19,35338932,-75
32-20,35342838,-74
32-21,35346744,-61
32-22,35350650,-41
32-23,35354556,-16
32-24,35358462,0
32-25,35362368,-5
32-26,35366274,-11
32-27,35370180,-3
32-28,35374086,17
32-29,35377992,33
32-30,35381898,21
32-31,35385804,-15
32-32,35389710,-49
32-1,35393530,-65
32-2,35397436,-58
32-3,35401342,-44
32-4,35405248,-43
32-5,35409154,-42
32-6,35413060,-37
32-7,35416966,-34
32-8,35420872,-35
32-9,35424778,-42
32-10,35428684,-51
32-11,35432590,-61
32-12,35436496,-67
32-13,35440402,-67
32-14,35444308,-56
32-15,35448214,-38
32-16,35452120,-20
32-17,35456026,-10
32-18,35459932,-18
32-19,35463838,-40
32-20,35467744,-65
32-21,35471650,-78
32-22,35475556,-78
32-23,35479462,-66
32-24,35483368,-57
32-25,35487274,-77
32-26,35491180,-88
32-27,35495086,-59
32-28,35498992,-4
32-29,35502898,34
32-30,35506804,14
32-31,35510710,-51
32-32,35514616,-105
32-1,35518528,-118
32-2,35522434,-93
32-3,35526340,-54
32-4,35530246,-38
32-5,35534152,-32
32-6,35538058,-31
32-7,35541964,-41
32-8,35545870,-45
32-9,35549776,-37
32-10,35553682,-21
32-11,35557588,-8
32-12,35561494,-6
32-13,35565400,-13
32-14,35569306,-24
32-15,35573212,-30
32-16,35577118,-27
32-17,35581024,-16
32-18,35584930,-10
32-19,35588836,-10
32-20,35592742,-18
32-21,35596648,-26
32-22,35600554,-29
32-23,35604460,-25
32-24,35608366,-22
32-25,35612272,-33
32-26,35616178,-40
32-27,35620084,-30
32-28,35623990,-7
32-29,35627896,10
32-30,35631802,-3
32-31,35635708,-38
32-32,35639614,-61
32-1,35643525,-60
32-2,35647431,-35
32-3,35651337,-13
32-4,35655243,-11
32-5,35659149,-3
32-6,35663055,13
32-7,35666961,29
32-8,35670867,35
32-9,35674773,21
32-10,35678679,-7
32-11,35682585,-41
32-12,35686491,-68
32-13,35690397,-77
32-14,35694303,-61
32-15,35698209,-34
32-16,35702115,-12
32-17,35706021,-4
32-18,35709927,-9
32-19,35713833,-18
32-20,35717739,-24
32-21,35721645,-20
32-22,35725551,-13
32-23,35729457,-1
32-24,35733363,3
32-25,35737269,-20
32-26,35741175,-43
32-27,35745081,-47
32-28,35748987,-29
32-29,35752893,-13
32-30,35756799,-31
32-31,35760705,-69
32-32,35764611,-102
32-1,35768523,-115
32-2,35772429,-104
32-3,35776335,-84
32-4,35780241,-76
32-5,35784147,-65
32-6,35788053,-57
32-7,35791959,-51
32-8,35795865,-43
32-9,35799771,-31
32-10,35803677,-22
32-11,35807583,-22
32-12,35811489,-29
32-13,35815395,-35
32-14,35819301,-36
32-15,35823207,-38
32-16,35827113,-42
32-17,35831019,-43
32-18,35834925,-37
32-19,35838831,-22
32-20,35842737,-6
32-21,35846643,6
32-22,35850549,8
32-23,35854455,10
32-24,35858361,7
32-25,35862267,-1
32-26,35866173,5
32-27,35870079,23
32-28,35873985,39
32-29,35877891,41
32-30,35881797,14
32-31,35885703,-28
32-32,35889609,-59
32-1,35893521,-71
32-2,35897427,-63
32-3,35901333,-48
32-4,35905239,-44
32-5,35909145,-40
32-6,35913051,-43
32-7,35916957,-58
32-8,35920863,-75
32-9,35924769,-89
32-10,35928675,-93
32-11,35932581,-83
32-12,35936487,-62
32-13,35940393,-40
32-14,35944299,-23
32-15,35948205,-9
32-16,35952111,-1
32-17,35956017,4
32-18,35959923,8
32-19,35963829,9
32-20,35967735,5
32-21,35971641,-4
32-22,35975547,-13
32-23,35979453,-13
32-24,35983359,-13
32-25,35987265,-25
32-26,35991171,-26
32-27,35995077,-10
32-28,35998983,12
32-29,36002889,19
32-30,36006795,-7
32-31,36010701,-47
32-32,36014607,-71
32-1,36018671,-75
32-2,36022577,-69
32-3,36026483,-72
32-4,36030389,-86
32-5,36034295,-83
32-6,36038201,-66
32-7,36042107,-55
32-8,36046013,-53
32-9,36049919,-65
32-10,36053825,-78
32-11,36057731,-83
32-12,36061637,-81
32-13,36065543,-80
32-14,36069449,-85
32-15,36073355,-92
32-16,36077261,-90
32-17,36081167,-81
32-18,36085073,-68
32-19,36088979,-58
32-20,36092885,-51
32-21,36096791,-38
32-22,36100697,-23
32-23,36104603,-5
32-24,36108509,0
32-25,36112415,-11
32-26,36116321,-15
32-27,36120227,-1
32-28,36124133,23
32-29,36128039,41
32-30,36131945,25
32-31,36135851,-16
32-32,36139757,-52
32-1,36143516,-68
32-2,36147422,-63
32-3,36151328,-57
32-4,36155234,-67
32-5,36159140,-69
32-6,36163046,-60
32-7,36166952,-49
32-8,36170858,-40
32-9,36174764,-40
32-10,36178670,-40
32-11,36182576,-33
32-12,36186482,-22
32-13,36190388,-21
32-14,36194294,-38
32-15,36198200,-61
32-16,36202106,-74
32-17,36206012,-77
32-18,36209918,-79
32-19,36213824,-82
32-20,36217730,-79
32-21,36221636,-66
32-22,36225542,-55
32-23,36229448,-43
32-24,36233354,-32
32-25,36237260,-33
32-26,36241166,-23
32-27,36245072,10
32-28,36248978,47
32-29,36252884,70
32-30,36256790,53
32-31,36260696,0
32-32,36264602,-55
32-1,36268513,-85
32-2,36272419,-85
32-3,36276325,-72
32-4,36280231,-80
32-5,36284137,-86
32-6,36288043,-79
32-7,36291949,-71
32-8,36295855,-61
32-9,36299761,-49
32-10,36303667,-31
32-11,36307573,-17
32-12,36311479,-18
32-13,36315385,-35
32-14,36319291,-47
32-15,36323197,-47
32-16,36327103,-44
32-17,36331009,-47
32-18,36334915,-49
32-19,36338821,-42
32-20,36342727,-33
32-21,36346633,-32
32-22,36350539,-45
32-23,36354445,-53
32-24,36358351,-54
32-25,36362257,-58
32-26,36366163,-41
32-27,36370069,-2
32-28,36373975,39
32-29,36377881,51
32-30,36381787,12
32-31,36385693,-51
32-32,36389599,-92
32-1,36393511,-101
32-2,36397417,-90
32-3,36401323,-83
32-4,36405229,-89
32-5,36409135,-83
32-6,36413041,-67
32-7,36416947,-51
32-8,36420853,-34
32-9,36424759,-24
32-10,36428665,-27
32-11,36432571,-42
32-12,36436477,-51
32-13,36440383,-52
32-14,36444289,-58
32-15,36448195,-74
32-16,36452101,-86
32-17,36456007,-85
32-18,36459913,-70
32-19,36463819,-54
32-20,36467725,-43
32-21,36471631,-34
32-22,36475537,-31
32-23,36479443,-27
32-24,36483349,-23
32-25,36487255,-21
32-26,36491161,-2
32-27,36495067,28
32-28,36498973,54
32-29,36502879,62
32-30,36506785,42
32-31,36510691,4
32-32,36514597,-24
32-1,36518509,-31
32-2,36522415,-18
32-3,36526321,-4
32-4,36530227,-1
32-5,36534133,12
32-6,36538039,30
32-7,36541945,33
32-8,36545851,15
32-9,36549757,-13
32-10,36553663,-29
32-11,36557569,-30
32-12,36561475,-29
32-13,36565381,-35
32-14,36569287,-43
32-15,36573193,-42
32-16,36577099,-37
32-17,36581005,-37
32-18,36584911,-32
32-19,36588817,-19
32-20,36592723,-5
32-21,36596629,-1
32-22,36600535,-11
32-23,36604441,-21
32-24,36608347,-29
32-25,36612253,-48
32-26,36616159,-52
32-27,36620065,-32
32-28,36623971,-1
32-29,36627877,7
32-30,36631783,-32
32-31,36635689,-93
32-32,36639595,-126
32-1,36643506,-121
32-2,36647412,-95
32-3,36651318,-77
32-4,36655224,-80
32-5,36659130,-85
32-6,36663036,-88
32-7,36666942,-87
32-8,36670848,-79
32-9,36674754,-73
32-10,36678660,-76
32-11,36682566,-86
32-12,36686472,-89
32-13,36690378,-79
32-14,36694284,-70
32-15,36698190,-69
32-16,36702096,-71
32-17,36706002,-66
32-18,36709908,-55
32-19,36713814,-51
32-20,36717720,-54
32-21,36721626,-57
32-22,36725532,-64
32-23,36729438,-67
32-24,36733344,-67
32-25,36737250,-70
32-26,36741156,-60
32-27,36745062,-41
32-28,36748968,-19
32-29,36752874,0
32-30,36756780,3
32-31,36760686,-11
32-32,36764592,-28
32-1,36768626,-35
32-2,36772532,-21
32-3,36776438,0
32-4,36780344,5
32-5,36784250,0
32-6,36788156,-12
32-7,36792062,-27
32-8,36795968,-43
32-9,36799874,-54
32-10,36803780,-57
32-11,36807686,-51
32-12,36811592,-44
32-13,36815498,-44
32-14,36819404,-39
32-15,36823310,-24
32-16,36827216,-8
32-17,36831122,6
32-18,36835028,17
32-19,36838934,26
32-20,36842840,25
32-21,36846746,12
32-22,36850652,-9
32-23,36854558,-20
32-24,36858464,-28
32-25,36862370,-39
32-26,36866276,-30
32-27,36870182,7
32-28,36874088,49
32-29,36877994,58
32-30,36881900,14
32-31,36885806,-47
32-32,36889712,-72
32-1,36893502,-52
32-2,36897408,-12
32-3,36901314,16
32-4,36905220,11
32-5,36909126,-13
32-6,36913032,-46
32-7,36916938,-71
32-8,36920844,-74
32-9,36924750,-69
32-10,36928656,-74
32-11,36932562,-95
32-12,36936468,-108
32-13,36940374,-101
32-14,36944280,-86
32-15,36948186,-79
32-16,36952092,-82
32-17,36955998,-79
32-18,36959904,-71
32-19,36963810,-62
32-20,36967716,-57
32-21,36971622,-51
32-22,36975528,-44
32-23,36979434,-34
32-24,36983340,-24
32-25,36987246,-34
32-26,36991152,-37
32-27,36995058,-17
32-28,36998964,22
32-29,37002870,55
32-30,37006776,49
32-31,37010682,6
32-32,37014588,-39
32-1,37018499,-54
32-2,37022405,-36
32-3,37026311,-16
32-4,37030217,-24
32-5,37034123,-33
32-6,37038029,-21
32-7,37041935,-6
32-8,37045841,1
32-9,37049747,-9
32-10,37053653,-23
32-11,37057559,-36
32-12,37061465,-44
32-13,37065371,-46
32-14,37069277,-41
32-15,37073183,-31
32-16,37077089,-24
32-17,37080995,-21
32-18,37084901,-23
32-19,37088807,-25
32-20,37092713,-33
32-21,37096619,-42
32-22,37100525,-46
32-23,37104431,-33
32-24,37108337,-19
32-25,37112243,-31
32-26,37116149,-43
32-27,37120055,-34
32-28,37123961,-6
32-29,37127867,14
32-30,37131773,0
32-31,37135679,-34
32-32,37139585,-53
32-1,37143497,-55
32-2,37147403,-43
32-3,37151309,-28
32-4,37155215,-18
32-5,37159121,2
32-6,37163027,19
32-7,37166933,21
32-8,37170839,14
32-9,37174745,3
32-10,37178651,-7
32-11,37182557,-17
32-12,37186463,-15
32-13,37190369,4
32-14,37194275,21
32-15,37198181,22
32-16,37202087,11
32-17,37205993,1
32-18,37209899,4
32-19,37213805,9
32-20,37217711,8
32-21,37221617,-1
32-22,37225523,-20
32-23,37229429,-30
32-24,37233335,-29
32-25,37237241,-26
32-26,37241147,-17
32-27,37245053,-4
32-28,37248959,11
32-29,37252865,26
32-30,37256771,24
32-31,37260677,4
32-32,37264583,-20
32-1,37268556,-35
32-2,37272462,-34
32-3,37276368,-32
32-4,37280274,-45
32-5,37284180,-54
32-6,37288086,-53
32-7,37291992,-45
32-8,37295898,-37
32-9,37299804,-29
32-10,37303710,-21
32-11,37307616,-14
32-12,37311522,-7
32-13,37315428,0
32-14,37319334,16
32-15,37323240,32
32-16,37327146,33
32-17,37331052,12
32-18,37334958,-19
32-19,37338864,-36
32-20,37342770,-31
32-21,37346676,-12
32-22,37350582,9
32-23,37354488,31
32-24,37358394,44
32-25,37362300,36
32-26,37366206,32
32-27,37370112,44
32-28,37374018,62
32-29,37377924,60
32-30,37381830,26
32-31,37385736,-16
32-32,37389642,-37
32-1,37393492,-39
32-2,37397398,-42
32-3,37401304,-58
32-4,37405210,-81
32-5,37409116,-81
32-6,37413022,-57
32-7,37416928,-23
32-8,37420834,7
32-9,37424740,12
32-10,37428646,-11
32-11,37432552,-41
32-12,37436458,-52
32-13,37440364,-39
32-14,37444270,-26
32-15,37448176,-33
32-16,37452082,-49
32-17,37455988,-48
32-18,37459894,-20
32-19,37463800,14
32-20,37467706,30
32-21,37471612,24
32-22,37475518,1
32-23,37479424,-20
32-24,37483330,-33
32-25,37487236,-42
32-26,37491142,-39
32-27,37495048,-23
32-28,37498954,1
32-29,37502860,15
32-30,37506766,-1
32-31,37510672,-51
32-32,37514578,-101
32-1,37518642,-119
32-2,37522548,-95
32-3,37526454,-60
32-4,37530360,-52
32-5,37534266,-67
32-6,37538172,-87
32-7,37542078,-98
32-8,37545984,-88
32-9,37549890,-68
32-10,37553796,-43
32-11,37557702,-31
32-12,37561608,-32
32-13,37565514,-36
32-14,37569420,-27
32-15,37573326,-1
32-16,37577232,23
32-17,37581138,30
32-18,37585044,23
32-19,37588950,14
32-20,37592856,6
32-21,37596762,1
32-22,37600668,-5
32-23,37604574,-3
32-24,37608480,-9
32-25,37612386,-34
32-26,37616292,-47
32-27,37620198,-29
32-28,37624104,9
32-29,37628010,27
32-30,37631916,-4
32-31,37635822,-63
32-32,37639728,-107
32-1,37643487,-121
32-2,37647393,-108
32-3,37651299,-83
32-4,37655205,-57
32-5,37659111,-27
32-6,37663017,-12
32-7,37666923,-19
32-8,37670829,-29
32-9,37674735,-35
32-10,37678641,-38
32-11,37682547,-45
32-12,37686453,-51
32-13,37690359,-53
32-14,37694265,-56
32-15,37698171,-56
32-16,37702077,-47
32-17,37705983,-28
32-18,37709889,-18
32-19,37713795,-29
32-20,37717701,-52
32-21,37721607,-60
32-22,37725513,-44
32-23,37729419,-19
32-24,37733325,-13
32-25,37737231,-39
32-26,37741137,-55
32-27,37745043,-32
32-28,37748949,21
32-29,37752855,68
32-30,37756761,75
32-31,37760667,40
32-32,37764573,2
32-1,37768485,-10
32-2,37772391,4
32-3,37776297,21
32-4,37780203,13
32-5,37784109,5
32-6,37788015,3
32-7,37791921,-12
32-8,37795827,-39
32-9,37799733,-67
32-10,37803639,-80
32-11,37807545,-83
32-12,37811451,-88
32-13,37815357,-98
32-14,37819263,-106
32-15,37823169,-98
32-16,37827075,-83
32-17,37830981,-78
32-18,37834887,-88
32-19,37838793,-105
32-20,37842699,-118
32-21,37846605,-121
32-22,37850511,-112
32-23,37854417,-90
32-24,37858323,-74
32-25,37862229,-79
32-26,37866135,-76
32-27,37870041,-42
32-28,37873947,11
32-29,37877853,46
32-30,37881759,32
32-31,37885665,-18
32-32,37889571,-63
32-1,37893605,-84
32-2,37897511,-78
32-3,37901417,-60
32-4,37905323,-45
32-5,37909229,-30
32-6,37913135,-28
32-7,37917041,-39
32-8,37920947,-52
32-9,37924853,-60
32-10,37928759,-65
32-11,37932665,-67
32-12,37936571,-65
32-13,37940477,-57
32-14,37944383,-49
32-15,37948289,-42
32-16,37952195,-35
32-17,37956101,-28
32-18,37960007,-30
32-19,37963913,-43
32-20,37967819,-59
32-21,37971725,-64
32-22,37975631,-65
32-23,37979537,-68
32-24,37983443,-76
32-25,37987349,-87
32-26,37991255,-73
32-27,37995161,-43
32-28,37999067,-12
32-29,38002973,0
32-30,38006879,-23
32-31,38010785,-68
32-32,38014691,-99
32-1,38018480,-103
32-2,38022386,-90
32-3,38026292,-83
32-4,38030198,-95
32-5,38034104,-98
32-6,38038010,-88
32-7,38041916,-78
32-8,38045822,-78
32-9,38049728,-84
32-10,38053634,-78
32-11,38057540,-59
32-12,38061446,-42
32-13,38065352,-43
32-14,38069258,-55
32-15,38073164,-62
32-16,38077070,-63
32-17,38080976,-63
32-18,38084882,-59
32-19,38088788,-49
32-20,38092694,-40
32-21,38096600,-33
32-22,38100506,-27
32-23,38104412,-11
32-24,38108318,0
32-25,38112224,-5
32-26,38116130,5
32-27,38120036,41
32-28,38123942,85
32-29,38127848,100
32-30,38131754,66
32-31,38135660,8
32-32,38139566,-29
32-1,38143478,-42
32-2,38147384,-38
32-3,38151290,-29
32-4,38155196,-19
32-5,38159102,0
32-6,38163008,5
32-7,38166914,-6
32-8,38170820,-12
32-9,38174726,-3
32-10,38178632,11
32-11,38182538,17
32-12,38186444,20
32-13,38190350,28
32-14,38194256,38
32-15,38198162,44
32-16,38202068,48
32-17,38205974,54
32-18,38209880,56
32-19,38213786,51
32-20,38217692,41
32-21,38221598,39
32-22,38225504,36
32-23,38229410,33
32-24,38233316,25
32-25,38237222,9
32-26,38241128,7
32-27,38245034,18
32-28,38248940,32
32-29,38252846,35
32-30,38256752,13
32-31,38260658,-30
32-32,38264564,-67
32-1,38268659,-76
32-2,38272565,-49
32-3,38276471,-10
32-4,38280377,13
32-5,38284283,21
32-6,38288189,21
32-7,38292095,10
32-8,38296001,-4
32-9,38299907,-16
32-10,38303813,-7
32-11,38307719,18
32-12,38311625,39
32-13,38315531,34
32-14,38319437,7
32-15,38323343,-25
32-16,38327249,-41
32-17,38331155,-39
32-18,38335061,-31
32-19,38338967,-31
32-20,38342873,-47
32-21,38346779,-65
32-22,38350685,-70
32-23,38354591,-49
32-24,38358497,-20
32-25,38362403,-8
32-26,38366309,6
32-27,38370215,34
32-28,38374121,63
32-29,38378027,65
32-30,38381933,28
32-31,38385839,-20
32-32,38389745,-46
32-1,38393534,-44
32-2,38397440,-30
32-3,38401346,-15
32-4,38405252,-3
32-5,38409158,15
32-6,38413064,31
32-7,38416970,34
32-8,38420876,30
32-9,38424782,20
32-10,38428688,6
32-11,38432594,-7
32-12,38436500,-13
32-13,38440406,-20
32-14,38444312,-36
32-15,38448218,-64
32-16,38452124,-86
32-17,38456030,-86
32-18,38459936,-69
32-19,38463842,-55
32-20,38467748,-52
32-21,38471654,-56
32-22,38475560,-61
32-23,38479466,-56
32-24,38483372,-44
32-25,38487278,-49
32-26,38491184,-52
32-27,38495090,-37
32-28,38498996,-3
32-29,38502902,38
32-30,38506808,42
32-31,38510714,3
32-32,38514620,-45
32-1,38518623,-68
32-2,38522529,-63
32-3,38526435,-50
32-4,38530341,-59
32-5,38534247,-59
32-6,38538153,-39
32-7,38542059,-15
32-8,38545965,2
32-9,38549871,8
32-10,38553777,6
32-11,38557683,-2
32-12,38561589,-16
32-13,38565495,-31
32-14,38569401,-31
32-15,38573307,-18
32-16,38577213,-9
32-17,38581119,-10
32-18,38585025,-13
32-19,38588931,-10
32-20,38592837,-3
32-21,38596743,-1
32-22,38600649,-6
32-23,38604555,-3
32-24,38608461,-3
32-25,38612367,-28
32-26,38616273,-46
32-27,38620179,-33
32-28,38624085,4
32-29,38627991,33
32-30,38631897,13
32-31,38635803,-39
32-32,38639709,-79
32-1,38643468,-93
32-2,38647374,-89
32-3,38651280,-83
32-4,38655186,-83
32-5,38659092,-76
32-6,38662998,-66
32-7,38666904,-64
32-8,38670810,-65
32-9,38674716,-65
32-10,38678622,-63
32-11,38682528,-59
32-12,38686434,-50
32-13,38690340,-40
32-14,38694246,-30
32-15,38698152,-22
32-16,38702058,-15
32-17,38705964,-13
32-18,38709870,-24
32-19,38713776,-46
32-20,38717682,-62
32-21,38721588,-62
32-22,38725494,-58
32-23,38729400,-58
32-24,38733306,-65
32-25,38737212,-73
32-26,38741118,-57
32-27,38745024,-26
32-28,38748930,2
32-29,38752836,6
32-30,38756742,-25
32-31,38760648,-74
32-32,38764554,-107
32-1,38768466,-110
32-2,38772372,-91
32-3,38776278,-79
32-4,38780184,-82
32-5,38784090,-76
32-6,38787996,-60
32-7,38791902,-54
32-8,38795808,-67
32-9,38799714,-92
32-10,38803620,-105
32-11,38807526,-98
32-12,38811432,-89
32-13,38815338,-85
32-14,38819244,-83
32-15,38823150,-79
32-16,38827056,-75
32-17,38830962,-72
32-18,38834868,-69
32-19,38838774,-64
32-20,38842680,-64
32-21,38846586,-73
32-22,38850492,-87
32-23,38854398,-87
32-24,38858304,-81
32-25,38862210,-87
32-26,38866116,-87
32-27,38870022,-68
32-28,38873928,-36
32-29,38877834,-17
32-30,38881740,-33
32-31,38885646,-67
32-32,38889552,-87
32-1,38893464,-86
32-2,38897370,-72
32-3,38901276,-56
32-4,38905182,-51
32-5,38909088,-45
32-6,38912994,-42
32-7,38916900,-45
32-8,38920806,-36
32-9,38924712,-15
32-10,38928618,6
32-11,38932524,17
32-12,38936430,23
32-13,38940336,26
32-14,38944242,26
32-15,38948148,24
32-16,38952054,24
32-17,38955960,22
32-18,38959866,10
32-19,38963772,-14
32-20,38967678,-39
32-21,38971584,-55
32-22,38975490,-69
32-23,38979396,-78
32-24,38983302,-85
32-25,38987208,-90
32-26,38991114,-74
32-27,38995020,-46
32-28,38998926,-15
32-29,39002832,10
32-30,39006738,17
32-31,39010644,7
32-32,39014550,-6
32-1,39018675,-9
32-2,39022581,0
32-3,39026487,-5
32-4,39030393,-34
32-5,39034299,-61
32-6,39038205,-75
32-7,39042111,-77
32-8,39046017,-70
32-9,39049923,-62
32-10,39053829,-55
32-11,39057735,-55
32-12,39061641,-64
32-13,39065547,-78
32-14,39069453,-79
32-15,39073359,-66
32-16,39077265,-58
32-17,39081171,-69
32-18,39085077,-92
32-19,39088983,-103
32-20,39092889,-95
32-21,39096795,-75
32-22,39100701,-64
32-23,39104607,-55
32-24,39108513,-54
32-25,39112419,-61
32-26,39116325,-48
32-27,39120231,-17
32-28,39124137,13
32-29,39128043,19
32-30,39131949,-7
32-31,39135855,-34
32-32,39139761,-34
32-1,39143612,-19
32-2,39147518,-5
32-3,39151424,-5
32-4,39155330,-19
32-5,39159236,-28
32-6,39163142,-33
32-7,39167048,-31
32-8,39170954,-17
32-9,39174860,-2
32-10,39178766,0
32-11,39182672,-13
32-12,39186578,-25
32-13,39190484,-28
32-14,39194390,-30
32-15,39198296,-36
32-16,39202202,-45
32-17,39206108,-47
32-18,39210014,-48
32-19,39213920,-52
32-20,39217826,-59
32-21,39221732,-57
32-22,39225638,-50
32-23,39229544,-36
32-24,39233450,-20
32-25,39237356,-22
32-26,39241262,-16
32-27,39245168,15
32-28,39249074,53
32-29,39252980,74
32-30,39256886,41
32-31,39260792,-32
32-32,39264698,-93
32-1,39268457,-99
32-2,39272363,-59
32-3,39276269,-20
32-4,39280175,-28
32-5,39284081,-55
32-6,39287987,-73
32-7,39291893,-86
32-8,39295799,-94
32-9,39299705,-93
32-10,39303611,-83
32-11,39307517,-73
32-12,39311423,-73
32-13,39315329,-83
32-14,39319235,-87
32-15,39323141,-72
32-16,39327047,-53
32-17,39330953,-38
32-18,39334859,-33
32-19,39338765,-35
32-20,39342671,-42
32-21,39346577,-48
32-22,39350483,-51
32-23,39354389,-43
32-24,39358295,-43
32-25,39362201,-66
32-26,39366107,-73
32-27,39370013,-42
32-28,39373919,9
32-29,39377825,36
32-30,39381731,3
32-31,39385637,-56
32-32,39389543,-94
32-1,39393454,-96
32-2,39397360,-80
32-3,39401266,-66
32-4,39405172,-65
32-5,39409078,-58
32-6,39412984,-56
32-7,39416890,-64
32-8,39420796,-69
32-9,39424702,-67
32-10,39428608,-54
32-11,39432514,-42
32-12,39436420,-32
32-13,39440326,-25
32-14,39444232,-24
32-15,39448138,-22
32-16,39452044,-7
32-17,39455950,11
32-18,39459856,15
32-19,39463762,-1
32-20,39467668,-27
32-21,39471574,-47
32-22,39475480,-63
32-23,39479386,-75
32-24,39483292,-85
32-25,39487198,-97
32-26,39491104,-89
32-27,39495010,-62
32-28,39498916,-32
32-29,39502822,-18
32-30,39506728,-39
32-31,39510634,-84
32-32,39514540,-118
32-1,39518452,-117
32-2,39522358,-84
32-3,39526264,-53
32-4,39530170,-56
32-5,39534076,-68
32-6,39537982,-72
32-7,39541888,-68
32-8,39545794,-61
32-9,39549700,-59
32-10,39553606,-63
32-11,39557512,-74
32-12,39561418,-93
32-13,39565324,-107
32-14,39569230,-97
32-15,39573136,-67
32-16,39577042,-35
32-17,39580948,-17
32-18,39584854,-13
32-19,39588760,-6
32-20,39592666,1
32-21,39596572,1
32-22,39600478,-10
32-23,39604384,-16
32-24,39608290,-20
32-25,39612196,-37
32-26,39616102,-47
32-27,39620008,-41
32-28,39623914,-19
32-29,39627820,-6
32-30,39631726,-22
32-31,39635632,-51
32-32,39639538,-61
32-1,39643449,-44
32-2,39647355,-18
32-3,39651261,-3
32-4,39655167,-5
32-5,39659073,-10
32-6,39662979,-19
32-7,39666885,-33
32-8,39670791,-41
32-9,39674697,-37
32-10,39678603,-22
32-11,39682509,-10
32-12,39686415,-3
32-13,39690321,-9
32-14,39694227,-27
32-15,39698133,-42
32-16,39702039,-42
32-17,39705945,-30
32-18,39709851,-20
32-19,39713757,-22
32-20,39717663,-27
32-21,39721569,-26
32-22,39725475,-19
32-23,39729381,-13
32-24,39733287,-13
32-25,39737193,-26
32-26,39741099,-30
32-27,39745005,-27
32-28,39748911,-24
32-29,39752817,-28
32-30,39756723,-48
32-31,39760629,-79
32-32,39764535,-101
33-1,39764938,-102
33-2,39768844,-80
33-3,39772750,-54
33-4,39776656,-36
33-5,39780562,-14
33-6,39784468,0
33-7,39788374,-6
33-8,39792280,-25
33-9,39796186,-43
33-10,39800092,-48
33-11,39803998,-46
33-12,39807904,-52
33-13,39811810,-63
33-14,39815716,-67
33-15,39819622,-57
33-16,39823528,-50
33-17,39827434,-54
33-18,39831340,-55
33-19,39835246,-45
33-20,39839152,-31
33-21,39843058,-29
33-22,39846964,-37
33-23,39850870,-41
33-24,39854776,-42
33-25,39858682,-48
33-26,39862588,-43
33-27,39866494,-23
33-28,39870400,0
33-29,39874306,7
33-30,39878212,-19
33-31,39882118,-62
33-32,39886024,-89
33-33,39889930,-87
32-1,39897351,-56
32-2,39901257,-21
32-3,39905163,0
32-4,39909069,11
32-5,39912975,13
32-6,39916881,15
32-7,39920787,31
32-8,39924693,43
32-9,39928599,38
32-10,39932505,23
32-11,39936411,17
32-12,39940317,20
32-13,39944223,21
32-14,39948129,13
32-15,39952035,3
32-16,39955941,-3
32-17,39959847,-5
32-18,39963753,-3
32-19,39967659,0
32-20,39971565,9
32-21,39975471,12
32-22,39979377,10
32-23,39983283,8
32-24,39987189,-10
32-25,39991095,-18
32-26,39995001,4
32-27,39998907,43
32-28,40002813,73
32-29,40006719,58
32-30,40010625,-5
32-31,40014531,-65
32-32,40018437,-84
32-1,40022349,-65
32-2,40026255,-37
32-3,40030161,-40
32-4,40034067,-51
32-5,40037973,-51
32-6,40041879,-47
32-7,40045785,-36
32-8,40049691,-22
32-9,40053597,-4
32-10,40057503,9
32-11,40061409,5
32-12,40065315,-8
32-13,40069221,-22
32-14,40073127,-32
32-15,40077033,-42
32-16,40080939,-53
32-17,40084845,-59
32-18,40088751,-54
32-19,40092657,-48
32-20,40096563,-43
32-21,40100469,-38
32-22,40104375,-30
32-23,40108281,-18
32-24,40112187,-10
32-25,40116093,-8
32-26,40119999,16
32-27,40123905,53
32-28,40127811,76
32-29,40131717,69
32-30,40135623,37
32-31,40139529,7
32-32,40143435,-5
32-1,40147346,-3
32-2,40151252,6
32-3,40155158,7
32-4,40159064,-7
32-5,40162970,-14
32-6,40166876,-17
32-7,40170782,-17
32-8,40174688,-14
32-9,40178594,-9
32-10,40182500,1
32-11,40186406,13
32-12,40190312,16
32-13,40194218,2
32-14,40198124,-19
32-15,40202030,-26
32-16,40205936,-14
32-17,40209842,-1
32-18,40213748,3
32-19,40217654,7
32-20,40221560,16
32-21,40225466,23
32-22,40229372,15
32-23,40233278,1
32-24,40237184,-6
32-25,40241090,-14
32-26,40244996,-16
32-27,40248902,-11
32-28,40252808,3
32-29,40256714,10
32-30,40260620,-10
32-31,40264526,-52
32-32,40268432,-82
32-1,40272344,-83
32-2,40276250,-62
32-3,40280156,-36
32-4,40284062,-21
32-5,40287968,-7
32-6,40291874,0
32-7,40295780,-8
32-8,40299686,-22
32-9,40303592,-30
32-10,40307498,-29
32-11,40311404,-24
32-12,40315310,-13
32-13,40319216,5
32-14,40323122,21
32-15,40327028,17
32-16,40330934,-10
32-17,40334840,-37
32-18,40338746,-44
32-19,40342652,-40
32-20,40346558,-41
32-21,40350464,-52
32-22,40354370,-62
32-23,40358276,-58
32-24,40362182,-49
32-25,40366088,-43
32-26,40369994,-16
32-27,40373900,32
32-28,40377806,79
32-29,40381712,94
32-30,40385618,58
32-31,40389524,-3
32-32,40393430,-55
32-1,40397341,-75
32-2,40401247,-60
32-3,40405153,-41
32-4,40409059,-46
32-5,40412965,-62
32-6,40416871,-78
32-7,40420777,-83
32-8,40424683,-71
32-9,40428589,-55
32-10,40432495,-42
32-11,40436401,-33
32-12,40440307,-21
32-13,40444213,-13
32-14,40448119,-6
32-15,40452025,-1
32-16,40455931,4
32-17,40459837,2
32-18,40463743,-2
32-19,40467649,3
32-20,40471555,11
32-21,40475461,6
32-22,40479367,-16
32-23,40483273,-31
32-24,40487179,-36
32-25,40491085,-45
32-26,40494991,-50
32-27,40498897,-44
32-28,40502803,-24
32-29,40506709,-6
32-30,40510615,-17
32-31,40514521,-56
32-32,40518427,-87
32-1,40522492,-101
32-2,40526398,-104
32-3,40530304,-111
32-4,40534210,-123
32-5,40538116,-113
32-6,40542022,-92
32-7,40545928,-86
32-8,40549834,-90
32-9,40553740,-94
32-10,40557646,-84
32-11,40561552,-69
32-12,40565458,-58
32-13,40569364,-56
32-14,40573270,-59
32-15,40577176,-68
32-16,40581082,-76
32-17,40584988,-77
32-18,40588894,-70
32-19,40592800,-60
32-20,40596706,-55
32-21,40600612,-49
32-22,40604518,-40
32-23,40608424,-26
32-24,40612330,-22
32-25,40616236,-37
32-26,40620142,-33
32-27,40624048,-2
32-28,40627954,35
32-29,40631860,49
32-30,40635766,16
32-31,40639672,-42
32-32,40643578,-87
32-1,40647337,-97
32-2,40651243,-75
32-3,40655149,-49
32-4,40659055,-51
32-5,40662961,-58
32-6,40666867,-61
32-7,40670773,-58
32-8,40674679,-46
32-9,40678585,-36
32-10,40682491,-19
32-11,40686397,13
32-12,40690303,50
32-13,40694209,66
32-14,40698115,53
32-15,40702021,23
32-16,40705927,-2
32-17,40709833,-18
32-18,40713739,-30
32-19,40717645,-39
32-20,40721551,-49
32-21,40725457,-59
32-22,40729363,-71
32-23,40733269,-69
32-24,40737175,-56
32-25,40741081,-60
32-26,40744987,-61
32-27,40748893,-43
32-28,40752799,-3
32-29,40756705,36
32-30,40760611,33
32-31,40764517,-13
32-32,40768423,-56
32-1,40772334,-65
32-2,40776240,-46
32-3,40780146,-23
32-4,40784052,-19
32-5,40787958,-9
32-6,40791864,5
32-7,40795770,5
32-8,40799676,-8
32-9,40803582,-22
32-10,40807488,-28
32-11,40811394,-31
32-12,40815300,-34
32-13,40819206,-33
32-14,40823112,-30
32-15,40827018,-26
32-16,40830924,-26
32-17,40834830,-24
32-18,40838736,-20
32-19,40842642,-18
32-20,40846548,-24
32-21,40850454,-30
32-22,40854360,-32
32-23,40858266,-23
32-24,40862172,-16
32-25,40866078,-17
32-26,40869984,-1
32-27,40873890,28
32-28,40877796,49
32-29,40881702,43
32-30,40885608,9
32-31,40889514,-26
32-32,40893420,-41
32-1,40897332,-38
32-2,40901238,-23
32-3,40905144,-4
32-4,40909050,7
32-5,40912956,13
32-6,40916862,6
32-7,40920768,-13
32-8,40924674,-36
32-9,40928580,-53
32-10,40932486,-55
32-11,40936392,-40
32-12,40940298,-16
32-13,40944204,3
32-14,40948110,10
32-15,40952016,7
32-16,40955922,-4
32-17,40959828,-19
32-18,40963734,-27
32-19,40967640,-21
32-20,40971546,-4
32-21,40975452,5
32-22,40979358,-8
32-23,40983264,-29
32-24,40987170,-51
32-25,40991076,-70
32-26,40994982,-70
32-27,40998888,-53
32-28,41002794,-29
32-29,41006700,-18
32-30,41010606,-33
32-31,41014512,-58
32-32,41018418,-68
32-1,41022330,-59
32-2,41026236,-50
32-3,41030142,-49
32-4,41034048,-59
32-5,41037954,-59
32-6,41041860,-63
32-7,41045766,-82
32-8,41049672,-105
32-9,41053578,-112
32-10,41057484,-103
32-11,41061390,-91
32-12,41065296,-82
32-13,41069202,-78
32-14,41073108,-82
32-15,41077014,-90
32-16,41080920,-98
32-17,41084826,-93
32-18,41088732,-77
32-19,41092638,-62
32-20,41096544,-59
32-21,41100450,-61
32-22,41104356,-64
32-23,41108262,-60
32-24,41112168,-62
32-25,41116074,-76
32-26,41119980,-72
32-27,41123886,-45
32-28,41127792,-15
32-29,41131698,-6
32-30,41135604,-34
32-31,41139510,-80
32-32,41143416,-117
32-1,41147449,-134
32-2,41151355,-122
32-3,41155261,-96
32-4,41159167,-87
32-5,41163073,-85
32-6,41166979,-84
32-7,41170885,-76
32-8,41174791,-58
32-9,41178697,-40
32-10,41182603,-22
32-11,41186509,-2
32-12,41190415,15
32-13,41194321,14
32-14,41198227,-2
32-15,41202133,-16
32-16,41206039,-11
32-17,41209945,9
32-18,41213851,27
32-19,41217757,33
32-20,41221663,24
32-21,41225569,-1
32-22,41229475,-34
32-23,41233381,-53
32-24,41237287,-57
32-25,41241193,-54
32-26,41245099,-43
32-27,41249005,-18
32-28,41252911,18
32-29,41256817,42
32-30,41260723,32
32-31,41264629,-5
32-32,41268535,-36
32-1,41272355,-48
32-2,41276261,-41
32-3,41280167,-32
32-4,41284073,-28
32-5,41287979,-19
32-6,41291885,-17
32-7,41295791,-37
32-8,41299697,-64
32-9,41303603,-81
32-10,41307509,-79
32-11,41311415,-66
32-12,41315321,-51
32-13,41319227,-35
32-14,41323133,-19
32-15,41327039,-11
32-16,41330945,-14
32-17,41334851,-18
32-18,41338757,-24
32-19,41342663,-30
32-20,41346569,-39
32-21,41350475,-38
32-22,41354381,-27
32-23,41358287,-14
32-24,41362193,-14
32-25,41366099,-42
32-26,41370005,-56
32-27,41373911,-41
32-28,41377817,-9
32-29,41381723,13
32-30,41385629,-2
32-31,41389535,-40
32-32,41393441,-68
32-1,41397323,-70
32-2,41401229,-49
32-3,41405135,-30
32-4,41409041,-44
32-5,41412947,-63
32-6,41416853,-67
32-7,41420759,-59
32-8,41424665,-42
32-9,41428571,-34
32-10,41432477,-28
32-11,41436383,-11
32-12,41440289,13
32-13,41444195,25
32-14,41448101,14
32-15,41452007,-11
32-16,41455913,-33
32-17,41459819,-42
32-18,41463725,-43
32-19,41467631,-37
32-20,41471537,-25
32-21,41475443,-18
32-22,41479349,-26
32-23,41483255,-38
32-24,41487161,-46
32-25,41491067,-57
32-26,41494973,-51
32-27,41498879,-20
32-28,41502785,20
32-29,41506691,34
32-30,41510597,-7
32-31,41514503,-74
32-32,41518409,-114
32-1,41522320,-105
32-2,41526226,-67
32-3,41530132,-39
32-4,41534038,-41
32-5,41537944,-41
32-6,41541850,-32
32-7,41545756,-25
32-8,41549662,-19
32-9,41553568,-13
32-10,41557474,-5
32-11,41561380,0
32-12,41565286,4
32-13,41569192,12
32-14,41573098,20
32-15,41577004,16
32-16,41580910,2
32-17,41584816,-14
32-18,41588722,-21
32-19,41592628,-23
32-20,41596534,-22
32-21,41600440,-12
32-22,41604346,0
32-23,41608252,14
32-24,41612158,15
32-25,41616064,-1
32-26,41619970,-7
32-27,41623876,0
32-28,41627782,7
32-29,41631688,5
32-30,41635594,-12
32-31,41639500,-31
32-32,41643406,-37
32-1,41647318,-33
32-2,41651224,-19
32-3,41655130,-9
32-4,41659036,-20
32-5,41662942,-32
32-6,41666848,-33
