32-1,48507814,-519
32-2,48511720,-576
32-3,48515626,380
32-4,48519532,638
32-5,48523438,-254
32-6,48527344,-691
32-7,48531250,102
32-8,48535156,672
32-9,48539062,-30
32-10,48542968,-749
32-11,48546874,-180
32-12,48550780,665
32-13,48554686,275
32-14,48558592,-639
32-15,48562498,-451
32-16,48566404,491
32-17,48570310,501
32-18,48574216,-442
32-19,48578122,-616
32-20,48582028,310
32-21,48585934,648
32-22,48589840,-220
32-23,48593746,-730
32-24,48597652,16
32-25,48601558,679
32-26,48605464,66
32-27,48609370,-729
32-28,48613276,-260
32-29,48617182,619
32-30,48621088,295
32-31,48624994,-638
32-32,48628900,-497
32-1,48632812,461
32-2,48636718,524
32-3,48640624,-430
32-4,48644530,-680
32-5,48648436,229
32-6,48652342,654
32-7,48656248,-168
32-8,48660154,-764
32-9,48664060,-63
32-10,48667966,659
32-11,48671872,65
32-12,48675778,-771
32-13,48679684,-343
32-14,48683590,583
32-15,48687496,379
32-16,48691402,-561
32-17,48695308,-549
32-18,48699214,394
32-19,48703120,563
32-20,48707026,-366
32-21,48710932,-709
32-22,48714838,184
32-23,48718744,725
32-24,48722650,-51
32-25,48726556,-727
32-26,48730462,-73
32-27,48734368,729
32-28,48738274,230
32-29,48742180,-663
32-30,48746086,-367
32-31,48749992,537
32-32,48753898,401
32-1,48757809,-535
32-2,48761715,-593
32-3,48765621,345
32-4,48769527,588
32-5,48773433,-306
32-6,48777339,-697
32-7,48781245,131
32-8,48785151,690
32-9,48789057,-34
32-10,48792963,-757
32-11,48796869,-188
32-12,48800775,646
32-13,48804681,234
32-14,48808587,-685
32-15,48812493,-454
32-16,48816399,516
32-17,48820305,477
32-18,48824211,-492
32-19,48828117,-626
32-20,48832023,331
32-21,48835929,672
32-22,48839835,-187
32-23,48843741,-684
32-24,48847647,48
32-25,48851553,668
32-26,48855459,31
32-27,48859365,-732
32-28,48863271,-237
32-29,48867177,647
32-30,48871083,338
32-31,48874989,-579
32-32,48878895,-428
32-1,48882990,503
32-2,48886896,501
32-3,48890802,-452
32-4,48894708,-668
32-5,48898614,225
32-6,48902520,627
32-7,48906426,-194
32-8,48910332,-755
32-9,48914238,-26
32-10,48918144,690
32-11,48922050,118
32-12,48925956,-696
32-13,48929862,-273
32-14,48933768,625
32-15,48937674,373
32-16,48941580,-561
32-17,48945486,-495
32-18,48949392,448
32-19,48953298,572
32-20,48957204,-368
32-21,48961110,-682
32-22,48965016,197
32-23,48968922,663
32-24,48972828,-145
32-25,48976734,-765
32-26,48980640,-81
32-27,48984546,671
32-28,48988452,146
32-29,48992358,-711
32-30,48996264,-371
32-31,49000170,542
32-32,49004076,382
32-1,49007988,-543
32-2,49011894,-566
32-3,49015800,343
32-4,49019706,553
32-5,49023612,-313
32-6,49027518,-675
32-7,49031424,144
32-8,49035330,685
32-9,49039236,-33
32-10,49043142,-749
32-11,49047048,-162
32-12,49050954,695
32-13,49054860,266
32-14,49058766,-668
32-15,49062672,-416
32-16,49066578,550
32-17,49070484,489
32-18,49074390,-485
32-19,49078296,-646
32-20,49082202,254
32-21,49086108,565
32-22,49090014,-288
32-23,49093920,-754
32-24,49097826,45
32-25,49101732,705
32-26,49105638,50
32-27,49109544,-738
32-28,49113450,-224
32-29,49117356,689
32-30,49121262,337
32-31,49125168,-644
32-32,49129074,-507
32-1,49132802,425
32-2,49136708,418
32-3,49140614,-548
32-4,49144520,-746
32-5,49148426,200
32-6,49152332,619
32-7,49156238,-209
32-8,49160144,-765
32-9,49164050,-18
32-10,49167956,708
32-11,49171862,116
32-12,49175768,-690
32-13,49179674,-258
32-14,49183580,603
32-15,49187486,306
32-16,49191392,-657
32-17,49195298,-571
32-18,49199204,397
32-19,49203110,503
32-20,49207016,-424
32-21,49210922,-722
32-22,49214828,129
32-23,49218734,598
32-24,49222640,-174
32-25,49226546,-780
32-26,49230452,-92
32-27,49234358,673
32-28,49238264,157
32-29,49242170,-679
32-30,49246076,-321
32-31,49249982,583
32-32,49253888,399
32-1,49257800,-553
32-2,49261706,-569
32-3,49265612,382
32-4,49269518,583
32-5,49273424,-336
32-6,49277330,-714
32-7,49281236,106
32-8,49285142,624
32-9,49289048,-94
32-10,49292954,-745
32-11,49296860,-124
32-12,49300766,688
32-13,49304672,238
32-14,49308578,-657
32-15,49312484,-396
32-16,49316390,516
32-17,49320296,414
32-18,49324202,-537
32-19,49328108,-640
32-20,49332014,292
32-21,49335920,582
32-22,49339826,-307
32-23,49343732,-767
32-24,49347638,43
32-25,49351544,684
32-26,49355450,48
32-27,49359356,-685
32-28,49363262,-175
32-29,49367168,677
32-30,49371074,299
32-31,49374980,-650
32-32,49378886,-450
32-1,49382792,506
32-2,49386698,491
32-3,49390604,-436
32-4,49394510,-597
32-5,49398416,317
32-6,49402322,684
32-7,49406228,-175
32-8,49410134,-742
32-9,49414040,-22
32-10,49417946,670
32-11,49421852,87
32-12,49425758,-709
32-13,49429664,-273
32-14,49433570,625
32-15,49437476,359
32-16,49441382,-592
32-17,49445288,-485
32-18,49449194,497
32-19,49453100,602
32-20,49457006,-314
32-21,49460912,-582
32-22,49464818,280
32-23,49468724,718
32-24,49472630,-96
32-25,49476536,-721
32-26,49480442,-35
32-27,49484348,702
32-28,49488254,160
32-29,49492160,-674
32-30,49496066,-310
32-31,49499972,596
32-32,49503878,397
32-1,49507795,-565
32-2,49511701,-551
32-3,49515607,411
32-4,49519513,596
32-5,49523419,-325
32-6,49527325,-681
32-7,49531231,190
32-8,49535137,717
32-9,49539043,-37
32-10,49542949,-708
32-11,49546855,-128
32-12,49550761,632
32-13,49554667,186
32-14,49558573,-677
32-15,49562479,-373
32-16,49566385,584
32-17,49570291,480
32-18,49574197,-485
32-19,49578103,-576
32-20,49582009,361
32-21,49585915,647
32-22,49589821,-217
32-23,49593727,-662
32-24,49597633,114
32-25,49601539,697
32-26,49605445,7
32-27,49609351,-735
32-28,49613257,-187
32-29,49617163,666
32-30,49621069,262
32-31,49624975,-680
32-32,49628881,-465
32-1,49632793,511
32-2,49636699,507
32-3,49640605,-438
32-4,49644511,-588
32-5,49648417,362
32-6,49652323,722
32-7,49656229,-147
32-8,49660135,-674
32-9,49664041,69
32-10,49667947,738
32-11,49671853,129
32-12,49675759,-687
32-13,49679665,-259
32-14,49683571,625
32-15,49687477,345
32-16,49691383,-606
32-17,49695289,-519
32-18,49699195,462
32-19,49703101,577
32-20,49707007,-374
32-21,49710913,-648
32-22,49714819,239
32-23,49718725,662
32-24,49722631,-152
32-25,49726537,-753
32-26,49730443,-73
32-27,49734349,658
32-28,49738255,116
32-29,49742161,-720
32-30,49746067,-340
32-31,49749973,570
32-32,49753879,352
32-1,49757790,-596
32-2,49761696,-551
32-3,49765602,415
32-4,49769508,583
32-5,49773414,-342
32-6,49777320,-692
32-7,49781226,168
32-8,49785132,672
32-9,49789038,-101
32-10,49792944,-775
32-11,49796850,-160
32-12,49800756,633
32-13,49804662,171
32-14,49808568,-698
32-15,49812474,-376
32-16,49816380,576
32-17,49820286,447
32-18,49824192,-518
32-19,49828098,-583
32-20,49832004,351
32-21,49835910,605
32-22,49839816,-283
32-23,49843722,-732
32-24,49847628,69
32-25,49851534,682
32-26,49855440,1
32-27,49859346,-724
32-28,49863252,-147
32-29,49867158,724
32-30,49871064,328
32-31,49874970,-608
32-32,49878876,-399
32-1,49882788,540
32-2,49886694,490
32-3,49890600,-469
32-4,49894506,-635
32-5,49898412,279
32-6,49902318,635
32-7,49906224,-199
32-8,49910130,-697
32-9,49914036,43
32-10,49917942,665
32-11,49921848,28
32-12,49925754,-730
32-13,49929660,-236
32-14,49933566,643
32-15,49937472,338
32-16,49941378,-593
32-17,49945284,-467
32-18,49949190,492
32-19,49953096,560
32-20,49957002,-407
32-21,49960908,-685
32-22,49964814,233
32-23,49968720,696
32-24,49972626,-105
32-25,49976532,-674
32-26,49980438,29
32-27,49984344,746
32-28,49988250,215
32-29,49992156,-604
32-30,49996062,-247
32-31,49999968,645
32-32,50003874,433
32-1,50007786,-522
32-2,50011692,-483
32-3,50015598,473
32-4,50019504,619
32-5,50023410,-296
32-6,50027316,-622
32-7,50031222,233
32-8,50035128,732
32-9,50039034,-42
32-10,50042940,-710
32-11,50046846,-72
32-12,50050752,717
32-13,50054658,229
32-14,50058564,-659
32-15,50062470,-352
32-16,50066376,607
32-17,50070282,491
32-18,50074188,-492
32-19,50078094,-554
32-20,50082000,411
32-21,50085906,647
32-22,50089812,-261
32-23,50093718,-680
32-24,50097624,120
32-25,50101530,685
32-26,50105436,-1
32-27,50109342,-690
32-28,50113248,-117
32-29,50117154,694
32-30,50121060,257
32-31,50124966,-675
32-32,50128872,-460
32-1,50132783,485
32-2,50136689,436
32-3,50140595,-543
32-4,50144501,-687
32-5,50148407,250
32-6,50152313,580
32-7,50156219,-260
32-8,50160125,-732
32-9,50164031,33
32-10,50167937,670
32-11,50171843,28
32-12,50175749,-734
32-13,50179655,-248
32-14,50183561,612
32-15,50187467,297
32-16,50191373,-625
32-17,50195279,-480
32-18,50199185,479
32-19,50203091,538
32-20,50206997,-393
32-21,50210903,-634
32-22,50214809,249
32-23,50218715,653
32-24,50222621,-173
32-25,50226527,-753
32-26,50230433,-37
32-27,50234339,703
32-28,50238245,157
32-29,50242151,-658
32-30,50246057,-244
32-31,50249963,662
32-32,50253869,402
32-1,50257781,-586
32-2,50261687,-536
32-3,50265593,438
32-4,50269499,562
32-5,50273405,-378
32-6,50277311,-680
32-7,50281217,204
32-8,50285123,700
32-9,50289029,-84
32-10,50292935,-737
32-11,50296841,-76
32-12,50300747,707
32-13,50304653,210
32-14,50308559,-642
32-15,50312465,-321
32-16,50316371,583
32-17,50320277,432
32-18,50324183,-534
32-19,50328089,-600
32-20,50331995,335
32-21,50335901,571
32-22,50339807,-320
32-23,50343713,-728
32-24,50347619,86
32-25,50351525,657
32-26,50355431,-42
32-27,50359337,-750
32-28,50363243,-187
32-29,50367149,640
32-30,50371055,227
32-31,50374961,-680
32-32,50378867,-447
32-1,50382779,477
32-2,50386685,435
32-3,50390591,-479
32-4,50394497,-625
32-5,50398403,264
32-6,50402309,585
32-7,50406215,-261
32-8,50410121,-739
32-9,50414027,42
32-10,50417933,695
32-11,50421839,52
32-12,50425745,-707
32-13,50429651,-218
32-14,50433557,609
32-15,50437463,251
32-16,50441369,-684
32-17,50445275,-535
32-18,50449181,440
32-19,50453087,489
32-20,50456993,-476
32-21,50460899,-703
32-22,50464805,202
32-23,50468711,584
32-24,50472617,-258
32-25,50476523,-817
32-26,50480429,-97
32-27,50484335,609
32-28,50488241,42
32-29,50492147,-755
32-30,50496053,-340
32-31,50499959,555
32-32,50503865,343
32-1,50507837,-573
32-2,50511743,-509
32-3,50515649,438
32-4,50519555,539
32-5,50523461,-419
32-6,50527367,-716
32-7,50531273,186
32-8,50535179,665
32-9,50539085,-124
32-10,50542991,-742
32-11,50546897,-91
32-12,50550803,644
32-13,50554709,136
32-14,50558615,-703
32-15,50562521,-352
32-16,50566427,568
32-17,50570333,392
32-18,50574239,-572
32-19,50578145,-576
32-20,50582051,393
32-21,50585957,602
32-22,50589863,-321
32-23,50593769,-711
32-24,50597675,136
32-25,50601581,698
32-26,50605487,-23
32-27,50609393,-719
32-28,50613299,-136
32-29,50617205,675
32-30,50621111,212
32-31,50625017,-723
32-32,50628923,-464
32-1,50632774,479
32-2,50636680,386
32-3,50640586,-570
32-4,50644492,-651
32-5,50648398,312
32-6,50652304,603
32-7,50656210,-279
32-8,50660116,-725
32-9,50664022,64
32-10,50667928,678
32-11,50671834,6
32-12,50675740,-747
32-13,50679646,-196
32-14,50683552,683
32-15,50687458,321
32-16,50691364,-605
32-17,50695270,-451
32-18,50699176,463
32-19,50703082,454
32-20,50706988,-487
32-21,50710894,-670
32-22,50714800,236
32-23,50718706,597
32-24,50722612,-249
32-25,50726518,-796
32-26,50730424,-77
32-27,50734330,599
32-28,50738236,13
32-29,50742142,-777
32-30,50746048,-345
32-31,50749954,523
32-32,50753860,228
32-1,50757771,-717
32-2,50761677,-615
32-3,50765583,350
32-4,50769489,474
32-5,50773395,-433
32-6,50777301,-699
32-7,50781207,197
32-8,50785113,674
32-9,50789019,-105
32-10,50792925,-723
32-11,50796831,-73
32-12,50800737,640
32-13,50804643,65
32-14,50808549,-798
32-15,50812455,-413
32-16,50816361,511
32-17,50820267,333
32-18,50824173,-581
32-19,50828079,-572
32-20,50831985,344
32-21,50835891,527
32-22,50839797,-365
32-23,50843703,-713
32-24,50847609,136
32-25,50851515,645
32-26,50855421,-113
32-27,50859327,-778
32-28,50863233,-178
32-29,50867139,620
32-30,50871045,179
32-31,50874951,-712
32-32,50878857,-423
32-1,50882769,532
32-2,50886675,433
32-3,50890581,-542
32-4,50894487,-640
32-5,50898393,325
32-6,50902299,616
32-7,50906205,-270
32-8,50910111,-700
32-9,50914017,98
32-10,50917923,696
32-11,50921829,14
32-12,50925735,-740
32-13,50929641,-208
32-14,50933547,651
32-15,50937453,280
32-16,50941359,-646
32-17,50945265,-464
32-18,50949171,481
32-19,50953077,489
32-20,50956983,-443
32-21,50960889,-618
32-22,50964795,283
32-23,50968701,634
32-24,50972607,-199
32-25,50976513,-721
32-26,50980419,-5
32-27,50984325,644
32-28,50988231,33
32-29,50992137,-751
32-30,50996043,-319
32-31,50999949,549
32-32,51003855,309
32-1,51007767,-588
32-2,51011673,-480
32-3,51015579,464
32-4,51019485,521
32-5,51023391,-427
32-6,51027297,-685
32-7,51031203,209
32-8,51035109,670
32-9,51039015,-122
32-10,51042921,-728
32-11,51046827,-53
32-12,51050733,683
32-13,51054639,145
32-14,51058545,-709
32-15,51062451,-353
32-16,51066357,566
32-17,51070263,399
32-18,51074169,-534
32-19,51078075,-524
32-20,51081981,423
32-21,51085887,590
32-22,51089793,-337
32-23,51093699,-691
32-24,51097605,164
32-25,51101511,671
32-26,51105417,-118
32-27,51109323,-795
32-28,51113229,-153
32-29,51117135,647
32-30,51121041,158
32-31,51124947,-745
32-32,51128853,-447
32-1,51132764,500
32-2,51136670,398
32-3,51140576,-557
32-4,51144482,-645
32-5,51148388,314
32-6,51152294,616
32-7,51156200,-253
32-8,51160106,-690
32-9,51164012,106
32-10,51167918,702
32-11,51171824,18
32-12,51175730,-718
32-13,51179636,-192
32-14,51183542,625
32-15,51187448,237
32-16,51191354,-677
32-17,51195260,-475
32-18,51199166,473
32-19,51203072,450
32-20,51206978,-499
32-21,51210884,-656
32-22,51214790,279
32-23,51218696,653
32-24,51222602,-191
32-25,51226508,-714
32-26,51230414,39
32-27,51234320,706
32-28,51238226,91
32-29,51242132,-669
32-30,51246038,-185
32-31,51249944,677
32-32,51253850,372
32-1,51257762,-541
32-2,51261668,-431
32-3,51265574,488
32-4,51269480,551
32-5,51273386,-386
32-6,51277292,-653
32-7,51281198,240
32-8,51285104,680
32-9,51289010,-141
32-10,51292916,-722
32-11,51296822,15
32-12,51300728,754
32-13,51304634,189
32-14,51308540,-638
32-15,51312446,-244
32-16,51316352,667
32-17,51320258,450
32-18,51324164,-535
32-19,51328070,-535
32-20,51331976,421
32-21,51335882,569
32-22,51339788,-362
32-23,51343694,-689
32-24,51347600,171
32-25,51351506,680
32-26,51355412,-71
32-27,51359318,-735
32-28,51363224,-107
32-29,51367130,702
32-30,51371036,235
32-31,51374942,-653
32-32,51378848,-353
32-1,51382760,573
32-2,51386666,435
32-3,51390572,-538
32-4,51394478,-604
32-5,51398384,351
32-6,51402290,595
32-7,51406196,-298
32-8,51410102,-720
32-9,51414008,75
32-10,51417914,661
32-11,51421820,-14
32-12,51425726,-724
32-13,51429632,-161
32-14,51433538,677
32-15,51437444,265
32-16,51441350,-671
32-17,51445256,-460
32-18,51449162,495
32-19,51453068,483
32-20,51456974,-436
32-21,51460880,-565
32-22,51464786,365
32-23,51468692,696
32-24,51472598,-169
32-25,51476504,-669
32-26,51480410,92
32-27,51484316,731
32-28,51488222,74
32-29,51492128,-712
32-30,51496034,-241
32-31,51499940,617
32-32,51503846,309
32-1,51507757,-612
32-2,51511663,-489
32-3,51515569,442
32-4,51519475,468
32-5,51523381,-485
32-6,51527287,-699
32-7,51531193,212
32-8,51535099,618
32-9,51539005,-200
32-10,51542911,-781
32-11,51546817,-94
32-12,51550723,614
32-13,51554629,60
32-14,51558535,-741
32-15,51562441,-334
32-16,51566347,563
32-17,51570253,357
32-18,51574159,-566
32-19,51578065,-514
32-20,51581971,446
32-21,51585877,587
32-22,51589783,-325
32-23,51593689,-618
32-24,51597595,244
32-25,51601501,741
32-26,51605407,7
32-27,51609313,-637
32-28,51613219,-31
32-29,51617125,725
32-30,51621031,229
32-31,51624937,-646
32-32,51628843,-325
32-1,51632755,605
32-2,51636661,452
32-3,51640567,-516
32-4,51644473,-552
32-5,51648379,390
32-6,51652285,595
32-7,51656191,-293
32-8,51660097,-663
32-9,51664003,149
32-10,51667909,709
32-11,51671815,24
32-12,51675721,-676
32-13,51679627,-130
32-14,51683533,676
32-15,51687439,271
32-16,51691345,-621
32-17,51695251,-405
32-18,51699157,517
32-19,51703063,485
32-20,51706969,-435
32-21,51710875,-573
32-22,51714781,328
32-23,51718687,642
32-24,51722593,-216
32-25,51726499,-727
32-26,51730405,25
32-27,51734311,676
32-28,51738217,41
32-29,51742123,-693
32-30,51746029,-177
32-31,51749935,652
32-32,51753841,305
32-1,51757814,-590
32-2,51761720,-431
32-3,51765626,488
32-4,51769532,510
32-5,51773438,-428
32-6,51777344,-650
32-7,51781250,267
32-8,51785156,667
32-9,51789062,-172
32-10,51792968,-710
32-11,51796874,24
32-12,51800780,704
32-13,51804686,110
32-14,51808592,-688
32-15,51812498,-257
32-16,51816404,637
32-17,51820310,387
32-18,51824216,-551
32-19,51828122,-485
32-20,51832028,447
32-21,51835934,543
32-22,51839840,-395
32-23,51843746,-692
32-24,51847652,166
32-25,51851558,615
32-26,51855464,-169
32-27,51859370,-789
32-28,51863276,-112
32-29,51867182,666
32-30,51871088,137
32-31,51874994,-747
32-32,51878900,-387
32-1,51882750,563
32-2,51886656,421
32-3,51890562,-505
32-4,51894468,-528
32-5,51898374,396
32-6,51902280,589
32-7,51906186,-331
32-8,51910092,-712
32-9,51913998,125
32-10,51917904,661
32-11,51921810,-51
32-12,51925716,-719
32-13,51929622,-147
32-14,51933528,647
32-15,51937434,217
32-16,51941340,-671
32-17,51945246,-410
32-18,51949152,511
32-19,51953058,408
32-20,51956964,-541
32-21,51960870,-639
32-22,51964776,276
32-23,51968682,562
32-24,51972588,-296
32-25,51976494,-751
32-26,51980400,36
32-27,51984306,647
32-28,51988212,-23
32-29,51992118,-772
32-30,51996024,-278
32-31,51999930,576
32-32,52003836,266
32-1,52007748,-629
32-2,52011654,-448
32-3,52015560,501
32-4,52019466,502
32-5,52023372,-454
32-6,52027278,-669
32-7,52031184,215
32-8,52035090,565
32-9,52038996,-277
32-10,52042902,-798
32-11,52046808,-60
32-12,52050714,629
32-13,52054620,40
32-14,52058526,-767
32-15,52062432,-312
32-16,52066338,585
32-17,52070244,310
32-18,52074150,-607
32-19,52078056,-518
32-20,52081962,411
32-21,52085868,525
32-22,52089774,-389
32-23,52093680,-670
32-24,52097586,202
32-25,52101492,643
32-26,52105398,-142
32-27,52109304,-735
32-28,52113210,-51
32-29,52117116,700
32-30,52121022,141
32-31,52124928,-739
32-32,52128834,-381
32-1,52132745,532
32-2,52136651,362
32-3,52140557,-565
32-4,52144463,-562
32-5,52148369,396
32-6,52152275,600
32-7,52156181,-295
32-8,52160087,-646
32-9,52163993,190
32-10,52167899,720
32-11,52171805,-4
32-12,52175711,-672
32-13,52179617,-71
32-14,52183523,715
32-15,52187429,243
32-16,52191335,-678
32-17,52195241,-414
32-18,52199147,546
32-19,52203053,467
32-20,52206959,-488
32-21,52210865,-583
32-22,52214771,348
32-23,52218677,619
32-24,52222583,-266
32-25,52226489,-721
32-26,52230395,48
32-27,52234301,636
32-28,52238207,-28
32-29,52242113,-751
32-30,52246019,-244
32-31,52249925,560
32-32,52253831,207
32-1,52257743,-664
32-2,52261649,-486
32-3,52265555,438
32-4,52269461,464
32-5,52273367,-458
32-6,52277273,-648
32-7,52281179,278
32-8,52285085,670
32-9,52288991,-167
32-10,52292897,-711
32-11,52296803,11
32-12,52300709,672
32-13,52304615,61
32-14,52308521,-699
32-15,52312427,-215
32-16,52316333,649
32-17,52320239,332
32-18,52324145,-616
32-19,52328051,-525
32-20,52331957,428
32-21,52335863,553
32-22,52339769,-355
32-23,52343675,-630
32-24,52347581,251
32-25,52351487,679
32-26,52355393,-145
32-27,52359299,-744
32-28,52363205,-45
32-29,52367111,689
32-30,52371017,127
32-31,52374923,-733
32-32,52378829,-370
32-1,52382863,537
32-2,52386769,350
32-3,52390675,-599
32-4,52394581,-617
32-5,52398487,304
32-6,52402393,480
32-7,52406299,-425
32-8,52410205,-775
32-9,52414111,75
32-10,52418017,599
32-11,52421923,-151
32-12,52425829,-808
32-13,52429735,-191
32-14,52433641,577
32-15,52437547,123
32-16,52441453,-733
32-17,52445359,-447
32-18,52449265,498
32-19,52453171,412
32-20,52457077,-554
32-21,52460983,-645
32-22,52464889,296
32-23,52468795,548
32-24,52472701,-343
32-25,52476607,-749
32-26,52480513,75
32-27,52484419,667
32-28,52488325,-10
32-29,52492231,-721
32-30,52496137,-181
32-31,52500043,648
32-32,52503949,271
32-1,52507738,-621
32-2,52511644,-406
32-3,52515550,528
32-4,52519456,492
32-5,52523362,-455
32-6,52527268,-606
32-7,52531174,303
32-8,52535080,614
32-9,52538986,-241
32-10,52542892,-742
32-11,52546798,4
32-12,52550704,683
32-13,52554610,101
32-14,52558516,-649
32-15,52562422,-183
32-16,52566328,647
32-17,52570234,329
32-18,52574140,-596
32-19,52578046,-486
32-20,52581952,459
32-21,52585858,523
32-22,52589764,-412
32-23,52593670,-662
32-24,52597576,235
32-25,52601482,687
32-26,52605388,-118
32-27,52609294,-721
32-28,52613200,-20
32-29,52617106,722
32-30,52621012,165
32-31,52624918,-681
32-32,52628824,-281
32-1,52632736,636
32-2,52636642,382
32-3,52640548,-612
32-4,52644454,-587
32-5,52648360,375
32-6,52652266,533
32-7,52656172,-389
32-8,52660078,-722
32-9,52663984,141
32-10,52667890,649
32-11,52671796,-104
32-12,52675702,-759
32-13,52679608,-157
32-14,52683514,611
32-15,52687420,153
32-16,52691326,-698
32-17,52695232,-382
32-18,52699138,552
32-19,52703044,455
32-20,52706950,-466
32-21,52710856,-536
32-22,52714762,382
32-23,52718668,626
32-24,52722574,-260
32-25,52726480,-678
32-26,52730386,132
32-27,52734292,706
32-28,52738198,2
32-29,52742104,-713
32-30,52746010,-169
32-31,52749916,632
32-32,52753822,216
32-1,52757764,-700
32-2,52761670,-463
32-3,52765576,508
32-4,52769482,472
32-5,52773388,-494
32-6,52777294,-644
32-7,52781200,282
32-8,52785106,610
32-9,52789012,-220
32-10,52792918,-669
32-11,52796824,91
32-12,52800730,706
32-13,52804636,66
32-14,52808542,-696
32-15,52812448,-231
32-16,52816354,611
32-17,52820260,289
32-18,52824166,-639
32-19,52828072,-507
32-20,52831978,448
32-21,52835884,478
32-22,52839790,-500
32-23,52843696,-737
32-24,52847602,157
32-25,52851508,560
32-26,52855414,-243
32-27,52859320,-831
32-28,52863226,-114
32-29,52867132,671
32-30,52871038,92
32-31,52874944,-780
32-32,52878850,-340
32-1,52882731,592
32-2,52886637,344
32-3,52890543,-611
32-4,52894449,-555
32-5,52898355,396
32-6,52902261,525
32-7,52906167,-381
32-8,52910073,-683
32-9,52913979,168
32-10,52917885,666
32-11,52921791,-85
32-12,52925697,-716
32-13,52929603,-57
32-14,52933509,704
32-15,52937415,175
32-16,52941321,-698
32-17,52945227,-360
32-18,52949133,573
32-19,52953039,439
32-20,52956945,-501
32-21,52960851,-539
32-22,52964757,395
32-23,52968663,615
32-24,52972569,-281
32-25,52976475,-685
32-26,52980381,148
32-27,52984287,732
32-28,52988193,5
32-29,52992099,-711
32-30,52996005,-127
32-31,52999911,674
32-32,53003817,230
32-1,53007820,-686
32-2,53011726,-444
32-3,53015632,517
32-4,53019538,451
32-5,53023444,-533
32-6,53027350,-664
32-7,53031256,276
32-8,53035162,593
32-9,53039068,-246
32-10,53042974,-695
32-11,53046880,73
32-12,53050786,705
32-13,53054692,74
32-14,53058598,-683
32-15,53062504,-210
32-16,53066410,618
32-17,53070316,280
32-18,53074222,-626
32-19,53078128,-470
32-20,53082034,463
32-21,53085940,487
32-22,53089846,-456
32-23,53093752,-675
32-24,53097658,220
32-25,53101564,604
32-26,53105470,-235
32-27,53109376,-801
32-28,53113282,-73
32-29,53117188,655
32-30,53121094,74
32-31,53125000,-747
32-32,53128906,-313
32-1,53132726,572
32-2,53136632,299
32-3,53140538,-635
32-4,53144444,-546
32-5,53148350,409
32-6,53152256,521
32-7,53156162,-402
32-8,53160068,-700
32-9,53163974,166
32-10,53167880,634
32-11,53171786,-148
32-12,53175692,-760
32-13,53179598,-101
32-14,53183504,642
32-15,53187410,139
32-16,53191316,-688
32-17,53195222,-323
32-18,53199128,590
32-19,53203034,404
32-20,53206940,-536
32-21,53210846,-529
32-22,53214752,417
32-23,53218658,629
32-24,53222564,-257
32-25,53226470,-656
32-26,53230376,140
32-27,53234282,683
32-28,53238188,-19
32-29,53242094,-683
32-30,53246000,-88
32-31,53249906,698
32-32,53253812,253
32-1,53257724,-613
32-2,53261630,-342
32-3,53265536,575
32-4,53269442,471
32-5,53273348,-488
32-6,53277254,-580
32-7,53281160,369
32-8,53285066,659
32-9,53288972,-220
32-10,53292878,-682
32-11,53296784,94
32-12,53300690,711
32-13,53304596,51
32-14,53308502,-711
32-15,53312408,-214
32-16,53316314,624
32-17,53320220,266
32-18,53324126,-637
32-19,53328032,-435
32-20,53331938,552
32-21,53335844,567
32-22,53339750,-426
32-23,53343656,-631
32-24,53347562,299
32-25,53351468,655
32-26,53355374,-195
32-27,53359280,-716
32-28,53363186,39
32-29,53367092,731
32-30,53370998,98
32-31,53374904,-733
32-32,53378810,-286
32-1,53382722,590
32-2,53386628,290
32-3,53390534,-651
32-4,53394440,-557
32-5,53398346,385
32-6,53402252,472
32-7,53406158,-458
32-8,53410064,-734
32-9,53413970,141
32-10,53417876,601
32-11,53421782,-185
32-12,53425688,-808
32-13,53429594,-125
32-14,53433500,633
32-15,53437406,82
32-16,53441312,-755
32-17,53445218,-355
32-18,53449124,563
32-19,53453030,370
32-20,53456936,-565
32-21,53460842,-547
32-22,53464748,417
32-23,53468654,621
32-24,53472560,-306
32-25,53476466,-729
32-26,53480372,93
32-27,53484278,669
32-28,53488184,-28
32-29,53492090,-678
32-30,53495996,-74
32-31,53499902,686
32-32,53503808,197
32-1,53507750,-705
32-2,53511656,-420
32-3,53515562,529
32-4,53519468,433
32-5,53523374,-521
32-6,53527280,-599
32-7,53531186,346
32-8,53535092,605
32-9,53538998,-283
32-10,53542904,-710
32-11,53546810,100
32-12,53550716,712
32-13,53554622,29
32-14,53558528,-713
32-15,53562434,-158
32-16,53566340,696
32-17,53570246,302
32-18,53574152,-620
32-19,53578058,-405
32-20,53581964,536
32-21,53585870,505
32-22,53589776,-431
32-23,53593682,-594
32-24,53597588,309
32-25,53601494,649
32-26,53605400,-211
32-27,53609306,-739
32-28,53613212,6
32-29,53617118,693
32-30,53621024,74
32-31,53624930,-750
32-32,53628836,-309
32-1,53632717,576
32-2,53636623,306
32-3,53640529,-632
32-4,53644435,-535
32-5,53648341,447
32-6,53652247,545
32-7,53656153,-391
32-8,53660059,-617
32-9,53663965,292
32-10,53667871,708
32-11,53671777,-117
32-12,53675683,-711
32-13,53679589,-19
32-14,53683495,708
32-15,53687401,172
32-16,53691307,-644
32-17,53695213,-254
32-18,53699119,663
32-19,53703025,460
32-20,53706931,-506
32-21,53710837,-490
32-22,53714743,462
32-23,53718649,612
32-24,53722555,-307
32-25,53726461,-632
32-26,53730367,233
32-27,53734273,742
32-28,53738179,-17
32-29,53742085,-674
32-30,53745991,-65
32-31,53749897,698
32-32,53753803,215
32-1,53757715,-676
32-2,53761621,-376
32-3,53765527,560
32-4,53769433,454
32-5,53773339,-466
32-6,53777245,-525
32-7,53781151,396
32-8,53785057,655
32-9,53788963,-211
32-10,53792869,-628
32-11,53796775,175
32-12,53800681,741
32-13,53804587,17
32-14,53808493,-703
32-15,53812399,-133
32-16,53816305,684
32-17,53820211,272
32-18,53824117,-628
32-19,53828023,-408
32-20,53831929,531
32-21,53835835,510
32-22,53839741,-443
32-23,53843647,-626
32-24,53847553,286
32-25,53851459,623
32-26,53855365,-229
32-27,53859271,-717
32-28,53863177,34
32-29,53867083,667
32-30,53870989,23
32-31,53874895,-749
32-32,53878801,-265
32-1,53882712,589
32-2,53886618,262
32-3,53890524,-666
32-4,53894430,-537
32-5,53898336,408
32-6,53902242,469
32-7,53906148,-449
32-8,53910054,-661
32-9,53913960,235
32-10,53917866,636
32-11,53921772,-172
32-12,53925678,-746
32-13,53929584,-62
32-14,53933490,646
32-15,53937396,88
32-16,53941302,-742
32-17,53945208,-348
32-18,53949114,574
32-19,53953020,365
32-20,53956926,-586
32-21,53960832,-545
32-22,53964738,404
32-23,53968644,547
32-24,53972550,-370
32-25,53976456,-697
32-26,53980362,143
32-27,53984268,617
32-28,53988174,-146
32-29,53992080,-770
32-30,53995986,-112
32-31,53999892,674
32-32,54003798,194
32-1,54007710,-667
32-2,54011616,-348
32-3,54015522,554
32-4,54019428,407
32-5,54023334,-537
32-6,54027240,-617
32-7,54031146,294
32-8,54035052,528
32-9,54038958,-371
32-10,54042864,-768
32-11,54046770,70
32-12,54050676,642
32-13,54054582,-77
32-14,54058488,-782
32-15,54062394,-201
32-16,54066300,620
32-17,54070206,221
32-18,54074112,-663
32-19,54078018,-442
32-20,54081924,490
32-21,54085830,452
32-22,54089736,-487
32-23,54093642,-617
32-24,54097548,315
32-25,54101454,635
32-26,54105360,-235
32-27,54109266,-737
32-28,54113172,21
32-29,54117078,654
32-30,54120984,-11
32-31,54124890,-788
32-32,54128796,-269
32-1,54132707,603
32-2,54136613,263
32-3,54140519,-660
32-4,54144425,-507
32-5,54148331,456
32-6,54152237,511
32-7,54156143,-429
32-8,54160049,-662
32-9,54163955,211
32-10,54167861,585
32-11,54171767,-226
32-12,54175673,-761
32-13,54179579,-64
32-14,54183485,599
32-15,54187391,14
32-16,54191297,-786
32-17,54195203,-346
32-18,54199109,580
32-19,54203015,355
32-20,54206921,-579
32-21,54210827,-516
32-22,54214733,422
32-23,54218639,545
32-24,54222545,-371
32-25,54226451,-685
32-26,54230357,177
32-27,54234263,659
32-28,54238169,-97
32-29,54242075,-697
32-30,54245981,-45
32-31,54249887,702
32-32,54253793,187
32-1,54257736,-703
32-2,54261642,-384
32-3,54265548,537
32-4,54269454,366
32-5,54273360,-581
32-6,54277266,-590
32-7,54281172,360
32-8,54285078,572
32-9,54288984,-330
32-10,54292890,-703
32-11,54296796,151
32-12,54300702,717
32-13,54304608,-9
32-14,54308514,-720
32-15,54312420,-138
32-16,54316326,699
32-17,54320232,275
32-18,54324138,-640
32-19,54328044,-389
32-20,54331950,554
32-21,54335856,473
32-22,54339762,-470
32-23,54343668,-566
32-24,54347574,376
32-25,54351480,682
32-26,54355386,-193
32-27,54359292,-685
32-28,54363198,70
32-29,54367104,685
32-30,54371010,7
32-31,54374916,-757
32-32,54378822,-241
32-1,54382703,614
32-2,54386609,280
32-3,54390515,-628
32-4,54394421,-463
32-5,54398327,496
32-6,54402233,508
32-7,54406139,-467
32-8,54410045,-672
32-9,54413951,244
32-10,54417857,601
32-11,54421763,-253
32-12,54425669,-798
32-13,54429575,-77
32-14,54433481,614
32-15,54437387,50
32-16,54441293,-737
32-17,54445199,-296
32-18,54449105,616
32-19,54453011,375
32-20,54456917,-551
32-21,54460823,-462
32-22,54464729,478
32-23,54468635,563
32-24,54472541,-367
32-25,54476447,-649
32-26,54480353,227
32-27,54484259,692
32-28,54488165,-87
32-29,54492071,-683
32-30,54495977,-2
32-31,54499883,747
32-32,54503789,210
32-1,54507700,-673
32-2,54511606,-336
32-3,54515512,576
32-4,54519418,387
32-5,54523324,-569
32-6,54527230,-574
32-7,54531136,378
32-8,54535042,565
32-9,54538948,-346
32-10,54542854,-699
32-11,54546760,141
32-12,54550666,662
32-13,54554572,-91
32-14,54558478,-788
32-15,54562384,-188
32-16,54566290,621
32-17,54570196,189
32-18,54574102,-674
32-19,54578008,-392
32-20,54581914,537
32-21,54585820,443
32-22,54589726,-497
32-23,54593632,-599
32-24,54597538,286
32-25,54601444,538
32-26,54605350,-322
32-27,54609256,-764
32-28,54613162,29
32-29,54617068,667
32-30,54620974,9
32-31,54624880,-741
32-32,54628786,-216
32-1,54632698,633
32-2,54636604,285
32-3,54640510,-609
32-4,54644416,-424
32-5,54648322,511
32-6,54652228,492
32-7,54656134,-467
32-8,54660040,-642
32-9,54663946,280
32-10,54667852,653
32-11,54671758,-171
32-12,54675664,-687
32-13,54679570,41
32-14,54683476,700
32-15,54687382,83
32-16,54691288,-720
32-17,54695194,-275
32-18,54699100,618
32-19,54703006,356
32-20,54706912,-585
32-21,54710818,-508
32-22,54714724,433
32-23,54718630,523
32-24,54722536,-403
32-25,54726442,-666
32-26,54730348,221
32-27,54734254,672
32-28,54738160,-112
32-29,54742066,-714
32-30,54745972,-67
32-31,54749878,670
32-32,54753784,165
32-1,54757696,-673
32-2,54761602,-307
32-3,54765508,599
32-4,54769414,400
32-5,54773320,-520
32-6,54777226,-481
32-7,54781132,473
32-8,54785038,639
32-9,54788944,-281
32-10,54792850,-631
32-11,54796756,219
32-12,54800662,738
32-13,54804568,-11
32-14,54808474,-683
32-15,54812380,-79
32-16,54816286,689
32-17,54820192,198
32-18,54824098,-693
32-19,54828004,-381
32-20,54831910,566
32-21,54835816,438
32-22,54839722,-531
32-23,54843628,-619
32-24,54847534,296
32-25,54851440,553
32-26,54855346,-316
32-27,54859252,-739
32-28,54863158,64
32-29,54867064,682
32-30,54870970,14
32-31,54874876,-748
32-32,54878782,-225
32-1,54882693,626
32-2,54886599,242
32-3,54890505,-669
32-4,54894411,-447
32-5,54898317,515
32-6,54902223,503
32-7,54906129,-452
32-8,54910035,-643
32-9,54913941,260
32-10,54917847,604
32-11,54921753,-268
32-12,54925659,-779
32-13,54929565,1
32-14,54933471,661
32-15,54937377,21
32-16,54941283,-749
32-17,54945189,-255
32-18,54949095,621
32-19,54953001,304
32-20,54956907,-642
32-21,54960813,-526
32-22,54964719,425
32-23,54968625,474
32-24,54972531,-482
32-25,54976437,-725
32-26,54980343,174
32-27,54984249,600
32-28,54988155,-185
32-29,54992061,-745
32-30,54995967,-54
32-31,54999873,681
32-32,55003779,143
32-1,55007691,-698
32-2,55011597,-310
32-3,55015503,617
32-4,55019409,430
32-5,55023315,-520
32-6,55027221,-527
32-7,55031127,402
32-8,55035033,568
32-9,55038939,-354
32-10,55042845,-702
32-11,55046751,147
32-12,55050657,663
32-13,55054563,-83
32-14,55058469,-740
32-15,55062375,-126
32-16,55066281,644
32-17,55070187,177
32-18,55074093,-688
32-19,55077999,-383
32-20,55081905,559
32-21,55085811,442
32-22,55089717,-527
32-23,55093623,-599
32-24,55097529,340
32-25,55101435,589
32-26,55105341,-306
32-27,55109247,-747
32-28,55113153,78
32-29,55117059,707
32-30,55120965,21
32-31,55124871,-694
32-32,55128777,-139
32-1,55132689,665
32-2,55136595,279
32-3,55140501,-613
32-4,55144407,-423
32-5,55148313,508
32-6,55152219,472
32-7,55156125,-497
32-8,55160031,-664
32-9,55163937,270
32-10,55167843,633
32-11,55171749,-227
32-12,55175655,-753
32-13,55179561,-6
32-14,55183467,636
32-15,55187373,5
32-16,55191279,-750
32-17,55195185,-250
32-18,55199091,625
32-19,55202997,301
32-20,55206903,-637
32-21,55210809,-523
32-22,55214715,403
32-23,55218621,456
32-24,55222527,-475
32-25,55226433,-705
32-26,55230339,190
32-27,55234245,591
32-28,55238151,-205
32-29,55242057,-743
32-30,55245963,-41
32-31,55249869,647
32-32,55253775,70
32-1,55257686,-749
32-2,55261592,-346
32-3,55265498,562
32-4,55269404,347
32-5,55273310,-599
32-6,55277216,-568
32-7,55281122,377
32-8,55285028,541
32-9,55288934,-367
32-10,55292840,-722
32-11,55296746,103
32-12,55300652,596
32-13,55304558,-149
32-14,55308464,-767
32-15,55312370,-124
32-16,55316276,645
32-17,55320182,181
32-18,55324088,-667
32-19,55327994,-360
32-20,55331900,550
32-21,55335806,395
32-22,55339712,-566
32-23,55343618,-601
32-24,55347524,348
32-25,55351430,580
32-26,55355336,-316
32-27,55359242,-752
32-28,55363148,58
32-29,55367054,693
32-30,55370960,32
32-31,55374866,-689
32-32,55378772,-133
32-1,55382684,665
32-2,55386590,219
32-3,55390496,-688
32-4,55394402,-453
32-5,55398308,487
32-6,55402214,458
32-7,55406120,-484
32-8,55410026,-652
32-9,55413932,255
32-10,55417838,602
32-11,55421744,-232
32-12,55425650,-717
32-13,55429556,56
32-14,55433462,705
32-15,55437368,46
32-16,55441274,-722
32-17,55445180,-217
32-18,55449086,635
32-19,55452992,297
32-20,55456898,-621
32-21,55460804,-467
32-22,55464710,478
32-23,55468616,503
32-24,55472522,-429
32-25,55476428,-641
32-26,55480334,240
32-27,55484240,629
32-28,55488146,-185
32-29,55492052,-730
32-30,55495958,-13
32-31,55499864,663
32-32,55503770,72
32-1,55507681,-721
32-2,55511587,-306
32-3,55515493,571
32-4,55519399,337
32-5,55523305,-593
32-6,55527211,-549
32-7,55531117,371
32-8,55535023,492
32-9,55538929,-404
32-10,55542835,-711
32-11,55546741,128
32-12,55550647,620
32-13,55554553,-132
32-14,55558459,-759
32-15,55562365,-94
32-16,55566271,679
32-17,55570177,169
32-18,55574083,-712
32-19,55577989,-392
32-20,55581895,542
32-21,55585801,400
32-22,55589707,-558
32-23,55593613,-608
32-24,55597519,323
32-25,55601425,546
32-26,55605331,-348
32-27,55609237,-744
32-28,55613143,98
32-29,55617049,675
32-30,55620955,-60
32-31,55624861,-773
32-32,55628767,-186
32-1,55632679,638
32-2,55636585,243
32-3,55640491,-620
32-4,55644397,-360
32-5,55648303,576
32-6,55652209,515
32-7,55656115,-437
32-8,55660021,-579
32-9,55663927,349
32-10,55667833,672
32-11,55671739,-188
32-12,55675645,-643
32-13,55679551,131
32-14,55683457,727
32-15,55687363,61
32-16,55691269,-716
32-17,55695175,-249
32-18,55699081,616
32-19,55702987,315
32-20,55706893,-611
32-21,55710799,-484
32-22,55714705,464
32-23,55718611,499
32-24,55722517,-455
32-25,55726423,-663
32-26,55730329,256
32-27,55734235,650
32-28,55738141,-171
32-29,55742047,-710
32-30,55745953,13
32-31,55749859,711
32-32,55753765,126
32-1,55757646,-697
32-2,55761552,-265
32-3,55765458,645
32-4,55769364,399
32-5,55773270,-535
32-6,55777176,-473
32-7,55781082,466
32-8,55784988,587
32-9,55788894,-329
32-10,55792800,-623
32-11,55796706,242
32-12,55800612,721
32-13,55804518,-49
32-14,55808424,-687
32-15,55812330,-35
32-16,55816236,724
32-17,55820142,200
32-18,55824048,-656
32-19,55827954,-311
32-20,55831860,595
32-21,55835766,434
32-22,55839672,-507
32-23,55843578,-539
32-24,55847484,388
32-25,55851390,568
32-26,55855296,-364
32-27,55859202,-759
32-28,55863108,85
32-29,55867014,650
32-30,55870920,-92
32-31,55874826,-786
32-32,55878732,-166
32-1,55882674,660
32-2,55886580,243
32-3,55890486,-646
32-4,55894392,-406
32-5,55898298,527
32-6,55902204,444
32-7,55906110,-511
32-8,55910016,-612
32-9,55913922,318
32-10,55917828,618
32-11,55921734,-233
32-12,55925640,-683
32-13,55929546,83
32-14,55933452,693
32-15,55937358,43
32-16,55941264,-708
32-17,55945170,-206
32-18,55949076,636
32-19,55952982,271
32-20,55956888,-647
32-21,55960794,-486
32-22,55964700,429
32-23,55968606,441
32-24,55972512,-487
32-25,55976418,-676
32-26,55980324,241
32-27,55984230,628
32-28,55988136,-171
32-29,55992042,-681
32-30,55995948,8
32-31,55999854,655
32-32,56003760,64
32-1,56007672,-730
32-2,56011578,-285
32-3,56015484,605
32-4,56019390,320
32-5,56023296,-627
32-6,56027202,-545
32-7,56031108,379
32-8,56035014,462
32-9,56038920,-442
32-10,56042826,-685
32-11,56046732,218
32-12,56050638,673
32-13,56054544,-134
32-14,56058450,-755
32-15,56062356,-100
32-16,56066262,632
32-17,56070168,108
32-18,56074074,-729
32-19,56077980,-373
32-20,56081886,527
32-21,56085792,348
32-22,56089698,-588
32-23,56093604,-580
32-24,56097510,386
32-25,56101416,580
32-26,56105322,-324
32-27,56109228,-681
32-28,56113134,163
32-29,56117040,719
32-30,56120946,-9
32-31,56124852,-693
32-32,56128758,-77
32-1,56132670,712
32-2,56136576,243
32-3,56140482,-643
32-4,56144388,-389
32-5,56148294,516
32-6,56152200,429
32-7,56156106,-518
32-8,56160012,-627
32-9,56163918,311
32-10,56167824,588
32-11,56171730,-310
32-12,56175636,-738
32-13,56179542,87
32-14,56183448,694
32-15,56187354,19
32-16,56191260,-712
32-17,56195166,-187
32-18,56199072,666
32-19,56202978,323
32-20,56206884,-598
32-21,56210790,-427
32-22,56214696,536
32-23,56218602,536
32-24,56222508,-440
32-25,56226414,-645
32-26,56230320,256
32-27,56234226,616
32-28,56238132,-208
32-29,56242038,-706
32-30,56245944,41
32-31,56249850,715
32-32,56253756,127
32-1,56257667,-640
32-2,56261573,-183
32-3,56265479,675
32-4,56269385,381
32-5,56273291,-543
32-6,56277197,-456
32-7,56281103,486
32-8,56285009,578
32-9,56288915,-354
32-10,56292821,-612
32-11,56296727,268
32-12,56300633,705
32-13,56304539,-73
32-14,56308445,-664
32-15,56312351,-1
32-16,56316257,714
32-17,56320163,165
32-18,56324069,-678
32-19,56327975,-307
32-20,56331881,607
32-21,56335787,410
32-22,56339693,-556
32-23,56343599,-554
32-24,56347505,399
32-25,56351411,577
32-26,56355317,-330
32-27,56359223,-672
32-28,56363129,202
32-29,56367035,753
32-30,56370941,-6
32-31,56374847,-697
32-32,56378753,-87
32-1,56382665,704
32-2,56386571,251
32-3,56390477,-622
32-4,56394383,-336
32-5,56398289,585
32-6,56402195,446
32-7,56406101,-522
32-8,56410007,-584
32-9,56413913,357
32-10,56417819,602
32-11,56421725,-293
32-12,56425631,-719
32-13,56429537,96
32-14,56433443,695
32-15,56437349,-4
32-16,56441255,-735
32-17,56445161,-161
32-18,56449067,684
32-19,56452973,255
32-20,56456879,-687
32-21,56460785,-463
32-22,56464691,493
32-23,56468597,463
32-24,56472503,-472
32-25,56476409,-629
32-26,56480315,280
32-27,56484221,633
32-28,56488127,-215
32-29,56492033,-734
32-30,56495939,9
32-31,56499845,658
32-32,56503751,28
32-1,56507662,-770
32-2,56511568,-327
32-3,56515474,556
32-4,56519380,304
32-5,56523286,-603
32-6,56527192,-485
32-7,56531098,474
32-8,56535004,542
32-9,56538910,-412
32-10,56542816,-668
32-11,56546722,235
32-12,56550628,656
32-13,56554534,-195
32-14,56558440,-794
32-15,56562346,-70
32-16,56566252,662
32-17,56570158,101
32-18,56574064,-714
32-19,56577970,-304
32-20,56581876,620
32-21,56585782,409
32-22,56589688,-553
32-23,56593594,-528
32-24,56597500,427
32-25,56601406,568
32-26,56605312,-374
32-27,56609218,-714
32-28,56613124,170
32-29,56617030,715
32-30,56620936,-35
32-31,56624842,-718
32-32,56628748,-109
32-1,56632660,661
32-2,56636566,152
32-3,56640472,-746
32-4,56644378,-408
32-5,56648284,554
32-6,56652190,409
32-7,56656096,-560
32-8,56660002,-605
32-9,56663908,357
32-10,56667814,612
32-11,56671720,-280
32-12,56675626,-705
32-13,56679532,97
32-14,56683438,660
32-15,56687344,-65
32-16,56691250,-776
32-17,56695156,-184
32-18,56699062,650
32-19,56702968,245
32-20,56706874,-659
32-21,56710780,-437
32-22,56714686,510
32-23,56718592,460
32-24,56722498,-497
32-25,56726404,-630
32-26,56730310,292
32-27,56734216,606
32-28,56738122,-262
32-29,56742028,-768
32-30,56745934,-5
32-31,56749840,650
32-32,56753746,3
32-1,56757658,-776
32-2,56761564,-281
32-3,56765470,596
32-4,56769376,282
32-5,56773282,-659
32-6,56777188,-517
32-7,56781094,464
32-8,56785000,500
32-9,56788906,-455
32-10,56792812,-666
32-11,56796718,223
32-12,56800624,628
32-13,56804530,-161
32-14,56808436,-727
32-15,56812342,-38
32-16,56816248,674
32-17,56820154,110
32-18,56824060,-715
32-19,56827966,-317
32-20,56831872,573
32-21,56835778,348
32-22,56839684,-588
32-23,56843590,-544
32-24,56847496,412
32-25,56851402,551
32-26,56855308,-371
32-27,56859214,-687
32-28,56863120,163
32-29,56867026,662
32-30,56870932,-99
32-31,56874838,-738
32-32,56878744,-75
32-1,56882655,683
32-2,56886561,165
32-3,56890467,-681
32-4,56894373,-336
32-5,56898279,580
32-6,56902185,427
32-7,56906091,-524
32-8,56909997,-581
32-9,56913903,340
32-10,56917809,579
32-11,56921715,-303
32-12,56925621,-708
32-13,56929527,115
32-14,56933433,692
32-15,56937339,-16
32-16,56941245,-732
32-17,56945151,-160
32-18,56949057,675
32-19,56952963,260
32-20,56956869,-663
32-21,56960775,-425
32-22,56964681,538
32-23,56968587,481
32-24,56972493,-490
32-25,56976399,-641
32-26,56980305,271
32-27,56984211,588
32-28,56988117,-259
32-29,56992023,-724
32-30,56995929,48
32-31,56999835,677
32-32,57003741,17
32-1,57007653,-760
32-2,57011559,-254
32-3,57015465,617
32-4,57019371,289
32-5,57023277,-636
32-6,57027183,-484
32-7,57031089,497
32-8,57034995,554
32-9,57038901,-425
32-10,57042807,-690
32-11,57046713,200
32-12,57050619,602
32-13,57054525,-227
32-14,57058431,-781
32-15,57062337,-46
32-16,57066243,671
32-17,57070149,81
32-18,57074055,-755
32-19,57077961,-321
32-20,57081867,599
32-21,57085773,343
32-22,57089679,-624
32-23,57093585,-574
32-24,57097491,394
32-25,57101397,551
32-26,57105303,-378
32-27,57109209,-701
32-28,57113115,198
32-29,57117021,717
32-30,57120927,-82
32-31,57124833,-733
32-32,57128739,-59
32-1,57132651,720
32-2,57136557,216
32-3,57140463,-646
32-4,57144369,-317
32-5,57148275,589
32-6,57152181,401
32-7,57156087,-568
32-8,57159993,-578
32-9,57163899,403
32-10,57167805,626
32-11,57171711,-287
32-12,57175617,-655
32-13,57179523,204
32-14,57183429,747
32-15,57187335,-2
32-16,57191241,-703
32-17,57195147,-113
32-18,57199053,683
32-19,57202959,221
32-20,57206865,-701
32-21,57210771,-453
32-22,57214677,505
32-23,57218583,454
32-24,57222489,-492
32-25,57226395,-602
32-26,57230301,332
32-27,57234207,634
32-28,57238113,-221
32-29,57242019,-661
32-30,57245925,108
32-31,57249831,669
32-32,57253737,-22
32-1,57257953,-734
32-2,57261859,-199
32-3,57265765,636
32-4,57269671,296
32-5,57273577,-606
32-6,57277483,-449
32-7,57281389,501
32-8,57285295,529
32-9,57289201,-413
32-10,57293107,-594
32-11,57297013,326
32-12,57300919,684
32-13,57304825,-172
32-14,57308731,-720
32-15,57312637,5
32-16,57316543,686
32-17,57320449,90
32-18,57324355,-692
32-19,57328261,-233
32-20,57332167,662
32-21,57336073,395
32-22,57339979,-551
32-23,57343885,-465
32-24,57347791,485
32-25,57351697,576
32-26,57355603,-350
32-27,57359509,-649
32-28,57363415,219
32-29,57367321,696
32-30,57371227,-115
32-31,57375133,-756
32-32,57379039,-73
32-1,57382945,689
32-2,57386851,176
32-3,57390757,-671
32-4,57394663,-319
32-5,57398569,594
32-6,57402475,409
32-7,57406381,-515
32-8,57410287,-488
32-9,57414193,450
32-10,57418099,621
32-11,57422005,-307
32-12,57425911,-687
32-13,57429817,173
32-14,57433723,713
32-15,57437629,-53
32-16,57441535,-742
32-17,57445441,-128
32-18,57449347,669
32-19,57453253,210
32-20,57457159,-675
32-21,57461065,-385
32-22,57464971,556
32-23,57468877,457
32-24,57472783,-499
32-25,57476689,-579
32-26,57480595,367
32-27,57484501,636
32-28,57488407,-237
32-29,57492313,-643
32-30,57496219,168
32-31,57500125,758
32-32,57504031,79
32-1,57507644,-669
32-2,57511550,-171
32-3,57515456,655
32-4,57519362,283
32-5,57523268,-645
32-6,57527174,-470
32-7,57531080,470
32-8,57534986,472
32-9,57538892,-467
32-10,57542798,-654
32-11,57546704,259
32-12,57550610,634
32-13,57554516,-201
32-14,57558422,-698
32-15,57562328,56
32-16,57566234,704
32-17,57570140,91
32-18,57574046,-686
32-19,57577952,-235
32-20,57581858,640
32-21,57585764,352
32-22,57589670,-588
32-23,57593576,-489
32-24,57597482,461
32-25,57601388,548
32-26,57605294,-387
32-27,57609200,-661
32-28,57613106,234
32-29,57617012,690
32-30,57620918,-130
32-31,57624824,-745
32-32,57628730,-49
32-1,57632641,673
32-2,57636547,117
32-3,57640453,-693
32-4,57644359,-290
32-5,57648265,617
32-6,57652171,400
32-7,57656077,-576
32-8,57659983,-578
32-9,57663889,389
32-10,57667795,581
32-11,57671701,-352
32-12,57675607,-725
32-13,57679513,128
32-14,57683419,645
32-15,57687325,-119
32-16,57691231,-769
32-17,57695137,-117
32-18,57699043,703
32-19,57702949,269
32-20,57706855,-602
32-21,57710761,-317
32-22,57714667,609
32-23,57718573,483
32-24,57722479,-492
32-25,57726385,-577
32-26,57730291,367
32-27,57734197,616
32-28,57738103,-297
32-29,57742009,-713
32-30,57745915,132
32-31,57749821,714
32-32,57753727,-11
32-1,57757639,-745
32-2,57761545,-214
32-3,57765451,610
32-4,57769357,266
32-5,57773263,-620
32-6,57777169,-437
32-7,57781075,502
32-8,57784981,492
32-9,57788887,-471
32-10,57792793,-655
32-11,57796699,261
32-12,57800605,627
32-13,57804511,-201
32-14,57808417,-723
32-15,57812323,-6
32-16,57816229,671
32-17,57820135,84
32-18,57824041,-698
32-19,57827947,-229
32-20,57831853,650
32-21,57835759,342
32-22,57839665,-593
32-23,57843571,-483
32-24,57847477,457
32-25,57851383,534
32-26,57855289,-389
32-27,57859195,-641
32-28,57863101,244
32-29,57867007,671
32-30,57870913,-153
32-31,57874819,-755
32-32,57878725,-70
32-1,57882697,637
32-2,57886603,76
32-3,57890509,-756
32-4,57894415,-357
32-5,57898321,574
32-6,57902227,373
32-7,57906133,-567
32-8,57910039,-542
32-9,57913945,377
32-10,57917851,520
32-11,57921757,-400
32-12,57925663,-730
32-13,57929569,147
32-14,57933475,660
32-15,57937381,-96
32-16,57941287,-737
32-17,57945193,-116
32-18,57949099,650
32-19,57953005,175
32-20,57956911,-705
32-21,57960817,-400
32-22,57964723,553
32-23,57968629,435
32-24,57972535,-540
32-25,57976441,-612
32-26,57980347,348
32-27,57984253,598
32-28,57988159,-306
32-29,57992065,-721
32-30,57995971,89
32-31,57999877,670
32-32,58003783,-29
32-1,58007689,-760
32-2,58011595,-188
32-3,58015501,665
32-4,58019407,256
32-5,58023313,-682
32-6,58027219,-466
32-7,58031125,501
32-8,58035031,466
32-9,58038937,-483
32-10,58042843,-615
32-11,58046749,312
32-12,58050655,653
32-13,58054561,-212
32-14,58058467,-738
32-15,58062373,25
32-16,58066279,700
32-17,58070185,76
32-18,58074091,-704
32-19,58077997,-233
32-20,58081903,628
32-21,58085809,304
32-22,58089715,-642
32-23,58093621,-510
32-24,58097527,482
32-25,58101433,562
32-26,58105339,-395
32-27,58109245,-641
32-28,58113151,259
32-29,58117057,679
32-30,58120963,-149
32-31,58124869,-757
32-32,58128775,-82
32-1,58132632,617
32-2,58136538,58
32-3,58140444,-752
32-4,58144350,-367
32-5,58148256,526
32-6,58152162,316
32-7,58156068,-618
32-8,58159974,-570
32-9,58163880,388
32-10,58167786,542
32-11,58171692,-367
32-12,58175598,-694
32-13,58179504,149
32-14,58183410,646
32-15,58187316,-106
32-16,58191222,-762
32-17,58195128,-145
32-18,58199034,639
32-19,58202940,182
32-20,58206846,-681
32-21,58210752,-374
32-22,58214658,560
32-23,58218564,428
32-24,58222470,-527
32-25,58226376,-582
32-26,58230282,353
32-27,58234188,578
32-28,58238094,-320
32-29,58242000,-722
32-30,58245906,98
32-31,58249812,665
32-32,58253718,-47
32-1,58257629,-757
32-2,58261535,-185
32-3,58265441,638
32-4,58269347,248
32-5,58273253,-634
32-6,58277159,-416
32-7,58281065,536
32-8,58284971,499
32-9,58288877,-503
32-10,58292783,-684
32-11,58296689,237
32-12,58300595,568
32-13,58304501,-269
32-14,58308407,-756
32-15,58312313,-17
32-16,58316219,604
32-17,58320125,-43
32-18,58324031,-788
32-19,58327937,-275
32-20,58331843,585
32-21,58335749,267
32-22,58339655,-652
32-23,58343561,-510
32-24,58347467,445
32-25,58351373,493
32-26,58355279,-428
32-27,58359185,-636
32-28,58363091,261
32-29,58366997,670
32-30,58370903,-161
32-31,58374809,-754
32-32,58378715,-55
32-1,58382627,642
32-2,58386533,55
32-3,58390439,-741
32-4,58394345,-295
32-5,58398251,599
32-6,58402157,353
32-7,58406063,-579
32-8,58409969,-518
32-9,58413875,434
32-10,58417781,571
32-11,58421687,-356
32-12,58425593,-675
32-13,58429499,179
32-14,58433405,639
32-15,58437311,-143
32-16,58441217,-759
32-17,58445123,-111
32-18,58449029,647
32-19,58452935,169
32-20,58456841,-683
32-21,58460747,-377
32-22,58464653,547
32-23,58468559,425
32-24,58472465,-528
32-25,58476371,-574
32-26,58480277,374
32-27,58484183,575
32-28,58488089,-338
32-29,58491995,-693
32-30,58495901,152
32-31,58499807,672
32-32,58503713,-77
32-1,58507747,-783
32-2,58511653,-227
32-3,58515559,577
32-4,58519465,186
32-5,58523371,-684
32-6,58527277,-429
32-7,58531183,510
32-8,58535089,432
32-9,58538995,-530
32-10,58542901,-666
32-11,58546807,248
32-12,58550713,560
32-13,58554619,-317
32-14,58558525,-822
32-15,58562431,-53
32-16,58566337,598
32-17,58570243,-38
32-18,58574149,-802
32-19,58578055,-302
32-20,58581961,584
32-21,58585867,251
32-22,58589773,-691
32-23,58593679,-524
32-24,58597585,432
32-25,58601491,431
32-26,58605397,-557
32-27,58609303,-799
32-28,58613209,121
32-29,58617115,540
32-30,58621021,-315
32-31,58624927,-903
32-32,58628833,-163
32-1,58632622,584
32-2,58636528,16
32-3,58640434,-817
32-4,58644340,-383
32-5,58648246,555
32-6,58652152,316
32-7,58656058,-630
32-8,58659964,-541
32-9,58663870,432
32-10,58667776,537
32-11,58671682,-437
32-12,58675588,-754
32-13,58679494,142
32-14,58683400,611
32-15,58687306,-190
32-16,58691212,-812
32-17,58695118,-144
32-18,58699024,637
32-19,58702930,143
32-20,58706836,-729
32-21,58710742,-382
32-22,58714648,562
32-23,58718554,396
32-24,58722460,-568
32-25,58726366,-571
32-26,58730272,425
32-27,58734178,646
32-28,58738084,-288
32-29,58741990,-671
32-30,58745896,191
32-31,58749802,744
32-32,58753708,-21
32-1,58757742,-755
32-2,58761648,-144
32-3,58765554,718
32-4,58769460,283
32-5,58773366,-633
32-6,58777272,-357
32-7,58781178,595
32-8,58785084,508
32-9,58788990,-455
32-10,58792896,-579
32-11,58796802,365
32-12,58800708,679
32-13,58804614,-233
32-14,58808520,-727
32-15,58812426,93
32-16,58816332,735
32-17,58820238,44
32-18,58824144,-720
32-19,58828050,-184
32-20,58831956,690
32-21,58835862,334
32-22,58839768,-607
32-23,58843674,-430
32-24,58847580,553
32-25,58851486,565
32-26,58855392,-427
32-27,58859298,-646
32-28,58863204,284
32-29,58867110,676
32-30,58871016,-192
32-31,58874922,-769
32-32,58878828,-37
32-1,58882617,664
32-2,58886523,75
32-3,58890429,-749
32-4,58894335,-327
32-5,58898241,576
32-6,58902147,295
32-7,58906053,-667
32-8,58909959,-560
32-9,58913865,433
32-10,58917771,550
32-11,58921677,-405
32-12,58925583,-711
32-13,58929489,180
32-14,58933395,647
32-15,58937301,-169
32-16,58941207,-796
32-17,58945113,-93
32-18,58949019,676
32-19,58952925,120
32-20,58956831,-759
32-21,58960737,-395
32-22,58964643,536
32-23,58968549,337
32-24,58972455,-650
32-25,58976361,-640
32-26,58980267,359
32-27,58984173,554
32-28,58988079,-386
32-29,58991985,-750
32-30,58995891,100
32-31,58999797,624
32-32,59003703,-130
32-1,59007609,-819
32-2,59011515,-201
32-3,59015421,620
32-4,59019327,159
32-5,59023233,-737
32-6,59027139,-444
32-7,59031045,516
32-8,59034951,420
32-9,59038857,-557
32-10,59042763,-650
32-11,59046669,320
32-12,59050575,609
32-13,59054481,-295
32-14,59058387,-738
32-15,59062293,90
32-16,59066199,713
32-17,59070105,16
32-18,59074011,-739
32-19,59077917,-187
32-20,59081823,664
32-21,59085729,262
32-22,59089635,-666
32-23,59093541,-450
32-24,59097447,519
32-25,59101353,496
32-26,59105259,-488
32-27,59109165,-680
32-28,59113071,255
32-29,59116977,627
32-30,59120883,-243
32-31,59124789,-771
32-32,59128695,1
32-1,59132704,672
32-2,59136610,42
32-3,59140516,-753
32-4,59144422,-286
32-5,59148328,625
32-6,59152234,365
32-7,59156140,-586
32-8,59160046,-500
32-9,59163952,480
32-10,59167858,573
32-11,59171764,-407
32-12,59175670,-700
32-13,59179576,196
32-14,59183482,648
32-15,59187388,-155
32-16,59191294,-733
32-17,59195200,-9
32-18,59199106,736
32-19,59203012,163
32-20,59206918,-700
32-21,59210824,-292
32-22,59214730,653
32-23,59218636,435
32-24,59222542,-539
32-25,59226448,-533
32-26,59230354,396
32-27,59234260,545
32-28,59238166,-364
32-29,59242072,-687
32-30,59245978,175
32-31,59249884,702
32-32,59253790,-53
32-1,59257610,-724
32-2,59261516,-88
32-3,59265422,721
32-4,59269328,262
32-5,59273234,-627
32-6,59277140,-332
32-7,59281046,636
32-8,59284952,531
32-9,59288858,-464
32-10,59292764,-569
32-11,59296670,378
32-12,59300576,649
32-13,59304482,-254
32-14,59308388,-683
32-15,59312294,154
32-16,59316200,750
32-17,59320106,36
32-18,59324012,-693
32-19,59327918,-129
32-20,59331824,722
32-21,59335730,345
32-22,59339636,-583
32-23,59343542,-386
32-24,59347448,587
32-25,59351354,564
32-26,59355260,-418
32-27,59359166,-598
32-28,59363072,318
32-29,59366978,680
32-30,59370884,-166
32-31,59374790,-694
32-32,59378696,52
32-1,59382608,718
32-2,59386514,80
32-3,59390420,-715
32-4,59394326,-227
32-5,59398232,663
32-6,59402138,336
32-7,59406044,-633
32-8,59409950,-520
32-9,59413856,438
32-10,59417762,475
32-11,59421668,-509
32-12,59425574,-772
32-13,59429480,128
32-14,59433386,550
32-15,59437292,-275
32-16,59441198,-861
32-17,59445104,-129
32-18,59449010,646
32-19,59452916,106
32-20,59456822,-723
32-21,59460728,-284
32-22,59464634,666
32-23,59468540,434
32-24,59472446,-540
32-25,59476352,-505
32-26,59480258,466
32-27,59484164,616
32-28,59488070,-323
32-29,59491976,-651
32-30,59495882,227
32-31,59499788,758
32-32,59503694,-4
32-1,59507758,-686
32-2,59511664,-53
32-3,59515570,733
32-4,59519476,231
32-5,59523382,-654
32-6,59527288,-332
32-7,59531194,617
32-8,59535100,485
32-9,59539006,-499
32-10,59542912,-570
32-11,59546818,394
32-12,59550724,645
32-13,59554630,-271
32-14,59558536,-706
32-15,59562442,108
32-16,59566348,680
32-17,59570254,-46
32-18,59574160,-714
32-19,59578066,-233
32-20,59581972,321
32-21,59585878,131
32-22,59589784,-194
32-23,59593690,-104
32-24,59597596,208
32-25,59601502,202
32-26,59605408,-141
32-27,59609314,-229
32-28,59613220,99
32-29,59617126,270
32-30,59621032,-25
32-31,59624938,-240
32-32,59628844,-5
32-1,59632603,201
32-2,59636509,-14
32-3,59640415,-278
32-4,59644321,-145
32-5,59648227,145
32-6,59652133,72
32-7,59656039,-235
32-8,59659945,-220
32-9,59663851,80
32-10,59667757,94
32-11,59671663,-219
32-12,59675569,-288
32-13,59679475,26
32-14,59683381,197
32-15,59687287,-48
32-16,59691193,-268
32-17,59695099,-65
32-18,59699005,196
32-19,59702911,24
32-20,59706817,-255
32-21,59710723,-126
32-22,59714629,164
32-23,59718535,88
32-24,59722441,-225
32-25,59726347,-207
32-26,59730253,136
32-27,59734159,191
32-28,59738065,-134
32-29,59741971,-261
32-30,59745877,7
32-31,59749783,185
32-32,59753689,-45
32-1,59757601,-272
32-2,59761507,-64
32-3,59765413,209
32-4,59769319,40
32-5,59773225,-266
32-6,59777131,-156
32-7,59781037,161
32-8,59784943,135
32-9,59788849,-164
32-10,59792755,-208
32-11,59796661,85
32-12,59800567,189
32-13,59804473,-110
32-14,59808379,-277
32-15,59812285,-6
32-16,59816191,194
32-17,59820097,-39
32-18,59824003,-274
32-19,59827909,-87
32-20,59831815,202
32-21,59835721,92
32-22,59839627,-199
32-23,59843533,-113
32-24,59847439,208
32-25,59851345,192
32-26,59855251,-129
32-27,59859157,-200
32-28,59863063,91
32-29,59866969,233
32-30,59870875,-12
32-31,59874781,-176
32-32,59878687,60
32-1,59882599,268
32-2,59886505,67
32-3,59890411,-192
32-4,59894317,-49
32-5,59898223,242
32-6,59902129,139
32-7,59906035,-184
32-8,59909941,-145
32-9,59913847,170
32-10,59917753,178
32-11,59921659,-142
32-12,59925565,-237
32-13,59929471,44
32-14,59933377,192
32-15,59937283,-81
32-16,59941189,-288
32-17,59945095,-40
32-18,59949001,220
32-19,59952907,44
32-20,59956813,-225
32-21,59960719,-106
32-22,59964625,197
32-23,59968531,157
32-24,59972437,-150
32-25,59976343,-166
32-26,59980249,120
32-27,59984155,167
32-28,59988061,-124
32-29,59991967,-255
32-30,59995873,-11
32-31,59999779,166
32-32,60003685,-65
32-1,60007596,-279
32-2,60011502,-51
32-3,60015408,247
32-4,60019314,123
32-5,60023220,-147
32-6,60027126,-64
32-7,60031032,200
32-8,60034938,155
32-9,60038844,-127
32-10,60042750,-116
32-11,60046656,205
32-12,60050562,269
32-13,60054468,-49
32-14,60058374,-204
32-15,60062280,54
32-16,60066186,248
32-17,60070092,6
32-18,60073998,-252
32-19,60077904,-69
32-20,60081810,201
32-21,60085716,73
32-22,60089622,-200
32-23,60093528,-116
32-24,60097434,189
32-25,60101340,175
32-26,60105246,-152
32-27,60109152,-212
32-28,60113058,107
32-29,60116964,239
32-30,60120870,-44
32-31,60124776,-222
32-32,60128682,15
32-1,60132594,222
32-2,60136500,11
32-3,60140406,-246
32-4,60144312,-87
32-5,60148218,206
32-6,60152124,98
32-7,60156030,-214
32-8,60159936,-154
32-9,60163842,167
32-10,60167748,177
32-11,60171654,-140
32-12,60175560,-240
32-13,60179466,34
32-14,60183372,172
32-15,60187278,-90
32-16,60191184,-271
32-17,60195090,-30
32-18,60198996,213
32-19,60202902,45
32-20,60206808,-227
32-21,60210714,-110
32-22,60214620,187
32-23,60218526,115
32-24,60222432,-203
32-25,60226338,-196
32-26,60230244,111
32-27,60234150,151
32-28,60238056,-145
32-29,60241962,-245
32-30,60245868,4
32-31,60249774,146
32-32,60253680,-93
32-1,60257775,-309
32-2,60261681,-118
32-3,60265587,130
32-4,60269493,-12
32-5,60273399,-268
32-6,60277305,-171
32-7,60281211,109
32-8,60285117,64
32-9,60289023,-234
32-10,60292929,-235
32-11,60296835,71
32-12,60300741,132
32-13,60304647,-161
32-14,60308553,-284
32-15,60312459,4
32-16,60316365,206
32-17,60320271,-45
32-18,60324177,-289
32-19,60328083,-92
32-20,60331989,161
32-21,60335895,4
32-22,60339801,-293
32-23,60343707,-233
32-24,60347613,56
32-25,60351519,62
32-26,60355425,-218
32-27,60359331,-257
32-28,60363237,68
32-29,60367143,198
32-30,60371049,-113
32-31,60374955,-303
32-32,60378861,-55
32-1,60382589,153
32-2,60386495,-76
32-3,60390401,-342
32-4,60394307,-164
32-5,60398213,129
32-6,60402119,21
32-7,60406025,-275
32-8,60409931,-229
32-9,60413837,91
32-10,60417743,117
32-11,60421649,-187
32-12,60425555,-255
32-13,60429461,15
32-14,60433367,134
32-15,60437273,-112
32-16,60441179,-295
32-17,60445085,-72
32-18,60448991,168
32-19,60452897,-4
32-20,60456803,-246
32-21,60460709,-104
32-22,60464615,165
32-23,60468521,82
32-24,60472427,-224
32-25,60476333,-216
32-26,60480239,94
32-27,60484145,142
32-28,60488051,-150
32-29,60491957,-235
32-30,60495863,67
32-31,60499769,237
32-32,60503675,-20
32-1,60507587,-226
32-2,60511493,-16
32-3,60515399,220
32-4,60519305,70
32-5,60523211,-196
32-6,60527117,-94
32-7,60531023,188
32-8,60534929,117
32-9,60538835,-200
32-10,60542741,-225
32-11,60546647,74
32-12,60550553,171
32-13,60554459,-114
32-14,60558365,-252
32-15,60562271,20
32-16,60566177,192
32-17,60570083,-43
32-18,60573989,-271
32-19,60577895,-98
32-20,60581801,178
32-21,60585707,53
32-22,60589613,-256
32-23,60593519,-172
32-24,60597425,135
32-25,60601331,85
32-26,60605237,-233
32-27,60609143,-257
32-28,60613049,55
32-29,60616955,175
32-30,60620861,-85
32-31,60624767,-256
32-32,60628673,-38
32-1,60632584,157
32-2,60636490,-54
32-3,60640396,-282
32-4,60644302,-87
32-5,60648208,187
32-6,60652114,46
32-7,60656020,-263
32-8,60659926,-188
32-9,60663832,147
32-10,60667738,144
32-11,60671644,-177
32-12,60675550,-230
32-13,60679456,62
32-14,60683362,178
32-15,60687268,-77
32-16,60691174,-263
32-17,60695080,-50
32-18,60698986,167
32-19,60702892,-36
32-20,60706798,-291
32-21,60710704,-120
32-22,60714610,173
32-23,60718516,84
32-24,60722422,-227
32-25,60726328,-207
32-26,60730234,134
32-27,60734140,193
32-28,60738046,-122
32-29,60741952,-210
32-30,60745858,89
32-31,60749764,236
32-32,60753670,-19
32-1,60757582,-196
32-2,60761488,44
32-3,60765394,276
32-4,60769300,77
32-5,60773206,-220
32-6,60777112,-112
32-7,60781018,192
32-8,60784924,139
32-9,60788830,-177
32-10,60792736,-181
32-11,60796642,128
32-12,60800548,193
32-13,60804454,-86
32-14,60808360,-200
32-15,60812266,57
32-16,60816172,225
32-17,60820078,-12
32-18,60823984,-251
32-19,60827890,-58
32-20,60831796,226
32-21,60835702,80
32-22,60839608,-204
32-23,60843514,-111
32-24,60847420,158
32-25,60851326,101
32-26,60855232,-227
32-27,60859138,-272
32-28,60863044,61
32-29,60866950,176
32-30,60870856,-134
32-31,60874762,-302
32-32,60878668,-33
32-1,60882580,183
32-2,60886486,-25
32-3,60890392,-259
32-4,60894298,-95
32-5,60898204,163
32-6,60902110,28
32-7,60906016,-290
32-8,60909922,-233
32-9,60913828,95
32-10,60917734,106
32-11,60921640,-211
32-12,60925546,-287
32-13,60929452,5
32-14,60933358,143
32-15,60937264,-125
32-16,60941170,-313
32-17,60945076,-66
32-18,60948982,190
32-19,60952888,8
32-20,60956794,-277
32-21,60960700,-137
32-22,60964606,170
32-23,60968512,81
32-24,60972418,-208
32-25,60976324,-165
32-26,60980230,127
32-27,60984136,149
32-28,60988042,-148
32-29,60991948,-233
32-30,60995854,68
32-31,60999760,232
32-32,61003666,-33
32-1,61008035,-250
32-2,61011941,-33
32-3,61015847,221
32-4,61019753,55
32-5,61023659,-237
32-6,61027565,-130
32-7,61031471,185
32-8,61035377,127
32-9,61039283,-208
32-10,61043189,-218
32-11,61047095,105
32-12,61051001,178
32-13,61054907,-115
32-14,61058813,-250
32-15,61062719,14
32-16,61066625,200
32-17,61070531,-43
32-18,61074437,-281
32-19,61078343,-85
32-20,61082249,176
32-21,61086155,8
32-22,61090061,-290
32-23,61093967,-184
32-24,61097873,110
32-25,61101779,67
32-26,61105685,-213
32-27,61109591,-216
32-28,61113497,112
32-29,61117403,249
32-30,61121309,-34
32-31,61125215,-210
32-32,61129121,40
32-1,61132575,222
32-2,61136481,-7
32-3,61140387,-212
32-4,61144293,-2
32-5,61148199,300
32-6,61152105,210
32-7,61156011,-75
32-8,61159917,-25
32-9,61163823,257
32-10,61167729,209
32-11,61171635,-127
32-12,61175541,-177
32-13,61179447,120
32-14,61183353,215
32-15,61187259,-66
32-16,61191165,-239
32-17,61195071,-5
32-18,61198977,233
32-19,61202883,43
32-20,61206789,-248
32-21,61210695,-107
32-22,61214601,198
32-23,61218507,110
32-24,61222413,-179
32-25,61226319,-125
32-26,61230225,191
32-27,61234131,214
32-28,61238037,-91
32-29,61241943,-149
32-30,61245849,175
32-31,61249755,310
32-32,61253661,23
32-1,61257567,-175
32-2,61261473,39
32-3,61265379,275
32-4,61269285,115
32-5,61273191,-161
32-6,61277097,-43
32-7,61281003,268
32-8,61284909,198
32-9,61288815,-143
32-10,61292721,-167
32-11,61296627,133
32-12,61300533,190
32-13,61304439,-129
32-14,61308345,-262
32-15,61312251,36
32-16,61316157,216
32-17,61320063,-32
32-18,61323969,-250
32-19,61327875,-72
32-20,61331781,156
32-21,61335687,8
32-22,61339593,-259
32-23,61343499,-157
32-24,61347405,138
32-25,61351311,93
32-26,61355217,-225
32-27,61359123,-257
32-28,61363029,51
32-29,61366935,151
32-30,61370841,-138
32-31,61374747,-288
32-32,61378653,-16
32-1,61382570,162
32-2,61386476,-92
32-3,61390382,-306
32-4,61394288,-114
32-5,61398194,135
32-6,61402100,8
32-7,61406006,-273
32-8,61409912,-196
32-9,61413818,132
32-10,61417724,130
32-11,61421630,-210
32-12,61425536,-281
32-13,61429442,39
32-14,61433348,161
32-15,61437254,-133
32-16,61441160,-311
32-17,61445066,-54
32-18,61448972,170
32-19,61452878,-42
32-20,61456784,-301
32-21,61460690,-156
32-22,61464596,115
32-23,61468502,31
32-24,61472408,-262
32-25,61476314,-236
32-26,61480220,78
32-27,61484126,105
32-28,61488032,-208
32-29,61491938,-292
32-30,61495844,-14
32-31,61499750,121
32-32,61503656,-121
32-1,61507568,-304
32-2,61511474,-59
32-3,61515380,198
32-4,61519286,4
32-5,61523192,-254
32-6,61527098,-88
32-7,61531004,199
32-8,61534910,118
32-9,61538816,-173
32-10,61542722,-159
32-11,61546628,141
32-12,61550534,197
32-13,61554440,-93
32-14,61558346,-223
32-15,61562252,25
32-16,61566158,170
32-17,61570064,-100
32-18,61573970,-330
32-19,61577876,-115
32-20,61581782,163
32-21,61585688,23
32-22,61589594,-254
32-23,61593500,-120
32-24,61597406,217
32-25,61601312,167
32-26,61605218,-152
32-27,61609124,-172
32-28,61613030,117
32-29,61616936,187
32-30,61620842,-119
32-31,61624748,-278
32-32,61628654,-16
32-1,61632565,179
32-2,61636471,-41
32-3,61640377,-264
32-4,61644283,-87
32-5,61648189,175
32-6,61652095,53
32-7,61656001,-238
32-8,61659907,-164
32-9,61663813,141
32-10,61667719,121
32-11,61671625,-184
32-12,61675531,-229
32-13,61679437,59
32-14,61683343,153
32-15,61687249,-135
32-16,61691155,-286
32-17,61695061,-26
32-18,61698967,178
32-19,61702873,-34
32-20,61706779,-281
32-21,61710685,-106
32-22,61714591,208
32-23,61718497,117
32-24,61722403,-186
32-25,61726309,-139
32-26,61730215,157
32-27,61734121,141
32-28,61738027,-164
32-29,61741933,-214
32-30,61745839,68
32-31,61749745,189
32-32,61753651,-62
32-1,61757716,-246
32-2,61761622,-27
32-3,61765528,209
32-4,61769434,35
32-5,61773340,-242
32-6,61777246,-123
32-7,61781152,169
32-8,61785058,87
32-9,61788964,-203
32-10,61792870,-156
32-11,61796776,141
32-12,61800682,172
32-13,61804588,-107
32-14,61808494,-200
32-15,61812400,94
32-16,61816306,264
32-17,61820212,-1
32-18,61824118,-196
32-19,61828024,35
32-20,61831930,269
32-21,61835836,88
32-22,61839742,-209
32-23,61843648,-114
32-24,61847554,195
32-25,61851460,152
32-26,61855366,-171
32-27,61859272,-208
32-28,61863178,88
32-29,61867084,178
32-30,61870990,-104
32-31,61874896,-247
32-32,61878802,9
32-1,61882561,183
32-2,61886467,-48
32-3,61890373,-261
32-4,61894279,-64
32-5,61898185,197
32-6,61902091,47
32-7,61905997,-249
32-8,61909903,-165
32-9,61913809,147
32-10,61917715,117
32-11,61921621,-212
32-12,61925527,-258
32-13,61929433,43
32-14,61933339,147
32-15,61937245,-112
32-16,61941151,-253
32-17,61945057,-24
32-18,61948963,166
32-19,61952869,-31
32-20,61956775,-294
32-21,61960681,-164
32-22,61964587,122
32-23,61968493,36
32-24,61972399,-250
32-25,61976305,-173
32-26,61980211,159
32-27,61984117,176
32-28,61988023,-136
32-29,61991929,-212
32-30,61995835,67
32-31,61999741,180
32-32,62003647,-92
32-1,62007558,-279
32-2,62011464,-45
32-3,62015370,194
32-4,62019276,6
32-5,62023182,-262
32-6,62027088,-127
32-7,62030994,171
32-8,62034900,101
32-9,62038806,-217
32-10,62042712,-207
32-11,62046618,108
32-12,62050524,139
32-13,62054430,-157
32-14,62058336,-248
32-15,62062242,4
32-16,62066148,141
32-17,62070054,-89
32-18,62073960,-266
32-19,62077866,-40
32-20,62081772,213
32-21,62085678,43
32-22,62089584,-251
32-23,62093490,-145
32-24,62097396,167
32-25,62101302,114
32-26,62105208,-214
32-27,62109114,-241
32-28,62113020,78
32-29,62116926,169
32-30,62120832,-129
32-31,62124738,-248
32-32,62128644,18
32-1,62132556,159
32-2,62136462,-80
32-3,62140368,-294
32-4,62144274,-104
32-5,62148180,169
32-6,62152086,18
32-7,62155992,-280
32-8,62159898,-174
32-9,62163804,128
32-10,62167710,77
32-11,62171616,-257
32-12,62175522,-309
32-13,62179428,9
32-14,62183334,126
32-15,62187240,-147
32-16,62191146,-288
32-17,62195052,-41
32-18,62198958,135
32-19,62202864,-96
32-20,62206770,-317
32-21,62210676,-123
32-22,62214582,136
32-23,62218488,4
32-24,62222394,-291
32-25,62226300,-228
32-26,62230206,91
32-27,62234112,112
32-28,62238018,-174
32-29,62241924,-229
32-30,62245830,65
32-31,62249736,173
32-32,62253642,-138
32-1,62257554,-329
32-2,62261460,-78
32-3,62265366,159
32-4,62269272,-1
32-5,62273178,-244
32-6,62277084,-101
32-7,62280990,196
32-8,62284896,88
32-9,62288802,-242
32-10,62292708,-197
32-11,62296614,129
32-12,62300520,160
32-13,62304426,-153
32-14,62308332,-249
32-15,62312238,48
32-16,62316144,194
32-17,62320050,-85
32-18,62323956,-288
32-19,62327862,-51
32-20,62331768,212
32-21,62335674,62
32-22,62339580,-212
32-23,62343486,-113
32-24,62347392,181
32-25,62351298,122
32-26,62355204,-193
32-27,62359110,-181
32-28,62363016,144
32-29,62366922,195
32-30,62370828,-126
32-31,62374734,-254
32-32,62378640,25
32-1,62382551,202
32-2,62386457,-28
32-3,62390363,-232
32-4,62394269,-20
32-5,62398175,255
32-6,62402081,109
32-7,62405987,-199
32-8,62409893,-127
32-9,62413799,171
32-10,62417705,141
32-11,62421611,-168
32-12,62425517,-206
32-13,62429423,93
32-14,62433329,176
32-15,62437235,-113
32-16,62441141,-225
32-17,62445047,63
32-18,62448953,262
32-19,62452859,47
32-20,62456765,-193
32-21,62460671,-25
32-22,62464577,260
32-23,62468483,125
32-24,62472389,-224
32-25,62476295,-190
32-26,62480201,121
32-27,62484107,112
32-28,62488013,-197
32-29,62491919,-239
32-30,62495825,46
32-31,62499731,146
32-32,62503637,-126
32-1,62507549,-300
32-2,62511455,-44
32-3,62515361,198
32-4,62519267,-36
32-5,62523173,-334
32-6,62527079,-184
32-7,62530985,103
32-8,62534891,12
32-9,62538797,-264
32-10,62542703,-214
32-11,62546609,91
32-12,62550515,120
32-13,62554421,-160
32-14,62558327,-224
32-15,62562233,66
32-16,62566139,206
32-17,62570045,-55
32-18,62573951,-249
32-19,62577857,-21
32-20,62581763,219
32-21,62585669,48
32-22,62589575,-228
32-23,62593481,-137
32-24,62597387,139
32-25,62601293,85
32-26,62605199,-236
32-27,62609105,-267
32-28,62613011,56
32-29,62616917,154
32-30,62620823,-150
32-31,62624729,-290
32-32,62628635,-6
32-1,62632546,177
32-2,62636452,-49
32-3,62640358,-243
32-4,62644264,-30
32-5,62648170,222
32-6,62652076,45
32-7,62655982,-249
32-8,62659888,-115
32-9,62663794,223
32-10,62667700,181
32-11,62671606,-138
32-12,62675512,-161
32-13,62679418,150
32-14,62683324,229
32-15,62687230,-77
32-16,62691136,-227
32-17,62695042,30
32-18,62698948,219
32-19,62702854,4
32-20,62706760,-241
32-21,62710666,-77
32-22,62714572,208
32-23,62718478,79
32-24,62722384,-244
32-25,62726290,-182
32-26,62730196,127
32-27,62734102,97
32-28,62738008,-225
32-29,62741914,-250
32-30,62745820,75
32-31,62749726,187
32-32,62753632,-79
32-1,62757544,-220
32-2,62761450,26
32-3,62765356,214
32-4,62769262,6
32-5,62773168,-234
32-6,62777074,-88
32-7,62780980,192
32-8,62784886,97
32-9,62788792,-213
32-10,62792698,-183
32-11,62796604,137
32-12,62800510,169
32-13,62804416,-156
32-14,62808322,-248
32-15,62812228,55
32-16,62816134,201
32-17,62820040,-55
32-18,62823946,-258
32-19,62827852,-53
32-20,62831758,191
32-21,62835664,16
32-22,62839570,-280
32-23,62843476,-159
32-24,62847382,170
32-25,62851288,111
32-26,62855194,-226
32-27,62859100,-226
32-28,62863006,91
32-29,62866912,149
32-30,62870818,-152
32-31,62874724,-259
32-32,62878630,32
32-1,62882542,190
32-2,62886448,-76
32-3,62890354,-295
32-4,62894260,-89
32-5,62898166,181
32-6,62902072,39
32-7,62905978,-252
32-8,62909884,-146
32-9,62913790,180
32-10,62917696,138
32-11,62921602,-197
32-12,62925508,-227
32-13,62929414,86
32-14,62933320,185
32-15,62937226,-100
32-16,62941132,-263
32-17,62945038,9
32-18,62948944,229
32-19,62952850,-10
32-20,62956756,-232
32-21,62960662,-1
32-22,62964568,265
32-23,62968474,117
32-24,62972380,-171
32-25,62976286,-121
32-26,62980192,181
32-27,62984098,182
32-28,62988004,-156
32-29,62991910,-217
32-30,62995816,89
32-31,62999722,160
32-32,63003628,-147
32-1,63007539,-307
32-2,63011445,-48
32-3,63015351,185
32-4,63019257,-22
32-5,63023163,-301
32-6,63027069,-142
32-7,63030975,171
32-8,63034881,73
32-9,63038787,-249
32-10,63042693,-213
32-11,63046599,108
32-12,63050505,141
32-13,63054411,-161
32-14,63058317,-245
32-15,63062223,38
32-16,63066129,166
32-17,63070035,-88
32-18,63073941,-250
32-19,63077847,-9
32-20,63081753,226
32-21,63085659,36
32-22,63089565,-255
32-23,63093471,-132
32-24,63097377,186
32-25,63101283,127
32-26,63105189,-188
32-27,63109095,-193
32-28,63113001,110
32-29,63116907,163
32-30,63120813,-136
32-31,63124719,-227
32-32,63128625,78
32-1,63132537,244
32-2,63136443,-7
32-3,63140349,-204
32-4,63144255,12
32-5,63148161,241
32-6,63152067,43
32-7,63155973,-254
32-8,63159879,-119
32-9,63163785,225
32-10,63167691,174
32-11,63171597,-158
32-12,63175503,-168
32-13,63179409,139
32-14,63183315,223
32-15,63187221,-47
32-16,63191127,-178
32-17,63195033,71
32-18,63198939,228
32-19,63202845,-27
32-20,63206751,-257
32-21,63210657,-53
32-22,63214563,236
32-23,63218469,110
32-24,63222375,-192
32-25,63226281,-109
32-26,63230187,199
32-27,63234093,156
32-28,63237999,-155
32-29,63241905,-185
32-30,63245811,96
32-31,63249717,189
32-32,63253623,-78
32-1,63257535,-231
32-2,63261441,21
32-3,63265347,219
32-4,63269253,-15
32-5,63273159,-263
32-6,63277065,-72
32-7,63280971,219
32-8,63284877,91
32-9,63288783,-218
32-10,63292689,-162
32-11,63296595,152
32-12,63300501,166
32-13,63304407,-138
32-14,63308313,-211
32-15,63312219,62
32-16,63316125,152
32-17,63320031,-129
32-18,63323937,-291
32-19,63327843,-45
32-20,63331749,196
32-21,63335655,4
32-22,63339561,-263
32-23,63343467,-92
32-24,63347373,210
32-25,63351279,112
32-26,63355185,-201
32-27,63359091,-190
32-28,63362997,129
32-29,63366903,194
32-30,63370809,-127
32-31,63374715,-253
32-32,63378621,52
32-1,63382532,227
32-2,63386438,-51
32-3,63390344,-270
32-4,63394250,-34
32-5,63398156,220
32-6,63402062,36
32-7,63405968,-256
32-8,63409874,-151
32-9,63413780,150
32-10,63417686,99
32-11,63421592,-213
32-12,63425498,-216
32-13,63429404,102
32-14,63433310,180
32-15,63437216,-98
32-16,63441122,-218
32-17,63445028,38
32-18,63448934,220
32-19,63452840,-6
32-20,63456746,-223
32-21,63460652,-7
32-22,63464558,250
32-23,63468464,72
32-24,63472370,-226
32-25,63476276,-116
32-26,63480182,213
32-27,63484088,196
32-28,63487994,-106
32-29,63491900,-134
32-30,63495806,158
32-31,63499712,226
32-32,63503618,-90
32-1,63507530,-254
32-2,63511436,-5
32-3,63515342,182
32-4,63519248,-29
32-5,63523154,-261
32-6,63527060,-93
32-7,63530966,200
32-8,63534872,101
32-9,63538778,-194
32-10,63542684,-137
32-11,63546590,172
32-12,63550496,170
32-13,63554402,-151
32-14,63558308,-217
32-15,63562214,89
32-16,63566120,214
32-17,63570026,-40
32-18,63573932,-196
32-19,63577838,33
32-20,63581744,247
32-21,63585650,52
32-22,63589556,-200
32-23,63593462,-41
32-24,63597368,250
32-25,63601274,153
32-26,63605180,-165
32-27,63609086,-153
32-28,63612992,168
32-29,63616898,219
32-30,63620804,-113
32-31,63624710,-225
32-32,63628616,74
32-1,63632528,214
32-2,63636434,-64
32-3,63640340,-258
32-4,63644246,-17
32-5,63648152,230
32-6,63652058,28
32-7,63655964,-266
32-8,63659870,-129
32-9,63663776,185
32-10,63667682,107
32-11,63671588,-205
32-12,63675494,-182
32-13,63679400,120
32-14,63683306,154
32-15,63687212,-151
32-16,63691118,-290
32-17,63695024,-59
32-18,63698930,85
32-19,63702836,-149
32-20,63706742,-344
32-21,63710648,-131
32-22,63714554,139
32-23,63718460,-7
32-24,63722366,-310
32-25,63726272,-224
32-26,63730178,91
32-27,63734084,62
32-28,63737990,-249
32-29,63741896,-275
32-30,63745802,22
32-31,63749708,96
32-32,63753614,-187
32-1,63757525,-314
32-2,63761431,-50
32-3,63765337,148
32-4,63769243,-68
32-5,63773149,-309
32-6,63777055,-128
32-7,63780961,146
32-8,63784867,11
32-9,63788773,-284
32-10,63792679,-207
32-11,63796585,93
32-12,63800491,62
32-13,63804397,-245
32-14,63808303,-264
32-15,63812209,59
32-16,63816115,186
32-17,63820021,-76
32-18,63823927,-247
32-19,63827833,-5
32-20,63831739,236
32-21,63835645,45
32-22,63839551,-211
32-23,63843457,-37
32-24,63847363,253
32-25,63851269,131
32-26,63855175,-194
32-27,63859081,-181
32-28,63862987,130
32-29,63866893,185
32-30,63870799,-123
32-31,63874705,-234
32-32,63878611,56
32-1,63882523,196
32-2,63886429,-88
32-3,63890335,-280
32-4,63894241,-53
32-5,63898147,165
32-6,63902053,-11
32-7,63905959,-245
32-8,63909865,-95
32-9,63913771,182
32-10,63917677,87
32-11,63921583,-217
32-12,63925489,-202
32-13,63929395,89
32-14,63933301,122
32-15,63937207,-187
32-16,63941113,-302
32-17,63945019,-29
32-18,63948925,141
32-19,63952831,-101
32-20,63956737,-326
32-21,63960643,-129
32-22,63964549,130
32-23,63968455,-34
32-24,63972361,-335
32-25,63976267,-231
32-26,63980173,106
32-27,63984079,89
32-28,63987985,-210
32-29,63991891,-217
32-30,63995797,76
32-31,63999703,130
32-32,64003609,-158
32-1,64007795,-285
32-2,64011701,-23
32-3,64015607,179
32-4,64019513,-23
32-5,64023419,-245
32-6,64027325,-55
32-7,64031231,221
32-8,64035137,82
32-9,64039043,-226
32-10,64042949,-161
32-11,64046855,148
32-12,64050761,130
32-13,64054667,-206
32-14,64058573,-261
32-15,64062479,56
32-16,64066385,146
32-17,64070291,-146
32-18,64074197,-272
32-19,64078103,3
32-20,64082009,199
32-21,64085915,-27
32-22,64089821,-281
32-23,64093727,-118
32-24,64097633,178
32-25,64101539,90
32-26,64105445,-219
32-27,64109351,-208
32-28,64113257,98
32-29,64117163,141
32-30,64121069,-184
32-31,64124975,-302
32-32,64128881,-10
32-1,64132518,131
32-2,64136424,-141
32-3,64140330,-318
32-4,64144236,-71
32-5,64148142,164
32-6,64152048,-31
32-7,64155954,-297
32-8,64159860,-149
32-9,64163766,160
32-10,64167672,93
32-11,64171578,-222
32-12,64175484,-201
32-13,64179390,139
32-14,64183296,200
32-15,64187202,-126
32-16,64191108,-266
32-17,64195014,17
32-18,64198920,198
32-19,64202826,-55
32-20,64206732,-270
32-21,64210638,-62
32-22,64214544,171
32-23,64218450,-10
32-24,64222356,-301
32-25,64226262,-193
32-26,64230168,118
32-27,64234074,70
32-28,64237980,-242
32-29,64241886,-248
32-30,64245792,59
32-31,64249698,139
32-32,64253604,-141
32-1,64257516,-295
32-2,64261422,-45
32-3,64265328,146
32-4,64269234,-102
32-5,64273140,-344
32-6,64277046,-145
32-7,64280952,143
32-8,64284858,32
32-9,64288764,-257
32-10,64292670,-193
32-11,64296576,120
32-12,64300482,123
32-13,64304388,-174
32-14,64308294,-210
32-15,64312200,104
32-16,64316106,220
32-17,64320012,-58
32-18,64323918,-211
32-19,64327824,57
32-20,64331730,282
32-21,64335636,66
32-22,64339542,-223
32-23,64343448,-94
32-24,64347354,184
32-25,64351260,73
32-26,64355166,-231
32-27,64359072,-192
32-28,64362978,103
32-29,64366884,119
32-30,64370790,-187
32-31,64374696,-275
32-32,64378602,10
32-1,64382513,141
32-2,64386419,-123
32-3,64390325,-302
32-4,64394231,-82
32-5,64398137,119
32-6,64402043,-74
32-7,64405949,-300
32-8,64409855,-121
32-9,64413761,182
32-10,64417667,97
32-11,64421573,-214
32-12,64425479,-200
32-13,64429385,106
32-14,64433291,155
32-15,64437197,-136
32-16,64441103,-223
32-17,64445009,73
32-18,64448915,218
32-19,64452821,-58
32-20,64456727,-253
32-21,64460633,-17
32-22,64464539,218
32-23,64468445,37
32-24,64472351,-249
32-25,64476257,-144
32-26,64480163,152
32-27,64484069,90
32-28,64487975,-227
32-29,64491881,-223
32-30,64495787,112
32-31,64499693,195
32-32,64503599,-127
32-1,64507511,-277
32-2,64511417,14
32-3,64515323,216
32-4,64519229,-27
32-5,64523135,-268
32-6,64527041,-82
32-7,64530947,189
32-8,64534853,53
32-9,64538759,-243
32-10,64542665,-168
32-11,64546571,131
32-12,64550477,108
32-13,64554383,-197
32-14,64558289,-235
32-15,64562195,73
32-16,64566101,181
32-17,64570007,-84
32-18,64573913,-219
32-19,64577819,23
32-20,64581725,205
32-21,64585631,-22
32-22,64589537,-276
32-23,64593443,-112
32-24,64597349,166
32-25,64601255,57
32-26,64605161,-242
32-27,64609067,-193
32-28,64612973,126
32-29,64616879,146
32-30,64620785,-179
32-31,64624691,-277
32-32,64628597,18
32-1,64632631,163
32-2,64636537,-91
32-3,64640443,-232
32-4,64644349,37
32-5,64648255,241
32-6,64652161,6
32-7,64656067,-260
32-8,64659973,-102
32-9,64663879,194
32-10,64667785,102
32-11,64671691,-221
32-12,64675597,-200
32-13,64679503,115
32-14,64683409,127
32-15,64687315,-212
32-16,64691221,-309
32-17,64695127,-11
32-18,64699033,156
32-19,64702939,-88
32-20,64706845,-289
32-21,64710751,-57
32-22,64714657,217
32-23,64718563,61
32-24,64722469,-212
32-25,64726375,-81
32-26,64730281,225
32-27,64734187,146
32-28,64738093,-180
32-29,64741999,-173
32-30,64745905,143
32-31,64749811,203
32-32,64753717,-98
32-1,64757506,-216
32-2,64761412,63
32-3,64765318,228
32-4,64769224,-27
32-5,64773130,-258
32-6,64777036,-73
32-7,64780942,184
32-8,64784848,37
32-9,64788754,-277
32-10,64792660,-199
32-11,64796566,133
32-12,64800472,123
32-13,64804378,-161
32-14,64808284,-153
32-15,64812190,141
32-16,64816096,198
32-17,64820002,-101
32-18,64823908,-261
32-19,64827814,9
32-20,64831720,231
32-21,64835626,-2
32-22,64839532,-259
32-23,64843438,-80
32-24,64847344,198
32-25,64851250,77
32-26,64855156,-208
32-27,64859062,-130
32-28,64862968,191
32-29,64866874,189
32-30,64870780,-151
32-31,64874686,-242
32-32,64878592,58
32-1,64882504,180
32-2,64886410,-105
32-3,64890316,-279
32-4,64894222,-26
32-5,64898128,202
32-6,64902034,-1
32-7,64905940,-270
32-8,64909846,-134
32-9,64913752,147
32-10,64917658,59
32-11,64921564,-237
32-12,64925470,-198
32-13,64929376,130
32-14,64933282,166
32-15,64937188,-153
32-16,64941094,-226
32-17,64945000,72
32-18,64948906,180
32-19,64952812,-92
32-20,64956718,-249
32-21,64960624,15
32-22,64964530,272
32-23,64968436,99
32-24,64972342,-179
32-25,64976248,-78
32-26,64980154,210
32-27,64984060,142
32-28,64987966,-175
32-29,64991872,-143
32-30,64995778,186
32-31,64999684,235
32-32,65003590,-62
32-1,65007501,-183
32-2,65011407,73
32-3,65015313,228
32-4,65019219,-14
32-5,65023125,-228
32-6,65027031,-33
32-7,65030937,227
32-8,65034843,86
32-9,65038749,-199
32-10,65042655,-114
32-11,65046561,192
32-12,65050467,157
32-13,65054373,-162
32-14,65058279,-178
32-15,65062185,135
32-16,65066091,209
32-17,65069997,-78
32-18,65073903,-233
32-19,65077809,-8
32-20,65081715,196
32-21,65085621,10
32-22,65089527,-219
32-23,65093433,-30
32-24,65097339,255
32-25,65101245,134
32-26,65105151,-161
32-27,65109057,-104
32-28,65112963,215
32-29,65116869,218
32-30,65120775,-116
32-31,65124681,-184
32-32,65128587,119
32-1,65132499,236
32-2,65136405,-29
32-3,65140311,-191
32-4,65144217,40
32-5,65148123,249
32-6,65152029,67
32-7,65155935,-180
32-8,65159841,-38
32-9,65163747,230
32-10,65167653,96
32-11,65171559,-215
32-12,65175465,-145
32-13,65179371,175
32-14,65183277,193
32-15,65187183,-91
32-16,65191089,-170
32-17,65194995,86
32-18,65198901,213
32-19,65202807,-57
32-20,65206713,-258
32-21,65210619,-17
32-22,65214525,227
32-23,65218431,39
32-24,65222337,-237
32-25,65226243,-111
32-26,65230149,217
32-27,65234055,165
32-28,65237961,-163
32-29,65241867,-154
32-30,65245773,150
32-31,65249679,179
32-32,65253585,-121
32-1,65257588,-243
32-2,65261494,11
32-3,65265400,183
32-4,65269306,-61
32-5,65273212,-294
32-6,65277118,-84
32-7,65281024,191
32-8,65284930,37
32-9,65288836,-266
32-10,65292742,-179
32-11,65296648,140
32-12,65300554,124
32-13,65304460,-161
32-14,65308366,-160
32-15,65312272,149
32-16,65316178,231
32-17,65320084,-49
32-18,65323990,-170
32-19,65327896,96
32-20,65331802,243
32-21,65335708,-29
32-22,65339614,-274
32-23,65343520,-96
32-24,65347426,161
32-25,65351332,25
32-26,65355238,-273
32-27,65359144,-217
32-28,65363050,115
32-29,65366956,154
32-30,65370862,-169
32-31,65374768,-239
32-32,65378674,75
32-1,65382494,185
32-2,65386400,-82
32-3,65390306,-228
32-4,65394212,17
32-5,65398118,238
32-6,65402024,49
32-7,65405930,-200
32-8,65409836,-49
32-9,65413742,221
32-10,65417648,96
32-11,65421554,-229
32-12,65425460,-189
32-13,65429366,129
32-14,65433272,137
32-15,65437178,-183
32-16,65441084,-252
32-17,65444990,45
32-18,65448896,166
32-19,65452802,-85
32-20,65456708,-228
32-21,65460614,14
32-22,65464520,240
32-23,65468426,56
32-24,65472332,-242
32-25,65476238,-152
32-26,65480144,147
32-27,65484050,94
32-28,65487956,-201
32-29,65491862,-165
32-30,65495768,153
32-31,65499674,176
32-32,65503580,-152
32-1,65507523,-251
32-2,65511429,43
32-3,65515335,194
32-4,65519241,-57
32-5,65523147,-272
32-6,65527053,-83
32-7,65530959,164
32-8,65534865,17
32-9,65538771,-263
32-10,65542677,-179
32-11,65546583,110
32-12,65550489,70
32-13,65554395,-236
32-14,65558301,-241
32-15,65562207,87
32-16,65566113,178
32-17,65570019,-100
32-18,65573925,-210
32-19,65577831,63
32-20,65581737,239
32-21,65585643,1
32-22,65589549,-238
32-23,65593455,-57
32-24,65597361,206
32-25,65601267,70
32-26,65605173,-220
32-27,65609079,-168
32-28,65612985,143
32-29,65616891,185
32-30,65620797,-120
32-31,65624703,-190
32-32,65628609,135
32-1,65632490,253
32-2,65636396,-19
32-3,65640302,-161
32-4,65644208,85
32-5,65648114,282
32-6,65652020,69
32-7,65655926,-173
32-8,65659832,1
32-9,65663738,275
32-10,65667644,145
32-11,65671550,-163
32-12,65675456,-123
32-13,65679362,150
32-14,65683268,141
32-15,65687174,-148
32-16,65691080,-209
32-17,65694986,57
32-18,65698892,160
32-19,65702798,-102
32-20,65706704,-291
32-21,65710610,-73
32-22,65714516,157
32-23,65718422,-31
32-24,65722328,-274
32-25,65726234,-115
32-26,65730140,159
32-27,65734046,62
32-28,65737952,-242
32-29,65741858,-214
32-30,65745764,83
32-31,65749670,98
32-32,65753576,-192
32-1,65757487,-272
32-2,65761393,10
32-3,65765299,159
32-4,65769205,-103
32-5,65773111,-304
32-6,65777017,-85
32-7,65780923,164
32-8,65784829,-5
32-9,65788735,-304
32-10,65792641,-188
32-11,65796547,126
32-12,65800453,67
32-13,65804359,-235
32-14,65808265,-218
32-15,65812171,101
32-16,65816077,156
32-17,65819983,-161
32-18,65823889,-297
32-19,65827795,-25
32-20,65831701,147
32-21,65835607,-103
32-22,65839513,-331
32-23,65843419,-132
32-24,65847325,135
32-25,65851231,1
32-26,65855137,-297
32-27,65859043,-227
32-28,65862949,97
32-29,65866855,93
32-30,65870761,-224
32-31,65874667,-265
32-32,65878573,39
32-1,65882485,118
32-2,65886391,-184
32-3,65890297,-326
32-4,65894203,-53
32-5,65898109,147
32-6,65902015,-57
32-7,65905921,-285
32-8,65909827,-132
32-9,65913733,134
32-10,65917639,30
32-11,65921545,-265
32-12,65925451,-217
32-13,65929357,99
32-14,65933263,134
32-15,65937169,-159
32-16,65941075,-246
32-17,65944981,19
32-18,65948887,146
32-19,65952793,-87
32-20,65956699,-254
32-21,65960605,-27
32-22,65964511,206
32-23,65968417,4
32-24,65972323,-275
32-25,65976229,-138
32-26,65980135,138
32-27,65984041,48
32-28,65987947,-237
32-29,65991853,-206
32-30,65995759,89
32-31,65999665,131
32-32,66003571,-158
32-1,66007483,-264
32-2,66011389,4
32-3,66015295,155
32-4,66019201,-88
32-5,66023107,-261
32-6,66027013,-14
32-7,66030919,236
32-8,66034825,64
32-9,66038731,-192
32-10,66042637,-67
32-11,66046543,217
32-12,66050449,149
32-13,66054355,-174
32-14,66058261,-188
32-15,66062167,138
32-16,66066073,225
32-17,66069979,-70
32-18,66073885,-204
32-19,66077791,54
32-20,66081697,228
32-21,66085603,-17
32-22,66089509,-258
32-23,66093415,-65
32-24,66097321,191
32-25,66101227,20
32-26,66105133,-294
32-27,66109039,-233
32-28,66112945,86
32-29,66116851,100
32-30,66120757,-205
32-31,66124663,-240
32-32,66128569,70
32-1,66132480,159
32-2,66136386,-130
32-3,66140292,-281
32-4,66144198,-25
32-5,66148104,180
32-6,66152010,-21
32-7,66155916,-237
32-8,66159822,-67
32-9,66163728,187
32-10,66167634,80
32-11,66171540,-179
32-12,66175446,-96
32-13,66179352,206
32-14,66183258,191
32-15,66187164,-128
32-16,66191070,-204
32-17,66194976,74
32-18,66198882,187
32-19,66202788,-85
32-20,66206694,-259
32-21,66210600,-13
32-22,66214506,215
32-23,66218412,15
32-24,66222318,-248
32-25,66226224,-101
32-26,66230130,184
32-27,66234036,65
32-28,66237942,-265
32-29,66241848,-198
32-30,66245754,140
32-31,66249660,133
32-32,66253566,-199
32-1,66257508,-279
32-2,66261414,32
32-3,66265320,184
32-4,66269226,-83
32-5,66273132,-258
32-6,66277038,-5
32-7,66280944,242
32-8,66284850,66
32-9,66288756,-202
32-10,66292662,-77
32-11,66296568,213
32-12,66300474,143
32-13,66304380,-163
32-14,66308286,-163
32-15,66312192,136
32-16,66316098,185
32-17,66320004,-118
32-18,66323910,-245
32-19,66327816,9
32-20,66331722,171
32-21,66335628,-70
32-22,66339534,-305
32-23,66343440,-111
32-24,66347346,152
32-25,66351252,5
32-26,66355158,-255
32-27,66359064,-155
32-28,66362970,133
32-29,66366876,124
32-30,66370782,-159
32-31,66374688,-188
32-32,66378594,119
32-1,66382475,210
32-2,66386381,-67
32-3,66390287,-202
32-4,66394193,41
32-5,66398099,223
32-6,66402005,11
32-7,66405911,-221
32-8,66409817,-40
32-9,66413723,239
32-10,66417629,96
32-11,66421535,-222
32-12,66425441,-149
32-13,66429347,160
32-14,66433253,147
32-15,66437159,-141
32-16,66441065,-203
32-17,66444971,48
32-18,66448877,148
32-19,66452783,-124
32-20,66456689,-290
32-21,66460595,-17
32-22,66464501,222
32-23,66468407,12
32-24,66472313,-252
32-25,66476219,-98
32-26,66480125,195
32-27,66484031,107
32-28,66487937,-182
32-29,66491843,-135
32-30,66495749,146
32-31,66499655,141
32-32,66503561,-156
32-1,66507473,-216
32-2,66511379,92
32-3,66515285,235
32-4,66519191,-56
32-5,66523097,-278
32-6,66527003,-65
32-7,66530909,174
32-8,66534815,7
32-9,66538721,-257
32-10,66542627,-124
32-11,66546533,178
32-12,66550439,97
32-13,66554345,-217
32-14,66558251,-201
32-15,66562157,101
32-16,66566063,127
32-17,66569969,-189
32-18,66573875,-279
32-19,66577781,15
32-20,66581687,166
32-21,66585593,-82
32-22,66589499,-275
32-23,66593405,-55
32-24,66597311,203
32-25,66601217,58
32-26,66605123,-211
32-27,66609029,-107
32-28,66612935,211
32-29,66616841,182
32-30,66620747,-150
32-31,66624653,-191
32-32,66628559,98
32-1,66632471,164
32-2,66636377,-118
32-3,66640283,-244
32-4,66644189,16
32-5,66648095,201
32-6,66652001,-28
32-7,66655907,-269
32-8,66659813,-106
32-9,66663719,148
32-10,66667625,26
32-11,66671531,-250
32-12,66675437,-165
32-13,66679343,126
32-14,66683249,96
32-15,66687155,-197
32-16,66691061,-246
32-17,66694967,30
32-18,66698873,135
32-19,66702779,-143
32-20,66706685,-289
32-21,66710591,-8
32-22,66714497,219
32-23,66718403,11
32-24,66722309,-236
32-25,66726215,-64
32-26,66730121,222
32-27,66734027,122
32-28,66737933,-161
32-29,66741839,-107
32-30,66745745,189
32-31,66749651,178
32-32,66753557,-136
32-1,66757468,-212
32-2,66761374,54
32-3,66765280,172
32-4,66769186,-89
32-5,66773092,-266
32-6,66776998,-26
32-7,66780904,195
32-8,66784810,-13
32-9,66788716,-282
32-10,66792622,-140
32-11,66796528,157
32-12,66800434,96
32-13,66804340,-205
32-14,66808246,-187
32-15,66812152,159
32-16,66816058,240
32-17,66819964,-63
32-18,66823870,-187
32-19,66827776,73
32-20,66831682,231
32-21,66835588,-7
32-22,66839494,-207
32-23,66843400,12
32-24,66847306,258
32-25,66851212,92
32-26,66855118,-193
32-27,66859024,-105
32-28,66862930,183
32-29,66866836,128
32-30,66870742,-190
32-31,66874648,-187
32-32,66878554,133
32-1,66882466,200
32-2,66886372,-97
32-3,66890278,-230
32-4,66894184,43
32-5,66898090,242
32-6,66901996,9
32-7,66905902,-219
32-8,66909808,-23
32-9,66913714,228
32-10,66917620,56
32-11,66921526,-251
32-12,66925432,-152
32-13,66929338,166
32-14,66933244,128
32-15,66937150,-190
32-16,66941056,-226
32-17,66944962,81
32-18,66948868,187
32-19,66952774,-90
32-20,66956680,-245
32-21,66960586,-4
32-22,66964492,186
32-23,66968398,-37
32-24,66972304,-276
32-25,66976210,-84
32-26,66980116,210
32-27,66984022,77
32-28,66987928,-234
32-29,66991834,-162
32-30,66995740,148
32-31,66999646,141
32-32,67003552,-156
32-1,67007464,-209
32-2,67011370,93
32-3,67015276,219
32-4,67019182,-61
32-5,67023088,-231
32-6,67026994,34
32-7,67030900,282
32-8,67034806,73
32-9,67038712,-231
32-10,67042618,-89
32-11,67046524,225
32-12,67050430,124
32-13,67054336,-202
32-14,67058242,-163
32-15,67062148,161
32-16,67066054,204
32-17,67069960,-114
32-18,67073866,-256
32-19,67077772,25
32-20,67081678,211
32-21,67085584,-57
32-22,67089490,-284
32-23,67093396,-37
32-24,67097302,225
32-25,67101208,20
32-26,67105114,-284
32-27,67109020,-164
32-28,67112926,149
32-29,67116832,110
32-30,67120738,-224
32-31,67124644,-252
32-32,67128550,89
32-1,67132461,174
32-2,67136367,-136
32-3,67140273,-244
32-4,67144179,68
32-5,67148085,262
32-6,67151991,4
32-7,67155897,-235
32-8,67159803,-21
32-9,67163709,267
32-10,67167615,94
32-11,67171521,-255
32-12,67175427,-158
32-13,67179333,197
32-14,67183239,168
32-15,67187145,-176
32-16,67191051,-212
32-17,67194957,118
32-18,67198863,214
32-19,67202769,-111
32-20,67206675,-282
32-21,67210581,4
32-22,67214487,226
32-23,67218393,-6
32-24,67222299,-248
32-25,67226205,-53
32-26,67230111,244
32-27,67234017,129
32-28,67237923,-173
32-29,67241829,-96
32-30,67245735,234
32-31,67249641,226
32-32,67253547,-117
32-1,67257459,-199
32-2,67261365,122
32-3,67265271,237
32-4,67269177,-97
32-5,67273083,-288
32-6,67276989,-15
32-7,67280895,221
32-8,67284801,-1
32-9,67288707,-276
32-10,67292613,-106
32-11,67296519,198
32-12,67300425,86
32-13,67304331,-251
32-14,67308237,-237
32-15,67312143,74
32-16,67316049,129
32-17,67319955,-153
32-18,67323861,-236
32-19,67327767,80
32-20,67331673,253
32-21,67335579,-30
32-22,67339485,-256
32-23,67343391,-14
32-24,67347297,262
32-25,67351203,78
32-26,67355109,-215
32-27,67359015,-91
32-28,67362921,202
32-29,67366827,124
32-30,67370733,-206
32-31,67374639,-215
32-32,67378545,120
32-1,67382456,187
32-2,67386362,-150
32-3,67390268,-298
32-4,67394174,-18
32-5,67398080,182
32-6,67401986,-60
32-7,67405892,-308
32-8,67409798,-97
32-9,67413704,203
32-10,67417610,61
32-11,67421516,-244
32-12,67425422,-163
32-13,67429328,123
32-14,67433234,76
32-15,67437140,-223
32-16,67441046,-240
32-17,67444952,64
32-18,67448858,142
32-19,67452764,-189
32-20,67456670,-359
32-21,67460576,-57
32-22,67464482,190
32-23,67468388,-32
32-24,67472294,-282
32-25,67476200,-82
32-26,67480106,210
32-27,67484012,67
32-28,67487918,-251
32-29,67491824,-183
32-30,67495730,134
32-31,67499636,129
32-32,67503542,-191
32-1,67507454,-257
32-2,67511360,44
32-3,67515266,166
32-4,67519172,-114
32-5,67523078,-286
32-6,67526984,-36
32-7,67530890,174
32-8,67534796,-44
32-9,67538702,-297
32-10,67542608,-129
32-11,67546514,169
32-12,67550420,56
32-13,67554326,-271
32-14,67558232,-235
32-15,67562138,64
32-16,67566044,68
32-17,67569950,-250
32-18,67573856,-341
32-19,67577762,-23
32-20,67581668,128
32-21,67585574,-173
32-22,67589480,-371
32-23,67593386,-122
32-24,67597292,127
32-25,67601198,-45
32-26,67605104,-305
32-27,67609010,-151
32-28,67612916,190
32-29,67616822,140
32-30,67620728,-211
32-31,67624634,-239
32-32,67628540,105
32-1,67632452,202
32-2,67636358,-101
32-3,67640264,-239
32-4,67644170,27
32-5,67648076,197
32-6,67651982,-60
32-7,67655888,-280
32-8,67659794,-58
32-9,67663700,218
32-10,67667606,62
32-11,67671512,-240
32-12,67675418,-162
32-13,67679324,128
32-14,67683230,82
32-15,67687136,-235
32-16,67691042,-255
32-17,67694948,74
32-18,67698854,166
32-19,67702760,-149
32-20,67706666,-293
32-21,67710572,-13
32-22,67714478,172
32-23,67718384,-53
32-24,67722290,-249
32-25,67726196,-45
32-26,67730102,217
32-27,67734008,69
32-28,67737914,-249
32-29,67741820,-180
32-30,67745726,137
32-31,67749632,116
32-32,67753538,-208
32-1,67757449,-249
32-2,67761355,58
32-3,67765261,157
32-4,67769167,-130
32-5,67773073,-288
32-6,67776979,-17
32-7,67780885,207
32-8,67784791,-21
32-9,67788697,-271
32-10,67792603,-87
32-11,67796509,218
32-12,67800415,121
32-13,67804321,-207
32-14,67808227,-164
32-15,67812133,186
32-16,67816039,209
32-17,67819945,-140
32-18,67823851,-247
32-19,67827757,65
32-20,67831663,211
32-21,67835569,-83
32-22,67839475,-271
32-23,67843381,-39
32-24,67847287,162
32-25,67851193,-32
32-26,67855099,-283
32-27,67859005,-153
32-28,67862911,138
32-29,67866817,87
32-30,67870723,-220
32-31,67874629,-229
32-32,67878535,74
32-1,67882447,143
32-2,67886353,-118
32-3,67890259,-230
32-4,67894165,21
32-5,67898071,190
32-6,67901977,-56
32-7,67905883,-265
32-8,67909789,-52
32-9,67913695,177
32-10,67917601,14
32-11,67921507,-259
32-12,67925413,-181
32-13,67929319,111
32-14,67933225,90
32-15,67937131,-222
32-16,67941037,-244
32-17,67944943,77
32-18,67948849,157
32-19,67952755,-125
32-20,67956661,-234
32-21,67960567,36
32-22,67964473,199
32-23,67968379,-40
32-24,67972285,-273
32-25,67976191,-114
32-26,67980097,126
32-27,67984003,-13
32-28,67987909,-267
32-29,67991815,-132
32-30,67995721,175
32-31,67999627,137
32-32,68003533,-182
32-1,68007445,-236
32-2,68011351,75
32-3,68015257,184
32-4,68019163,-104
32-5,68023069,-254
32-6,68026975,1
32-7,68030881,197
32-8,68034787,-17
32-9,68038693,-259
32-10,68042599,-102
32-11,68046505,181
32-12,68050411,86
32-13,68054317,-215
32-14,68058223,-160
32-15,68062129,161
32-16,68066035,163
32-17,68069941,-148
32-18,68073847,-209
32-19,68077753,73
32-20,68081659,187
32-21,68085565,-91
32-22,68089471,-285
32-23,68093377,-41
32-24,68097283,192
32-25,68101189,-23
32-26,68105095,-293
32-27,68109001,-154
32-28,68112907,134
32-29,68116813,68
32-30,68120719,-237
32-31,68124625,-223
32-32,68128531,90
32-1,68132442,116
32-2,68136348,-210
32-3,68140254,-317
32-4,68144160,-26
32-5,68148066,148
32-6,68151972,-94
32-7,68155878,-276
32-8,68159784,-36
32-9,68163690,196
32-10,68167596,14
32-11,68171502,-255
32-12,68175408,-158
32-13,68179314,123
32-14,68183220,78
32-15,68187126,-222
32-16,68191032,-223
32-17,68194938,102
32-18,68198844,188
32-19,68202750,-106
32-20,68206656,-228
32-21,68210562,58
32-22,68214468,246
32-23,68218374,25
32-24,68222280,-199
32-25,68226186,-21
32-26,68230092,242
32-27,68233998,102
32-28,68237904,-188
32-29,68241810,-104
32-30,68245716,179
32-31,68249622,143
32-32,68253528,-163
32-1,68257440,-209
32-2,68261346,99
32-3,68265252,219
32-4,68269158,-65
32-5,68273064,-217
32-6,68276970,36
32-7,68280876,213
32-8,68284782,-23
32-9,68288688,-262
32-10,68292594,-69
32-11,68296500,232
32-12,68300406,123
32-13,68304312,-159
32-14,68308218,-98
32-15,68312124,176
32-16,68316030,163
32-17,68319936,-145
32-18,68323842,-226
32-19,68327748,62
32-20,68331654,189
32-21,68335560,-68
32-22,68339466,-228
32-23,68343372,4
32-24,68347278,218
32-25,68351184,25
32-26,68355090,-240
32-27,68358996,-130
32-28,68362902,134
32-29,68366808,82
32-30,68370714,-196
32-31,68374620,-189
32-32,68378526,115
32-1,68382438,153
32-2,68386344,-143
32-3,68390250,-202
32-4,68394156,91
32-5,68398062,208
32-6,68401968,-50
32-7,68405874,-226
32-8,68409780,-17
32-9,68413686,216
32-10,68417592,66
32-11,68421498,-194
32-12,68425404,-85
32-13,68429310,209
32-14,68433216,149
32-15,68437122,-168
32-16,68441028,-187
32-17,68444934,95
32-18,68448840,141
32-19,68452746,-136
32-20,68456652,-230
32-21,68460558,56
32-22,68464464,248
32-23,68468370,18
32-24,68472276,-208
32-25,68476182,-14
32-26,68480088,239
32-27,68483994,88
32-28,68487900,-200
32-29,68491806,-119
32-30,68495712,165
32-31,68499618,123
32-32,68503524,-170
32-1,68507435,-188
32-2,68511341,91
32-3,68515247,161
32-4,68519153,-115
32-5,68523059,-244
32-6,68526965,-5
32-7,68530871,155
32-8,68534777,-70
32-9,68538683,-305
32-10,68542589,-124
32-11,68546495,165
32-12,68550401,40
32-13,68554307,-255
32-14,68558213,-183
32-15,68562119,104
32-16,68566025,87
32-17,68569931,-196
32-18,68573837,-232
32-19,68577743,69
32-20,68581649,193
32-21,68585555,-65
32-22,68589461,-226
32-23,68593367,-8
32-24,68597273,186
32-25,68601179,9
32-26,68605085,-238
32-27,68608991,-143
32-28,68612897,103
32-29,68616803,37
32-30,68620709,-234
32-31,68624615,-222
32-32,68628521,51
32-1,68632433,93
32-2,68636339,-166
32-3,68640245,-237
32-4,68644151,29
32-5,68648057,158
32-6,68651963,-95
32-7,68655869,-306
32-8,68659775,-134
32-9,68663681,95
32-10,68667587,-57
32-11,68671493,-342
32-12,68675399,-226
32-13,68679305,100
32-14,68683211,49
32-15,68687117,-244
32-16,68691023,-203
32-17,68694929,107
32-18,68698835,149
32-19,68702741,-113
32-20,68706647,-197
32-21,68710553,23
32-22,68714459,143
32-23,68718365,-62
32-24,68722271,-251
32-25,68726177,-70
32-26,68730083,178
32-27,68733989,44
32-28,68737895,-200
32-29,68741801,-100
32-30,68745707,144
32-31,68749613,80
32-32,68753519,-214
32-1,68757430,-234
32-2,68761336,71
32-3,68765242,172
32-4,68769148,-107
32-5,68773054,-268
32-6,68776960,-17
32-7,68780866,187
32-8,68784772,-29
32-9,68788678,-260
32-10,68792584,-76
32-11,68796490,218
32-12,68800396,114
32-13,68804302,-191
32-14,68808208,-138
32-15,68812114,168
32-16,68816020,154
32-17,68819926,-142
32-18,68823832,-172
32-19,68827738,106
32-20,68831644,176
32-21,68835550,-108
32-22,68839456,-255
32-23,68843362,1
32-24,68847268,203
32-25,68851174,0
32-26,68855080,-224
32-27,68858986,-65
32-28,68862892,206
32-29,68866798,119
32-30,68870704,-191
32-31,68874610,-190
32-32,68878516,108
32-1,68882428,137
32-2,68886334,-188
32-3,68890240,-285
32-4,68894146,8
32-5,68898052,133
32-6,68901958,-123
32-7,68905864,-272
32-8,68909770,-41
32-9,68913676,188
32-10,68917582,31
32-11,68921488,-244
32-12,68925394,-119
32-13,68929300,210
32-14,68933206,169
32-15,68937112,-133
32-16,68941018,-145
32-17,68944924,133
32-18,68948830,181
32-19,68952736,-107
32-20,68956642,-201
32-21,68960548,74
32-22,68964454,228
32-23,68968360,8
32-24,68972266,-176
32-25,68976172,5
32-26,68980078,213
32-27,68983984,49
32-28,68987890,-220
32-29,68991796,-122
32-30,68995702,178
32-31,68999608,138
32-32,69003514,-180
32-1,69007426,-201
32-2,69011332,124
32-3,69015238,221
32-4,69019144,-72
32-5,69023050,-211
32-6,69026956,76
32-7,69030862,293
32-8,69034768,70
32-9,69038674,-181
32-10,69042580,-38
32-11,69046486,201
32-12,69050392,71
32-13,69054298,-217
32-14,69058204,-142
32-15,69062110,168
32-16,69066016,154
32-17,69069922,-166
32-18,69073828,-227
32-19,69077734,75
32-20,69081640,198
32-21,69085546,-78
32-22,69089452,-242
32-23,69093358,19
32-24,69097264,247
32-25,69101170,44
32-26,69105076,-202
32-27,69108982,-35
32-28,69112888,238
32-29,69116794,122
32-30,69120700,-188
32-31,69124606,-143
32-32,69128512,168
32-1,69132423,175
32-2,69136329,-125
32-3,69140235,-195
32-4,69144141,69
32-5,69148047,182
32-6,69151953,-82
32-7,69155859,-255
32-8,69159765,-20
32-9,69163671,198
32-10,69167577,9
32-11,69171483,-250
32-12,69175389,-116
32-13,69179295,190
32-14,69183201,141
32-15,69187107,-143
32-16,69191013,-126
32-17,69194919,150
32-18,69198825,167
32-19,69202731,-127
32-20,69206637,-218
32-21,69210543,62
32-22,69214449,225
32-23,69218355,-17
32-24,69222261,-232
32-25,69226167,-32
32-26,69230073,224
32-27,69233979,69
32-28,69237885,-200
32-29,69241791,-97
32-30,69245697,167
32-31,69249603,105
32-32,69253509,-190
32-1,69257421,-211
32-2,69261327,65
32-3,69265233,118
32-4,69269139,-160
32-5,69273045,-280
32-6,69276951,-43
32-7,69280857,106
32-8,69284763,-137
32-9,69288669,-354
32-10,69292575,-145
32-11,69296481,120
32-12,69300387,-37
32-13,69304293,-333
32-14,69308199,-225
32-15,69312105,91
32-16,69316011,50
32-17,69319917,-259
32-18,69323823,-287
32-19,69327729,11
32-20,69331635,101
32-21,69335541,-195
32-22,69339447,-352
32-23,69343353,-99
32-24,69347259,107
32-25,69351165,-87
32-26,69355071,-313
32-27,69358977,-129
32-28,69362883,176
32-29,69366789,91
32-30,69370695,-204
32-31,69374601,-166
32-32,69378507,138
32-1,69382419,139
32-2,69386325,-194
32-3,69390231,-283
32-4,69394137,36
32-5,69398043,217
32-6,69401949,-26
32-7,69405855,-203
32-8,69409761,21
32-9,69413667,221
32-10,69417573,24
32-11,69421479,-214
32-12,69425385,-72
32-13,69429291,179
32-14,69433197,85
32-15,69437103,-202
32-16,69441009,-205
32-17,69444915,68
32-18,69448821,96
32-19,69452727,-225
32-20,69456633,-330
32-21,69460539,-12
32-22,69464445,171
32-23,69468351,-72
32-24,69472257,-271
32-25,69476163,-71
32-26,69480069,172
32-27,69483975,10
32-28,69487881,-275
32-29,69491787,-150
32-30,69495693,161
32-31,69499599,99
32-32,69503505,-203
32-1,69507416,-197
32-2,69511322,109
32-3,69515228,154
32-4,69519134,-173
32-5,69523040,-313
32-6,69526946,-33
32-7,69530852,162
32-8,69534758,-68
32-9,69538664,-290
32-10,69542570,-98
32-11,69546476,156
32-12,69550382,7
32-13,69554288,-273
32-14,69558194,-174
32-15,69562100,153
32-16,69566006,156
32-17,69569912,-156
32-18,69573818,-197
32-19,69577724,129
32-20,69581630,229
32-21,69585536,-76
32-22,69589442,-233
32-23,69593348,14
32-24,69597254,196
32-25,69601160,-20
32-26,69605066,-251
32-27,69608972,-102
32-28,69612878,163
32-29,69616784,72
32-30,69620690,-222
32-31,69624596,-183
32-32,69628502,135
32-1,69632414,158
32-2,69636320,-148
32-3,69640226,-212
32-4,69644132,75
32-5,69648038,185
32-6,69651944,-67
32-7,69655850,-226
32-8,69659756,-10
32-9,69663662,187
32-10,69667568,-15
32-11,69671474,-261
32-12,69675380,-96
32-13,69679286,208
32-14,69683192,120
32-15,69687098,-209
32-16,69691004,-197
32-17,69694910,107
32-18,69698816,142
32-19,69702722,-146
32-20,69706628,-230
32-21,69710534,70
32-22,69714440,238
32-23,69718346,-23
32-24,69722252,-237
32-25,69726158,-21
32-26,69730064,227
32-27,69733970,44
32-28,69737876,-254
32-29,69741782,-147
32-30,69745688,147
32-31,69749594,96
32-32,69753500,-210
32-1,69757411,-231
32-2,69761317,80
32-3,69765223,177
32-4,69769129,-112
32-5,69773035,-257
32-6,69776941,1
32-7,69780847,178
32-8,69784753,-53
32-9,69788659,-271
32-10,69792565,-79
32-11,69796471,171
32-12,69800377,3
32-13,69804283,-279
32-14,69808189,-164
32-15,69812095,145
32-16,69816001,124
32-17,69819907,-162
32-18,69823813,-195
32-19,69827719,90
32-20,69831625,187
32-21,69835531,-85
32-22,69839437,-256
32-23,69843343,-13
32-24,69847249,206
32-25,69851155,-13
32-26,69855061,-262
32-27,69858967,-90
32-28,69862873,186
32-29,69866779,92
32-30,69870685,-178
32-31,69874591,-122
32-32,69878497,168
32-1,69882409,153
32-2,69886315,-170
32-3,69890221,-237
32-4,69894127,78
32-5,69898033,200
32-6,69901939,-108
32-7,69905845,-296
32-8,69909751,-55
32-9,69913657,161
32-10,69917563,-33
32-11,69921469,-302
32-12,69925375,-155
32-13,69929281,149
32-14,69933187,45
32-15,69937093,-277
32-16,69940999,-249
32-17,69944905,64
32-18,69948811,118
32-19,69952717,-162
32-20,69956623,-260
32-21,69960529,13
32-22,69964435,158
32-23,69968341,-97
32-24,69972247,-291
32-25,69976153,-85
32-26,69980059,131
32-27,69983965,-45
32-28,69987871,-290
32-29,69991777,-159
32-30,69995683,107
32-31,69999589,27
32-32,70003495,-267
32-1,70007437,-263
32-2,70011343,53
32-3,70015249,133
32-4,70019155,-163
32-5,70023061,-284
32-6,70026967,0
32-7,70030873,170
32-8,70034779,-89
32-9,70038685,-315
32-10,70042591,-113
32-11,70046497,142
32-12,70050403,-12
32-13,70054309,-304
32-14,70058215,-231
32-15,70062121,71
32-16,70066027,41
32-17,70069933,-295
32-18,70073839,-328
32-19,70077745,-5
32-20,70081651,89
32-21,70085557,-184
32-22,70089463,-312
32-23,70093369,-43
32-24,70097275,170
32-25,70101181,-33
32-26,70105087,-259
32-27,70108993,-86
32-28,70112899,190
32-29,70116805,88
32-30,70120711,-214
32-31,70124617,-182
32-32,70128523,135
32-1,70132465,156
32-2,70136371,-173
32-3,70140277,-245
32-4,70144183,82
32-5,70148089,213
32-6,70151995,-83
32-7,70155901,-267
32-8,70159807,-13
32-9,70163713,219
32-10,70167619,5
32-11,70171525,-268
32-12,70175431,-102
32-13,70179337,196
32-14,70183243,93
32-15,70187149,-240
32-16,70191055,-223
32-17,70194961,108
32-18,70198867,144
32-19,70202773,-182
32-20,70206679,-272
32-21,70210585,33
32-22,70214491,157
32-23,70218397,-155
32-24,70222303,-356
32-25,70226209,-107
32-26,70230115,153
32-27,70234021,-17
32-28,70237927,-312
32-29,70241833,-183
32-30,70245739,153
32-31,70249645,89
32-32,70253551,-243
32-1,70257402,-247
32-2,70261308,72
32-3,70265214,143
32-4,70269120,-174
32-5,70273026,-323
32-6,70276932,-42
32-7,70280838,139
32-8,70284744,-123
32-9,70288650,-339
32-10,70292556,-114
32-11,70296462,170
32-12,70300368,35
32-13,70304274,-255
32-14,70308180,-153
32-15,70312086,165
32-16,70315992,139
32-17,70319898,-162
32-18,70323804,-183
32-19,70327710,126
32-20,70331616,203
32-21,70335522,-99
32-22,70339428,-226
32-23,70343334,55
32-24,70347240,240
32-25,70351146,-6
32-26,70355052,-253
32-27,70358958,-85
32-28,70362864,177
32-29,70366770,39
32-30,70370676,-276
32-31,70374582,-194
32-32,70378488,166
32-1,70382400,188
32-2,70386306,-148
32-3,70390212,-230
32-4,70394118,86
32-5,70398024,216
32-6,70401930,-72
32-7,70405836,-259
32-8,70409742,-28
32-9,70413648,187
32-10,70417554,-35
32-11,70421460,-322
32-12,70425366,-162
32-13,70429272,153
32-14,70433178,47
32-15,70437084,-276
32-16,70440990,-227
32-17,70444896,87
32-18,70448802,106
32-19,70452708,-193
32-20,70456614,-278
32-21,70460520,30
32-22,70464426,206
32-23,70468332,-72
32-24,70472238,-291
32-25,70476144,-47
32-26,70480050,201
32-27,70483956,-12
32-28,70487862,-323
32-29,70491768,-197
32-30,70495674,124
32-31,70499580,66
32-32,70503486,-233
32-1,70507397,-197
32-2,70511303,146
32-3,70515209,222
32-4,70519115,-88
32-5,70523021,-199
32-6,70526927,120
32-7,70530833,285
32-8,70534739,-6
32-9,70538645,-234
32-10,70542551,-39
32-11,70546457,198
32-12,70550363,44
32-13,70554269,-235
32-14,70558175,-129
32-15,70562081,186
32-16,70565987,130
32-17,70569893,-221
32-18,70573799,-270
32-19,70577705,48
32-20,70581611,157
32-21,70585517,-133
32-22,70589423,-274
32-23,70593329,21
32-24,70597235,227
32-25,70601141,-33
32-26,70605047,-291
32-27,70608953,-112
32-28,70612859,163
32-29,70616765,38
32-30,70620671,-259
32-31,70624577,-183
32-32,70628483,138
32-1,70632395,123
32-2,70636301,-189
32-3,70640207,-223
32-4,70644113,100
32-5,70648019,231
32-6,70651925,-42
32-7,70655831,-222
32-8,70659737,31
32-9,70663643,255
32-10,70667549,27
32-11,70671455,-229
32-12,70675361,-45
32-13,70679267,231
32-14,70683173,84
32-15,70687079,-267
32-16,70690985,-239
32-17,70694891,89
32-18,70698797,119
32-19,70702703,-188
32-20,70706609,-260
32-21,70710515,34
32-22,70714421,168
32-23,70718327,-86
32-24,70722233,-266
32-25,70726139,-36
32-26,70730045,192
32-27,70733951,-17
32-28,70737857,-276
32-29,70741763,-95
32-30,70745669,208
32-31,70749575,120
32-32,70753481,-188
32-1,70757667,-175
32-2,70761573,136
32-3,70765479,153
32-4,70769385,-175
32-5,70773291,-254
32-6,70777197,45
32-7,70781103,197
32-8,70785009,-60
32-9,70788915,-286
32-10,70792821,-78
32-11,70796727,180
32-12,70800633,9
32-13,70804539,-254
32-14,70808445,-101
32-15,70812351,206
32-16,70816257,134
32-17,70820163,-195
32-18,70824069,-238
32-19,70827975,66
32-20,70831881,158
32-21,70835787,-144
32-22,70839693,-287
32-23,70843599,-16
32-24,70847505,182
32-25,70851411,-25
32-26,70855317,-246
32-27,70859223,-64
32-28,70863129,212
32-29,70867035,79
32-30,70870941,-240
32-31,70874847,-169
32-32,70878753,161
32-1,70882390,141
32-2,70886296,-178
32-3,70890202,-212
32-4,70894108,87
32-5,70898014,184
32-6,70901920,-100
32-7,70905826,-264
32-8,70909732,-16
32-9,70913638,198
32-10,70917544,2
32-11,70921450,-244
32-12,70925356,-96
32-13,70929262,169
32-14,70933168,38
32-15,70937074,-288
32-16,70940980,-248
32-17,70944886,77
32-18,70948792,106
32-19,70952698,-223
32-20,70956604,-319
32-21,70960510,-11
32-22,70964416,143
32-23,70968322,-107
32-24,70972228,-276
32-25,70976134,-29
32-26,70980040,216
32-27,70983946,28
32-28,70987852,-246
32-29,70991758,-99
32-30,70995664,215
32-31,70999570,131
32-32,71003476,-219
32-1,71132385,114
32-2,71136291,-202
32-3,71140197,-238
32-4,71144103,78
32-5,71148009,175
32-6,71151915,-112
32-7,71155821,-261
32-8,71159727,-12
32-9,71163633,193
32-10,71167539,-1
32-11,71171445,-214
32-12,71175351,-14
32-13,71179257,257
32-14,71183163,96
32-15,71187069,-219
32-16,71190975,-146
32-17,71194881,146
32-18,71198787,135
32-19,71202693,-152
32-20,71206599,-206
32-21,71210505,83
32-22,71214411,203
32-23,71218317,-85
32-24,71222223,-271
32-25,71226129,-6
32-26,71230035,228
32-27,71233941,5
32-28,71237847,-242
32-29,71241753,-68
32-30,71245659,209
32-31,71249565,117
32-32,71253471,-189
32-1,71257383,-175
32-2,71261289,152
32-3,71265195,201
32-4,71269101,-112
32-5,71273007,-200
32-6,71276913,103
32-7,71280819,263
32-8,71284725,2
32-9,71288631,-223
32-10,71292537,-20
32-11,71296443,245
32-12,71300349,109
32-13,71304255,-159
32-14,71308161,-60
32-15,71312067,208
32-16,71315973,105
32-17,71319879,-237
32-18,71323785,-235
32-19,71327691,104
32-20,71331597,195
32-21,71335503,-114
32-22,71339409,-270
32-23,71343315,4
32-24,71347221,180
32-25,71351127,-91
32-26,71355033,-307
32-27,71358939,-72
32-28,71362845,195
32-29,71366751,64
32-30,71370657,-211
32-31,71374563,-135
32-32,71378469,178
32-1,71382472,168
32-2,71386378,-145
32-3,71390284,-185
32-4,71394190,124
32-5,71398096,226
32-6,71402002,-87
32-7,71405908,-264
32-8,71409814,8
32-9,71413720,210
32-10,71417626,-17
32-11,71421532,-270
32-12,71425438,-113
32-13,71429344,173
32-14,71433250,71
32-15,71437156,-221
32-16,71441062,-151
32-17,71444968,155
32-18,71448874,131
32-19,71452780,-202
32-20,71456686,-247
32-21,71460592,109
32-22,71464498,260
32-23,71468404,-46
32-24,71472310,-243
32-25,71476216,31
32-26,71480122,268
32-27,71484028,38
32-28,71487934,-231
32-29,71491840,-61
32-30,71495746,236
32-31,71499652,145
32-32,71503558,-169
32-1,71507470,-151
32-2,71511376,161
32-3,71515282,194
32-4,71519188,-121
32-5,71523094,-212
32-6,71527000,95
32-7,71530906,272
32-8,71534812,17
32-9,71538718,-210
32-10,71542624,3
32-11,71546530,282
32-12,71550436,120
32-13,71554342,-194
32-14,71558248,-96
32-15,71562154,204
32-16,71566060,132
32-17,71569966,-176
32-18,71573872,-153
32-19,71577778,167
32-20,71581684,196
32-21,71585590,-148
32-22,71589496,-274
32-23,71593402,26
32-24,71597308,205
32-25,71601214,-53
32-26,71605120,-274
32-27,71609026,-64
32-28,71612932,192
32-29,71616838,42
32-30,71620744,-243
32-31,71624650,-150
32-32,71628556,168
32-1,71632376,131
32-2,71636282,-192
32-3,71640188,-186
32-4,71644094,156
32-5,71648000,237
32-6,71651906,-63
32-7,71655812,-207
32-8,71659718,60
32-9,71663624,267
32-10,71667530,38
32-11,71671436,-193
32-12,71675342,10
32-13,71679248,266
32-14,71683154,113
32-15,71687060,-185
32-16,71690966,-133
32-17,71694872,168
32-18,71698778,161
32-19,71702684,-170
32-20,71706590,-227
32-21,71710496,80
32-22,71714402,188
32-23,71718308,-85
32-24,71722214,-263
32-25,71726120,-45
32-26,71730026,176
32-27,71733932,-2
32-28,71737838,-247
32-29,71741744,-103
32-30,71745650,176
32-31,71749556,83
32-32,71753462,-221
32-1,71757374,-175
32-2,71761280,131
32-3,71765186,136
32-4,71769092,-166
32-5,71772998,-257
32-6,71776904,11
32-7,71780810,165
32-8,71784716,-79
32-9,71788622,-287
32-10,71792528,-72
32-11,71796434,188
32-12,71800340,22
32-13,71804246,-260
32-14,71808152,-136
32-15,71812058,162
32-16,71815964,80
32-17,71819870,-247
32-18,71823776,-242
32-19,71827682,84
32-20,71831588,136
32-21,71835494,-191
32-22,71839400,-309
32-23,71843306,-5
32-24,71847212,173
32-25,71851118,-63
32-26,71855024,-247
32-27,71858930,-38
32-28,71862836,213
32-29,71866742,72
32-30,71870648,-220
32-31,71874554,-127
32-32,71878460,197
32-1,71882371,173
32-2,71886277,-142
32-3,71890183,-180
32-4,71894089,117
32-5,71897995,200
32-6,71901901,-81
32-7,71905807,-193
32-8,71909713,92
32-9,71913619,292
32-10,71917525,59
32-11,71921431,-202
32-12,71925337,-23
32-13,71929243,246
32-14,71933149,96
32-15,71937055,-198
32-16,71940961,-121
32-17,71944867,178
32-18,71948773,149
32-19,71952679,-207
32-20,71956585,-286
32-21,71960491,38
32-22,71964397,167
32-23,71968303,-143
32-24,71972209,-330
32-25,71976115,-65
32-26,71980021,158
32-27,71983927,-72
32-28,71987833,-332
32-29,71991739,-144
32-30,71995645,153
32-31,71999551,37
32-32,72003457,-266
32-1,72007369,-222
32-2,72011275,91
32-3,72015181,125
32-4,72019087,-179
32-5,72022993,-253
32-6,72026899,69
32-7,72030805,210
32-8,72034711,-99
32-9,72038617,-309
32-10,72042523,-62
32-11,72046429,204
32-12,72050335,46
32-13,72054241,-228
32-14,72058147,-111
32-15,72062053,182
32-16,72065959,112
32-17,72069865,-200
32-18,72073771,-203
32-19,72077677,114
32-20,72081583,191
32-21,72085489,-111
32-22,72089395,-227
32-23,72093301,58
32-24,72097207,209
32-25,72101113,-57
32-26,72105019,-269
32-27,72108925,-49
32-28,72112831,226
32-29,72116737,80
32-30,72120643,-215
32-31,72124549,-117
32-32,72128455,203
32-1,72132366,160
32-2,72136272,-174
32-3,72140178,-220
32-4,72144084,72
32-5,72147990,177
32-6,72151896,-80
32-7,72155802,-206
32-8,72159708,52
32-9,72163614,228
32-10,72167520,-19
32-11,72171426,-278
32-12,72175332,-109
32-13,72179238,160
32-14,72183144,23
32-15,72187050,-272
32-16,72190956,-164
32-17,72194862,186
32-18,72198768,185
32-19,72202674,-133
32-20,72206580,-183
32-21,72210486,106
32-22,72214392,185
32-23,72218298,-124
32-24,72222204,-304
32-25,72226110,-48
32-26,72230016,188
32-27,72233922,-16
32-28,72237828,-280
32-29,72241734,-107
32-30,72245640,202
32-31,72249546,103
32-32,72253452,-212
32-1,72257486,-179
32-2,72261392,138
32-3,72265298,177
32-4,72269204,-146
32-5,72273110,-275
32-6,72277016,13
32-7,72280922,164
32-8,72284828,-119
32-9,72288734,-301
32-10,72292640,-35
32-11,72296546,228
32-12,72300452,56
32-13,72304358,-223
32-14,72308264,-78
32-15,72312170,257
32-16,72316076,185
32-17,72319982,-153
32-18,72323888,-155
32-19,72327794,157
32-20,72331700,205
32-21,72335606,-114
32-22,72339512,-254
32-23,72343418,12
32-24,72347324,190
32-25,72351230,-43
32-26,72355136,-253
32-27,72359042,-56
32-28,72362948,189
32-29,72366854,53
32-30,72370760,-219
32-31,72374666,-136
32-32,72378572,171
32-1,72382362,137
32-2,72386268,-193
32-3,72390174,-219
32-4,72394080,88
32-5,72397986,173
32-6,72401892,-113
32-7,72405798,-263
32-8,72409704,-2
32-9,72413610,198
32-10,72417516,-36
32-11,72421422,-288
32-12,72425328,-118
32-13,72429234,151
32-14,72433140,21
32-15,72437046,-290
32-16,72440952,-215
32-17,72444858,113
32-18,72448764,86
32-19,72452670,-244
32-20,72456576,-269
32-21,72460482,74
32-22,72464388,211
32-23,72468294,-71
32-24,72472200,-263
32-25,72476106,-33
32-26,72480012,186
32-27,72483918,-20
32-28,72487824,-279
32-29,72491730,-122
32-30,72495636,148
32-31,72499542,31
32-32,72503448,-267
32-1,72507359,-237
32-2,72511265,60
32-3,72515171,94
32-4,72519077,-206
32-5,72522983,-291
32-6,72526889,17
32-7,72530795,168
32-8,72534701,-110
32-9,72538607,-298
32-10,72542513,-54
32-11,72546419,181
32-12,72550325,-2
32-13,72554231,-268
32-14,72558137,-124
32-15,72562043,195
32-16,72565949,125
32-17,72569855,-207
32-18,72573761,-216
32-19,72577667,92
32-20,72581573,147
32-21,72585479,-141
32-22,72589385,-230
32-23,72593291,56
32-24,72597197,208
32-25,72601103,-52
32-26,72605009,-266
32-27,72608915,-55
32-28,72612821,202
32-29,72616727,45
32-30,72620633,-254
32-31,72624539,-154
32-32,72628445,170
32-1,72632357,134
32-2,72636263,-188
32-3,72640169,-211
32-4,72644075,114
32-5,72647981,194
32-6,72651887,-141
32-7,72655793,-290
32-8,72659699,12
32-9,72663605,233
32-10,72667511,-10
32-11,72671417,-291
32-12,72675323,-139
32-13,72679229,146
32-14,72683135,47
32-15,72687041,-234
32-16,72690947,-161
32-17,72694853,143
32-18,72698759,128
32-19,72702665,-177
32-20,72706571,-213
32-21,72710477,99
32-22,72714383,214
32-23,72718289,-54
32-24,72722195,-215
32-25,72726101,5
32-26,72730007,200
32-27,72733913,11
32-28,72737819,-225
32-29,72741725,-56
32-30,72745631,248
32-31,72749537,141
32-32,72753443,-182
32-1,72757355,-134
32-2,72761261,193
32-3,72765167,213
32-4,72769073,-95
32-5,72772979,-159
32-6,72776885,155
32-7,72780791,288
32-8,72784697,8
32-9,72788603,-179
32-10,72792509,48
32-11,72796415,276
32-12,72800321,91
32-13,72804227,-180
32-14,72808133,-60
32-15,72812039,222
32-16,72815945,165
32-17,72819851,-145
32-18,72823757,-159
32-19,72827663,170
32-20,72831569,239
32-21,72835475,-70
32-22,72839381,-185
32-23,72843287,87
32-24,72847193,262
32-25,72851099,24
32-26,72855005,-210
32-27,72858911,-22
32-28,72862817,226
32-29,72866723,75
32-30,72870629,-217
32-31,72874535,-138
32-32,72878441,156
32-1,72882352,108
32-2,72886258,-214
32-3,72890164,-246
32-4,72894070,43
32-5,72897976,128
32-6,72901882,-143
32-7,72905788,-267
32-8,72909694,17
32-9,72913600,223
32-10,72917506,-6
32-11,72921412,-249
32-12,72925318,-67
32-13,72929224,213
32-14,72933130,81
32-15,72937036,-230
32-16,72940942,-158
32-17,72944848,154
32-18,72948754,138
32-19,72952660,-172
32-20,72956566,-215
32-21,72960472,120
32-22,72964378,260
32-23,72968284,-51
32-24,72972190,-237
32-25,72976096,35
32-26,72980002,230
32-27,72983908,-22
32-28,72987814,-278
32-29,72991720,-89
32-30,72995626,209
32-31,72999532,86
32-32,73003438,-218
32-1,73007502,-154
32-2,73011408,144
32-3,73015314,143
32-4,73019220,-173
32-5,73023126,-257
32-6,73027032,44
32-7,73030938,178
32-8,73034844,-107
32-9,73038750,-309
32-10,73042656,-90
32-11,73046562,149
32-12,73050468,-15
32-13,73054374,-276
32-14,73058280,-153
32-15,73062186,136
32-16,73066092,74
32-17,73069998,-221
32-18,73073904,-200
32-19,73077810,132
32-20,73081716,178
32-21,73085622,-153
32-22,73089528,-271
32-23,73093434,29
32-24,73097340,195
32-25,73101246,-59
32-26,73105152,-244
32-27,73109058,-12
32-28,73112964,240
32-29,73116870,82
32-30,73120776,-228
32-31,73124682,-161
32-32,73128588,156
32-1,73132348,119
32-2,73136254,-223
32-3,73140160,-245
32-4,73144066,78
32-5,73147972,152
32-6,73151878,-142
32-7,73155784,-261
32-8,73159690,13
32-9,73163596,187
32-10,73167502,-60
32-11,73171408,-289
32-12,73175314,-87
32-13,73179220,181
32-14,73183126,23
32-15,73187032,-279
32-16,73190938,-178
32-17,73194844,140
32-18,73198750,95
32-19,73202656,-230
32-20,73206562,-247
32-21,73210468,79
32-22,73214374,177
32-23,73218280,-103
32-24,73222186,-264
32-25,73226092,-30
32-26,73229998,191
32-27,73233904,-6
32-28,73237810,-257
32-29,73241716,-67
32-30,73245622,237
32-31,73249528,125
32-32,73253434,-195
32-1,73257345,-177
32-2,73261251,134
32-3,73265157,150
