32-1,291230694,-34
32-2,291234600,-29
32-3,291238506,-18
32-4,291242412,-22
32-5,291246318,-30
32-6,291250224,-30
32-7,291254130,-27
32-8,291258036,-32
32-9,291261942,-29
32-10,291265848,-21
32-11,291269754,-21
32-12,291273660,-23
32-13,291277566,-27
32-14,291281472,-31
32-15,291285378,-26
32-16,291289284,-25
32-17,291293190,-28
32-18,291297096,-30
32-19,291301002,-31
32-20,291304908,-30
32-21,291308814,-30
32-22,291312720,-34
32-23,291316626,-32
32-24,291320532,-22
32-25,291324438,-22
32-26,291328344,-29
32-27,291332250,-27
32-28,291336156,-35
32-29,291340062,-41
32-30,291343968,-9
32-31,291347874,1
32-32,291351780,-33
32-1,291355783,-33
32-2,291359689,-19
32-3,291363595,-28
32-4,291367501,-31
32-5,291371407,-29
32-6,291375313,-30
32-7,291379219,-27
32-8,291383125,-29
32-9,291387031,-29
32-10,291390937,-27
32-11,291394843,-33
32-12,291398749,-38
32-13,291402655,-30
32-14,291406561,-26
32-15,291410467,-30
32-16,291414373,-32
32-17,291418279,-28
32-18,291422185,-24
32-19,291426091,-28
32-20,291429997,-31
32-21,291433903,-27
32-22,291437809,-21
32-23,291441715,-27
32-24,291445621,-29
32-25,291449527,-28
32-26,291453433,-31
32-27,291457339,-13
32-28,291461245,-27
32-29,291465151,-80
32-30,291469057,-39
32-31,291472963,21
32-32,291476869,-16
32-1,291480689,-38
32-2,291484595,-25
32-3,291488501,-30
32-4,291492407,-31
32-5,291496313,-33
32-6,291500219,-34
32-7,291504125,-28
32-8,291508031,-26
32-9,291511937,-31
32-10,291515843,-36
32-11,291519749,-31
32-12,291523655,-31
32-13,291527561,-35
32-14,291531467,-33
32-15,291535373,-29
32-16,291539279,-29
32-17,291543185,-32
32-18,291547091,-34
32-19,291550997,-31
32-20,291554903,-24
32-21,291558809,-26
32-22,291562715,-31
32-23,291566621,-32
32-24,291570527,-28
32-25,291574433,-23
32-26,291578339,-34
32-27,291582245,-39
32-28,291586151,-32
32-29,291590057,-68
32-30,291593963,-92
32-31,291597869,-48
32-32,291601775,-20
32-1,291605687,-26
32-2,291609593,-27
32-3,291613499,-30
32-4,291617405,-28
32-5,291621311,-27
32-6,291625217,-28
32-7,291629123,-29
32-8,291633029,-32
32-9,291636935,-29
32-10,291640841,-29
32-11,291644747,-35
32-12,291648653,-29
32-13,291652559,-23
32-14,291656465,-27
32-15,291660371,-28
32-16,291664277,-29
32-17,291668183,-29
32-18,291672089,-24
32-19,291675995,-25
32-20,291679901,-32
32-21,291683807,-28
32-22,291687713,-21
32-23,291691619,-24
32-24,291695525,-27
32-25,291699431,-26
32-26,291703337,-26
32-27,291707243,-32
32-28,291711149,-33
32-29,291715055,-27
32-30,291718961,-36
32-31,291722867,-40
32-32,291726773,-26
32-1,291730684,-25
32-2,291734590,-32
32-3,291738496,-29
32-4,291742402,-27
32-5,291746308,-29
32-6,291750214,-31
32-7,291754120,-28
32-8,291758026,-26
32-9,291761932,-27
32-10,291765838,-29
32-11,291769744,-29
32-12,291773650,-29
32-13,291777556,-32
32-14,291781462,-35
32-15,291785368,-33
32-16,291789274,-30
32-17,291793180,-30
32-18,291797086,-31
32-19,291800992,-30
32-20,291804898,-32
32-21,291808804,-34
32-22,291812710,-32
32-23,291816616,-33
32-24,291820522,-29
32-25,291824428,-21
32-26,291828334,-28
32-27,291832240,-28
32-28,291836146,-24
32-29,291840052,-57
32-30,291843958,-76
32-31,291847864,-42
32-32,291851770,-25
32-1,291855682,-28
32-2,291859588,-24
32-3,291863494,-27
32-4,291867400,-27
32-5,291871306,-24
32-6,291875212,-23
32-7,291879118,-30
32-8,291883024,-35
32-9,291886930,-29
32-10,291890836,-27
32-11,291894742,-32
32-12,291898648,-34
32-13,291902554,-30
32-14,291906460,-25
32-15,291910366,-26
32-16,291914272,-33
32-17,291918178,-29
32-18,291922084,-24
32-19,291925990,-25
32-20,291929896,-30
32-21,291933802,-36
32-22,291937708,-34
32-23,291941614,-24
32-24,291945520,-24
32-25,291949426,-32
32-26,291953332,-28
32-27,291957238,-27
32-28,291961144,-31
32-29,291965050,-21
32-30,291968956,-19
32-31,291972862,-32
32-32,291976768,-28
32-1,291980680,-28
32-2,291984586,-34
32-3,291988492,-25
32-4,291992398,-23
32-5,291996304,-27
32-6,292000210,-29
32-7,292004116,-26
32-8,292008022,-22
32-9,292011928,-28
32-10,292015834,-34
32-11,292019740,-32
32-12,292023646,-21
32-13,292027552,-21
32-14,292031458,-30
32-15,292035364,-27
32-16,292039270,-24
32-17,292043176,-29
32-18,292047082,-35
32-19,292050988,-31
32-20,292054894,-22
32-21,292058800,-27
32-22,292062706,-32
32-23,292066612,-25
32-24,292070518,-26
32-25,292074424,-28
32-26,292078330,-28
32-27,292082236,-32
32-28,292086142,-32
32-29,292090048,-18
32-30,292093954,-4
32-31,292097860,-8
32-32,292101766,-23
32-1,292105952,-29
32-2,292109858,-30
32-3,292113764,-25
32-4,292117670,-22
32-5,292121576,-26
32-6,292125482,-29
32-7,292129388,-31
32-8,292133294,-32
32-9,292137200,-26
32-10,292141106,-21
32-11,292145012,-27
32-12,292148918,-32
32-13,292152824,-27
32-14,292156730,-24
32-15,292160636,-25
32-16,292164542,-31
32-17,292168448,-28
32-18,292172354,-23
32-19,292176260,-24
32-20,292180166,-26
32-21,292184072,-29
32-22,292187978,-26
32-23,292191884,-21
32-24,292195790,-29
32-25,292199696,-39
32-26,292203602,-34
32-27,292207508,-23
32-28,292211414,-35
32-29,292215320,-59
32-30,292219226,-85
32-31,292223132,-86
32-32,292227038,-42
32-1,292230675,-19
32-2,292234581,-27
32-3,292238487,-19
32-4,292242393,-26
32-5,292246299,-37
32-6,292250205,-31
32-7,292254111,-34
32-8,292258017,-29
32-9,292261923,-23
32-10,292265829,-30
32-11,292269735,-33
32-12,292273641,-27
32-13,292277547,-29
32-14,292281453,-34
32-15,292285359,-31
32-16,292289265,-28
32-17,292293171,-30
32-18,292297077,-30
32-19,292300983,-29
32-20,292304889,-31
32-21,292308795,-28
32-22,292312701,-27
32-23,292316607,-29
32-24,292320513,-29
32-25,292324419,-30
32-26,292328325,-23
32-27,292332231,-32
32-28,292336137,-31
32-29,292340043,-21
32-30,292343949,-97
32-31,292347855,-127
32-32,292351761,-34
32-1,292355673,-3
32-2,292359579,-27
32-3,292363485,-22
32-4,292367391,-28
32-5,292371297,-28
32-6,292375203,-21
32-7,292379109,-26
32-8,292383015,-30
32-9,292386921,-26
32-10,292390827,-23
32-11,292394733,-30
32-12,292398639,-30
32-13,292402545,-22
32-14,292406451,-23
32-15,292410357,-26
32-16,292414263,-30
32-17,292418169,-28
32-18,292422075,-22
32-19,292425981,-26
32-20,292429887,-30
32-21,292433793,-28
32-22,292437699,-27
32-23,292441605,-25
32-24,292445511,-24
32-25,292449417,-24
32-26,292453323,-30
32-27,292457229,-23
32-28,292461135,-20
32-29,292465041,-58
32-30,292468947,-63
32-31,292472853,-22
32-32,292476759,-21
32-1,292480670,-30
32-2,292484576,-21
32-3,292488482,-19
32-4,292492388,-20
32-5,292496294,-23
32-6,292500200,-28
32-7,292504106,-26
32-8,292508012,-22
32-9,292511918,-24
32-10,292515824,-29
32-11,292519730,-27
32-12,292523636,-23
32-13,292527542,-25
32-14,292531448,-28
32-15,292535354,-25
32-16,292539260,-24
32-17,292543166,-26
32-18,292547072,-25
32-19,292550978,-29
32-20,292554884,-31
32-21,292558790,-20
32-22,292562696,-21
32-23,292566602,-31
32-24,292570508,-26
32-25,292574414,-24
32-26,292578320,-37
32-27,292582226,-25
32-28,292586132,-26
32-29,292590038,-61
32-30,292593944,-40
32-31,292597850,-5
32-32,292601756,-26
32-1,292605668,-32
32-2,292609574,-21
32-3,292613480,-27
32-4,292617386,-29
32-5,292621292,-26
32-6,292625198,-24
32-7,292629104,-25
32-8,292633010,-25
32-9,292636916,-25
32-10,292640822,-23
32-11,292644728,-24
32-12,292648634,-29
32-13,292652540,-30
32-14,292656446,-27
32-15,292660352,-30
32-16,292664258,-35
32-17,292668164,-34
32-18,292672070,-26
32-19,292675976,-22
32-20,292679882,-28
32-21,292683788,-31
32-22,292687694,-23
32-23,292691600,-23
32-24,292695506,-27
32-25,292699412,-28
32-26,292703318,-26
32-27,292707224,-26
32-28,292711130,-26
32-29,292715036,-21
32-30,292718942,-14
32-31,292722848,-18
32-32,292726754,-25
32-1,292730726,-25
32-2,292734632,-29
32-3,292738538,-30
32-4,292742444,-24
32-5,292746350,-26
32-6,292750256,-29
32-7,292754162,-24
32-8,292758068,-18
32-9,292761974,-24
32-10,292765880,-35
32-11,292769786,-33
32-12,292773692,-25
32-13,292777598,-27
32-14,292781504,-27
32-15,292785410,-24
32-16,292789316,-31
32-17,292793222,-33
32-18,292797128,-25
32-19,292801034,-25
32-20,292804940,-27
32-21,292808846,-24
32-22,292812752,-24
32-23,292816658,-23
32-24,292820564,-21
32-25,292824470,-25
32-26,292828376,-25
32-27,292832282,-23
32-28,292836188,-29
32-29,292840094,-33
32-30,292844000,-23
32-31,292847906,-25
32-32,292851812,-34
33-1,292851910,-25
33-2,292855816,-21
33-3,292859722,-31
33-4,292863628,-32
33-5,292867534,-24
33-6,292871440,-21
33-7,292875346,-24
33-8,292879252,-27
33-9,292883158,-25
33-10,292887064,-26
33-11,292890970,-36
33-12,292894876,-35
33-13,292898782,-22
33-14,292902688,-24
33-15,292906594,-24
33-16,292910500,-24
33-17,292914406,-31
33-18,292918312,-26
33-19,292922218,-22
33-20,292926124,-25
33-21,292930030,-25
33-22,292933936,-23
33-23,292937842,-24
33-24,292941748,-24
33-25,292945654,-27
33-26,292949560,-23
33-27,292953466,-20
33-28,292957372,-31
33-29,292961278,-29
33-30,292965184,-11
33-31,292969090,-12
33-32,292972996,-28
33-33,292976902,-34
32-1,292984567,-26
32-2,292988473,-23
32-3,292992379,-25
32-4,292996285,-23
32-5,293000191,-27
32-6,293004097,-30
32-7,293008003,-23
32-8,293011909,-26
32-9,293015815,-32
32-10,293019721,-28
32-11,293023627,-21
32-12,293027533,-27
32-13,293031439,-34
32-14,293035345,-30
32-15,293039251,-22
32-16,293043157,-25
32-17,293047063,-33
32-18,293050969,-35
32-19,293054875,-32
32-20,293058781,-26
32-21,293062687,-22
32-22,293066593,-26
32-23,293070499,-24
32-24,293074405,-21
32-25,293078311,-34
32-26,293082217,-24
32-27,293086123,-24
32-28,293090029,-68
32-29,293093935,-52
32-30,293097841,-4
32-31,293101747,-23
32-32,293105653,-34
32-1,293109564,-21
32-2,293113470,-30
32-3,293117376,-27
32-4,293121282,-19
32-5,293125188,-25
32-6,293129094,-32
32-7,293133000,-28
32-8,293136906,-21
32-9,293140812,-23
32-10,293144718,-27
32-11,293148624,-27
32-12,293152530,-32
32-13,293156436,-28
32-14,293160342,-21
32-15,293164248,-28
32-16,293168154,-28
32-17,293172060,-21
32-18,293175966,-25
32-19,293179872,-32
32-20,293183778,-33
32-21,293187684,-26
32-22,293191590,-25
32-23,293195496,-30
32-24,293199402,-30
32-25,293203308,-28
32-26,293207214,-26
32-27,293211120,-37
32-28,293215026,-21
32-29,293218932,14
32-30,293222838,-14
32-31,293226744,-45
32-32,293230650,-28
32-1,293234562,-28
32-2,293238468,-31
32-3,293242374,-24
32-4,293246280,-24
32-5,293250186,-28
32-6,293254092,-30
32-7,293257998,-25
32-8,293261904,-23
32-9,293265810,-26
32-10,293269716,-25
32-11,293273622,-24
32-12,293277528,-27
32-13,293281434,-32
32-14,293285340,-31
32-15,293289246,-27
32-16,293293152,-25
32-17,293297058,-27
32-18,293300964,-30
32-19,293304870,-30
32-20,293308776,-28
32-21,293312682,-33
32-22,293316588,-34
32-23,293320494,-30
32-24,293324400,-22
32-25,293328306,-18
32-26,293332212,-36
32-27,293336118,-27
32-28,293340024,-16
32-29,293343930,-91
32-30,293347836,-114
32-31,293351742,-34
32-32,293355648,-12
32-1,293359560,-28
32-2,293363466,-24
32-3,293367372,-29
32-4,293371278,-26
32-5,293375184,-26
32-6,293379090,-30
32-7,293382996,-27
32-8,293386902,-23
32-9,293390808,-23
32-10,293394714,-24
32-11,293398620,-27
32-12,293402526,-28
32-13,293406432,-25
32-14,293410338,-26
32-15,293414244,-28
32-16,293418150,-24
32-17,293422056,-25
32-18,293425962,-25
32-19,293429868,-23
32-20,293433774,-24
32-21,293437680,-23
32-22,293441586,-25
32-23,293445492,-26
32-24,293449398,-19
32-25,293453304,-22
32-26,293457210,-26
32-27,293461116,-23
32-28,293465022,-32
32-29,293468928,-23
32-30,293472834,-2
32-31,293476740,-19
32-32,293480646,-36
32-1,293484710,-28
32-2,293488616,-27
32-3,293492522,-28
32-4,293496428,-24
32-5,293500334,-24
32-6,293504240,-22
32-7,293508146,-20
32-8,293512052,-26
32-9,293515958,-35
32-10,293519864,-32
32-11,293523770,-22
32-12,293527676,-23
32-13,293531582,-31
32-14,293535488,-29
32-15,293539394,-20
32-16,293543300,-22
32-17,293547206,-26
32-18,293551112,-25
32-19,293555018,-25
32-20,293558924,-27
32-21,293562830,-28
32-22,293566736,-28
32-23,293570642,-25
32-24,293574548,-23
32-25,293578454,-25
32-26,293582360,-28
32-27,293586266,-28
32-28,293590172,-34
32-29,293594078,-26
32-30,293597984,-12
32-31,293601890,-25
32-32,293605796,-29
32-1,293609555,-21
32-2,293613461,-27
32-3,293617367,-26
32-4,293621273,-22
32-5,293625179,-26
32-6,293629085,-34
32-7,293632991,-32
32-8,293636897,-27
32-9,293640803,-28
32-10,293644709,-26
32-11,293648615,-27
32-12,293652521,-32
32-13,293656427,-32
32-14,293660333,-28
32-15,293664239,-27
32-16,293668145,-32
32-17,293672051,-31
32-18,293675957,-23
32-19,293679863,-24
32-20,293683769,-32
32-21,293687675,-33
32-22,293691581,-31
32-23,293695487,-32
32-24,293699393,-32
32-25,293703299,-29
32-26,293707205,-21
32-27,293711111,-25
32-28,293715017,-41
32-29,293718923,-20
32-30,293722829,15
32-31,293726735,-8
32-32,293730641,-37
32-1,293734553,-30
32-2,293738459,-26
32-3,293742365,-27
32-4,293746271,-22
32-5,293750177,-24
32-6,293754083,-27
32-7,293757989,-25
32-8,293761895,-28
32-9,293765801,-32
32-10,293769707,-29
32-11,293773613,-25
32-12,293777519,-26
32-13,293781425,-30
32-14,293785331,-32
32-15,293789237,-27
32-16,293793143,-21
32-17,293797049,-28
32-18,293800955,-33
32-19,293804861,-28
32-20,293808767,-28
32-21,293812673,-30
32-22,293816579,-29
32-23,293820485,-29
32-24,293824391,-29
32-25,293828297,-27
32-26,293832203,-22
32-27,293836109,-37
32-28,293840015,-29
32-29,293843921,15
32-30,293847827,-7
32-31,293851733,-50
32-32,293855639,-27
32-1,293859550,-19
32-2,293863456,-34
32-3,293867362,-30
32-4,293871268,-28
32-5,293875174,-29
32-6,293879080,-30
32-7,293882986,-31
32-8,293886892,-28
32-9,293890798,-27
32-10,293894704,-27
32-11,293898610,-28
32-12,293902516,-28
32-13,293906422,-24
32-14,293910328,-24
32-15,293914234,-31
32-16,293918140,-34
32-17,293922046,-29
32-18,293925952,-26
32-19,293929858,-27
32-20,293933764,-27
32-21,293937670,-29
32-22,293941576,-28
32-23,293945482,-28
32-24,293949388,-30
32-25,293953294,-30
32-26,293957200,-33
32-27,293961106,-20
32-28,293965012,-32
32-29,293968918,-66
32-30,293972824,-25
32-31,293976730,11
32-32,293980636,-26
32-1,293984548,-34
32-2,293988454,-25
32-3,293992360,-31
32-4,293996266,-27
32-5,294000172,-31
32-6,294004078,-33
32-7,294007984,-25
32-8,294011890,-30
32-9,294015796,-33
32-10,294019702,-27
32-11,294023608,-29
32-12,294027514,-29
32-13,294031420,-26
32-14,294035326,-33
32-15,294039232,-29
32-16,294043138,-22
32-17,294047044,-31
32-18,294050950,-34
32-19,294054856,-26
32-20,294058762,-26
32-21,294062668,-30
32-22,294066574,-28
32-23,294070480,-26
32-24,294074386,-30
32-25,294078292,-31
32-26,294082198,-30
32-27,294086104,-28
32-28,294090010,-26
32-29,294093916,-27
32-30,294097822,-38
32-31,294101728,-42
32-32,294105634,-29
32-1,294109546,-24
32-2,294113452,-29
32-3,294117358,-31
32-4,294121264,-27
32-5,294125170,-28
32-6,294129076,-29
32-7,294132982,-24
32-8,294136888,-23
32-9,294140794,-26
32-10,294144700,-29
32-11,294148606,-32
32-12,294152512,-31
32-13,294156418,-29
32-14,294160324,-30
32-15,294164230,-33
32-16,294168136,-31
32-17,294172042,-26
32-18,294175948,-26
32-19,294179854,-29
32-20,294183760,-29
32-21,294187666,-27
32-22,294191572,-25
32-23,294195478,-28
32-24,294199384,-28
32-25,294203290,-28
32-26,294207196,-32
32-27,294211102,-28
32-28,294215008,-34
32-29,294218914,-53
32-30,294222820,-38
32-31,294226726,-13
32-32,294230632,-25
32-1,294234726,-33
32-2,294238632,-23
32-3,294242538,-24
32-4,294246444,-32
32-5,294250350,-30
32-6,294254256,-28
32-7,294258162,-33
32-8,294262068,-31
32-9,294265974,-30
32-10,294269880,-33
32-11,294273786,-30
32-12,294277692,-27
32-13,294281598,-32
32-14,294285504,-30
32-15,294289410,-23
32-16,294293316,-27
32-17,294297222,-38
32-18,294301128,-34
32-19,294305034,-28
32-20,294308940,-32
32-21,294312846,-35
32-22,294316752,-31
32-23,294320658,-25
32-24,294324564,-23
32-25,294328470,-28
32-26,294332376,-32
32-27,294336282,-29
32-28,294340188,-37
32-29,294344094,-29
32-30,294348000,-23
32-31,294351906,-43
32-32,294355812,-40
32-1,294359541,-25
32-2,294363447,-35
32-3,294367353,-38
32-4,294371259,-34
32-5,294375165,-31
32-6,294379071,-29
32-7,294382977,-31
32-8,294386883,-28
32-9,294390789,-28
32-10,294394695,-33
32-11,294398601,-31
32-12,294402507,-28
32-13,294406413,-27
32-14,294410319,-28
32-15,294414225,-31
32-16,294418131,-30
32-17,294422037,-24
32-18,294425943,-26
32-19,294429849,-33
32-20,294433755,-33
32-21,294437661,-29
32-22,294441567,-30
32-23,294445473,-31
32-24,294449379,-31
32-25,294453285,-27
32-26,294457191,-27
32-27,294461097,-28
32-28,294465003,-29
32-29,294468909,-45
32-30,294472815,-44
32-31,294476721,-18
32-32,294480627,-19
32-1,294484538,-34
32-2,294488444,-29
32-3,294492350,-26
32-4,294496256,-31
32-5,294500162,-31
32-6,294504068,-28
32-7,294507974,-25
32-8,294511880,-30
32-9,294515786,-31
32-10,294519692,-28
32-11,294523598,-28
32-12,294527504,-30
32-13,294531410,-29
32-14,294535316,-28
32-15,294539222,-30
32-16,294543128,-30
32-17,294547034,-30
32-18,294550940,-29
32-19,294554846,-26
32-20,294558752,-23
32-21,294562658,-26
32-22,294566564,-33
32-23,294570470,-34
32-24,294574376,-27
32-25,294578282,-30
32-26,294582188,-34
32-27,294586094,-25
32-28,294590000,-37
32-29,294593906,-40
32-30,294597812,6
32-31,294601718,6
32-32,294605624,-36
32-1,294609536,-31
32-2,294613442,-22
32-3,294617348,-30
32-4,294621254,-27
32-5,294625160,-25
32-6,294629066,-32
32-7,294632972,-35
32-8,294636878,-31
32-9,294640784,-29
32-10,294644690,-34
32-11,294648596,-36
32-12,294652502,-34
32-13,294656408,-30
32-14,294660314,-26
32-15,294664220,-26
32-16,294668126,-28
32-17,294672032,-30
32-18,294675938,-28
32-19,294679844,-30
32-20,294683750,-34
32-21,294687656,-32
32-22,294691562,-28
32-23,294695468,-32
32-24,294699374,-38
32-25,294703280,-33
32-26,294707186,-28
32-27,294711092,-32
32-28,294714998,-38
32-29,294718904,-22
32-30,294722810,-1
32-31,294726716,-14
32-32,294730622,-35
32-1,294734534,-36
32-2,294738440,-34
32-3,294742346,-29
32-4,294746252,-25
32-5,294750158,-32
32-6,294754064,-32
32-7,294757970,-33
32-8,294761876,-35
32-9,294765782,-31
32-10,294769688,-27
32-11,294773594,-24
32-12,294777500,-28
32-13,294781406,-30
32-14,294785312,-28
32-15,294789218,-25
32-16,294793124,-24
32-17,294797030,-27
32-18,294800936,-29
32-19,294804842,-27
32-20,294808748,-29
32-21,294812654,-31
32-22,294816560,-33
32-23,294820466,-33
32-24,294824372,-29
32-25,294828278,-31
32-26,294832184,-34
32-27,294836090,-33
32-28,294839996,-36
32-29,294843902,-21
32-30,294847808,-6
32-31,294851714,-27
32-32,294855620,-39
32-1,294859531,-28
32-2,294863437,-29
32-3,294867343,-34
32-4,294871249,-31
32-5,294875155,-29
32-6,294879061,-31
32-7,294882967,-35
32-8,294886873,-35
32-9,294890779,-32
32-10,294894685,-31
32-11,294898591,-33
32-12,294902497,-28
32-13,294906403,-25
32-14,294910309,-29
32-15,294914215,-31
32-16,294918121,-34
32-17,294922027,-35
32-18,294925933,-28
32-19,294929839,-29
32-20,294933745,-33
32-21,294937651,-32
32-22,294941557,-29
32-23,294945463,-29
32-24,294949369,-30
32-25,294953275,-27
32-26,294957181,-26
32-27,294961087,-24
32-28,294964993,-32
32-29,294968899,-56
32-30,294972805,-49
32-31,294976711,-23
32-32,294980617,-31
32-1,294984712,-38
32-2,294988618,-28
32-3,294992524,-30
32-4,294996430,-38
32-5,295000336,-37
32-6,295004242,-34
32-7,295008148,-30
32-8,295012054,-30
32-9,295015960,-34
32-10,295019866,-33
32-11,295023772,-30
32-12,295027678,-34
32-13,295031584,-35
32-14,295035490,-31
32-15,295039396,-30
32-16,295043302,-27
32-17,295047208,-27
32-18,295051114,-33
32-19,295055020,-35
32-20,295058926,-31
32-21,295062832,-29
32-22,295066738,-30
32-23,295070644,-29
32-24,295074550,-30
32-25,295078456,-30
32-26,295082362,-31
32-27,295086268,-31
32-28,295090174,-25
32-29,295094080,-29
32-30,295097986,27
32-31,295101892,87
32-32,295105798,16
32-1,295109527,-49
32-2,295113433,-35
32-3,295117339,-42
32-4,295121245,-38
32-5,295125151,-29
32-6,295129057,-38
32-7,295132963,-37
32-8,295136869,-37
32-9,295140775,-37
32-10,295144681,-32
32-11,295148587,-30
32-12,295152493,-32
32-13,295156399,-33
32-14,295160305,-31
32-15,295164211,-32
32-16,295168117,-32
32-17,295172023,-33
32-18,295175929,-31
32-19,295179835,-29
32-20,295183741,-33
32-21,295187647,-37
32-22,295191553,-36
32-23,295195459,-37
32-24,295199365,-37
32-25,295203271,-38
32-26,295207177,-25
32-27,295211083,-27
32-28,295214989,-46
32-29,295218895,-12
32-30,295222801,5
32-31,295226707,-46
32-32,295230613,-50
32-1,295234524,-30
32-2,295238430,-37
32-3,295242336,-33
32-4,295246242,-27
32-5,295250148,-28
32-6,295254054,-29
32-7,295257960,-34
32-8,295261866,-32
32-9,295265772,-32
32-10,295269678,-31
32-11,295273584,-30
32-12,295277490,-33
32-13,295281396,-35
32-14,295285302,-34
32-15,295289208,-33
32-16,295293114,-31
32-17,295297020,-33
32-18,295300926,-36
32-19,295304832,-33
32-20,295308738,-26
32-21,295312644,-35
32-22,295316550,-41
32-23,295320456,-35
32-24,295324362,-28
32-25,295328268,-26
32-26,295332174,-35
32-27,295336080,-26
32-28,295339986,-40
32-29,295343892,-82
32-30,295347798,-50
32-31,295351704,-1
32-32,295355610,-21
32-1,295359522,-35
32-2,295363428,-33
32-3,295367334,-37
32-4,295371240,-29
32-5,295375146,-29
32-6,295379052,-34
32-7,295382958,-33
32-8,295386864,-30
32-9,295390770,-27
32-10,295394676,-29
32-11,295398582,-35
32-12,295402488,-31
32-13,295406394,-28
32-14,295410300,-30
32-15,295414206,-30
32-16,295418112,-28
32-17,295422018,-26
32-18,295425924,-25
32-19,295429830,-28
32-20,295433736,-35
32-21,295437642,-35
32-22,295441548,-28
32-23,295445454,-29
32-24,295449360,-31
32-25,295453266,-32
32-26,295457172,-25
32-27,295461078,-33
32-28,295464984,-41
32-29,295468890,-18
32-30,295472796,-38
32-31,295476702,-70
32-32,295480608,-41
32-1,295484519,-22
32-2,295488425,-32
32-3,295492331,-29
32-4,295496237,-30
32-5,295500143,-34
32-6,295504049,-33
32-7,295507955,-31
32-8,295511861,-29
32-9,295515767,-32
32-10,295519673,-34
32-11,295523579,-30
32-12,295527485,-24
32-13,295531391,-31
32-14,295535297,-37
32-15,295539203,-28
32-16,295543109,-24
32-17,295547015,-31
32-18,295550921,-27
32-19,295554827,-24
32-20,295558733,-28
32-21,295562639,-29
32-22,295566545,-32
32-23,295570451,-32
32-24,295574357,-28
32-25,295578263,-30
32-26,295582169,-37
32-27,295586075,-36
32-28,295589981,-24
32-29,295593887,-34
32-30,295597793,-65
32-31,295601699,-61
32-32,295605605,-30
32-1,295609517,-24
32-2,295613423,-31
32-3,295617329,-31
32-4,295621235,-28
32-5,295625141,-30
32-6,295629047,-28
32-7,295632953,-29
32-8,295636859,-29
32-9,295640765,-31
32-10,295644671,-26
32-11,295648577,-22
32-12,295652483,-27
32-13,295656389,-29
32-14,295660295,-26
32-15,295664201,-30
32-16,295668107,-38
32-17,295672013,-32
32-18,295675919,-27
32-19,295679825,-38
32-20,295683731,-40
32-21,295687637,-31
32-22,295691543,-30
32-23,295695449,-29
32-24,295699355,-29
32-25,295703261,-29
32-26,295707167,-25
32-27,295711073,-26
32-28,295714979,-34
32-29,295718885,-35
32-30,295722791,-27
32-31,295726697,-23
32-32,295730603,-28
32-1,295734667,-32
32-2,295738573,-32
32-3,295742479,-27
32-4,295746385,-27
32-5,295750291,-29
32-6,295754197,-24
32-7,295758103,-24
32-8,295762009,-28
32-9,295765915,-32
32-10,295769821,-32
32-11,295773727,-27
32-12,295777633,-27
32-13,295781539,-35
32-14,295785445,-33
32-15,295789351,-28
32-16,295793257,-30
32-17,295797163,-33
32-18,295801069,-29
32-19,295804975,-26
32-20,295808881,-27
32-21,295812787,-28
32-22,295816693,-30
32-23,295820599,-31
32-24,295824505,-31
32-25,295828411,-33
32-26,295832317,-33
32-27,295836223,-28
32-28,295840129,-25
32-29,295844035,-38
32-30,295847941,-61
32-31,295851847,-58
32-32,295855753,-31
32-1,295859695,-23
32-2,295863601,-31
32-3,295867507,-32
32-4,295871413,-29
32-5,295875319,-27
32-6,295879225,-29
32-7,295883131,-31
32-8,295887037,-28
32-9,295890943,-26
32-10,295894849,-29
32-11,295898755,-33
32-12,295902661,-27
32-13,295906567,-23
32-14,295910473,-26
32-15,295914379,-26
32-16,295918285,-31
32-17,295922191,-32
32-18,295926097,-28
32-19,295930003,-29
32-20,295933909,-25
32-21,295937815,-19
32-22,295941721,-22
32-23,295945627,-30
32-24,295949533,-33
32-25,295953439,-31
32-26,295957345,-24
32-27,295961251,-24
32-28,295965157,-40
32-29,295969063,-28
32-30,295972969,13
32-31,295976875,4
32-32,295980781,-35
32-1,295984571,-38
32-2,295988477,-30
32-3,295992383,-29
32-4,295996289,-28
32-5,296000195,-32
32-6,296004101,-29
32-7,296008007,-26
32-8,296011913,-36
32-9,296015819,-37
32-10,296019725,-27
32-11,296023631,-27
32-12,296027537,-30
32-13,296031443,-33
32-14,296035349,-34
32-15,296039255,-32
32-16,296043161,-31
32-17,296047067,-32
32-18,296050973,-32
32-19,296054879,-28
32-20,296058785,-25
32-21,296062691,-30
32-22,296066597,-38
32-23,296070503,-34
32-24,296074409,-26
32-25,296078315,-30
32-26,296082221,-33
32-27,296086127,-23
32-28,296090033,-33
32-29,296093939,-54
32-30,296097845,-44
32-31,296101751,-30
32-32,296105657,-31
32-1,296109508,-30
32-2,296113414,-29
32-3,296117320,-31
32-4,296121226,-28
32-5,296125132,-26
32-6,296129038,-29
32-7,296132944,-33
32-8,296136850,-32
32-9,296140756,-27
32-10,296144662,-28
32-11,296148568,-36
32-12,296152474,-35
32-13,296156380,-29
32-14,296160286,-29
32-15,296164192,-31
32-16,296168098,-30
32-17,296172004,-32
32-18,296175910,-31
32-19,296179816,-28
32-20,296183722,-31
32-21,296187628,-30
32-22,296191534,-22
32-23,296195440,-27
32-24,296199346,-31
32-25,296203252,-25
32-26,296207158,-28
32-27,296211064,-18
32-28,296214970,-36
32-29,296218876,-83
32-30,296222782,-41
32-31,296226688,11
32-32,296230594,-29
32-1,296234505,-42
32-2,296238411,-21
32-3,296242317,-27
32-4,296246223,-34
32-5,296250129,-30
32-6,296254035,-24
32-7,296257941,-27
32-8,296261847,-27
32-9,296265753,-27
32-10,296269659,-33
32-11,296273565,-30
32-12,296277471,-25
32-13,296281377,-29
32-14,296285283,-31
32-15,296289189,-29
32-16,296293095,-28
32-17,296297001,-30
32-18,296300907,-29
32-19,296304813,-26
32-20,296308719,-25
32-21,296312625,-26
32-22,296316531,-30
32-23,296320437,-32
32-24,296324343,-32
32-25,296328249,-30
32-26,296332155,-25
32-27,296336061,-39
32-28,296339967,-36
32-29,296343873,-2
32-30,296347779,-11
32-31,296351685,-38
32-32,296355591,-30
32-1,296359503,-28
32-2,296363409,-31
32-3,296367315,-25
32-4,296371221,-27
32-5,296375127,-30
32-6,296379033,-35
32-7,296382939,-34
32-8,296386845,-29
32-9,296390751,-26
32-10,296394657,-25
32-11,296398563,-31
32-12,296402469,-34
32-13,296406375,-31
32-14,296410281,-26
32-15,296414187,-31
32-16,296418093,-36
32-17,296421999,-32
32-18,296425905,-31
32-19,296429811,-33
32-20,296433717,-31
32-21,296437623,-28
32-22,296441529,-28
32-23,296445435,-29
32-24,296449341,-32
32-25,296453247,-28
32-26,296457153,-24
32-27,296461059,-28
32-28,296464965,-39
32-29,296468871,-32
32-30,296472777,-7
32-31,296476683,-7
32-32,296480589,-31
32-1,296484684,-35
32-2,296488590,-25
32-3,296492496,-25
32-4,296496402,-33
32-5,296500308,-33
32-6,296504214,-26
32-7,296508120,-24
32-8,296512026,-28
32-9,296515932,-31
32-10,296519838,-29
32-11,296523744,-29
32-12,296527650,-32
32-13,296531556,-34
32-14,296535462,-30
32-15,296539368,-24
32-16,296543274,-29
32-17,296547180,-36
32-18,296551086,-37
32-19,296554992,-31
32-20,296558898,-28
32-21,296562804,-32
32-22,296566710,-33
32-23,296570616,-31
32-24,296574522,-30
32-25,296578428,-29
32-26,296582334,-36
32-27,296586240,-30
32-28,296590146,-23
32-29,296594052,-40
32-30,296597958,-29
32-31,296601864,-6
32-32,296605770,-22
32-1,296609620,-37
32-2,296613526,-36
32-3,296617432,-36
32-4,296621338,-31
32-5,296625244,-30
32-6,296629150,-32
32-7,296633056,-30
32-8,296636962,-28
32-9,296640868,-32
32-10,296644774,-32
32-11,296648680,-31
32-12,296652586,-32
32-13,296656492,-30
32-14,296660398,-30
32-15,296664304,-34
32-16,296668210,-31
32-17,296672116,-30
32-18,296676022,-33
32-19,296679928,-32
32-20,296683834,-34
32-21,296687740,-34
32-22,296691646,-29
32-23,296695552,-28
32-24,296699458,-33
32-25,296703364,-36
32-26,296707270,-28
32-27,296711176,-31
32-28,296715082,-33
32-29,296718988,-3
32-30,296722894,10
32-31,296726800,-14
32-32,296730706,-33
32-1,296734496,-34
32-2,296738402,-30
32-3,296742308,-29
32-4,296746214,-28
32-5,296750120,-29
32-6,296754026,-35
32-7,296757932,-32
32-8,296761838,-28
32-9,296765744,-30
32-10,296769650,-36
32-11,296773556,-35
32-12,296777462,-31
32-13,296781368,-34
32-14,296785274,-36
32-15,296789180,-29
32-16,296793086,-28
32-17,296796992,-36
32-18,296800898,-36
32-19,296804804,-31
32-20,296808710,-31
32-21,296812616,-32
32-22,296816522,-34
32-23,296820428,-30
32-24,296824334,-23
32-25,296828240,-31
32-26,296832146,-38
32-27,296836052,-28
32-28,296839958,-38
32-29,296843864,-48
32-30,296847770,-29
32-31,296851676,-23
32-32,296855582,-31
32-1,296859493,-29
32-2,296863399,-31
32-3,296867305,-31
32-4,296871211,-27
32-5,296875117,-27
32-6,296879023,-32
32-7,296882929,-35
32-8,296886835,-28
32-9,296890741,-26
32-10,296894647,-34
32-11,296898553,-33
32-12,296902459,-27
32-13,296906365,-26
32-14,296910271,-23
32-15,296914177,-24
32-16,296918083,-28
32-17,296921989,-25
32-18,296925895,-27
32-19,296929801,-35
32-20,296933707,-36
32-21,296937613,-32
32-22,296941519,-29
32-23,296945425,-30
32-24,296949331,-35
32-25,296953237,-38
32-26,296957143,-26
32-27,296961049,-25
32-28,296964955,-34
32-29,296968861,-17
32-30,296972767,21
32-31,296976673,14
32-32,296980579,-25
32-1,296984485,-38
32-2,296988391,-34
32-3,296992297,-37
32-4,296996203,-34
32-5,297000109,-36
32-6,297004015,-36
32-7,297007921,-27
32-8,297011827,-28
32-9,297015733,-35
32-10,297019639,-33
32-11,297023545,-28
32-12,297027451,-29
32-13,297031357,-33
32-14,297035263,-38
32-15,297039169,-38
32-16,297043075,-32
32-17,297046981,-28
32-18,297050887,-34
32-19,297054793,-34
32-20,297058699,-24
32-21,297062605,-27
32-22,297066511,-38
32-23,297070417,-34
32-24,297074323,-23
32-25,297078229,-33
32-26,297082135,-43
32-27,297086041,-29
32-28,297089947,-37
32-29,297093853,-50
32-30,297097759,-11
32-31,297101665,3
32-32,297105571,-33
32-1,297109489,-35
32-2,297113395,-25
32-3,297117301,-35
32-4,297121207,-40
32-5,297125113,-36
32-6,297129019,-32
32-7,297132925,-39
32-8,297136831,-40
32-9,297140737,-29
32-10,297144643,-26
32-11,297148549,-30
32-12,297152455,-34
32-13,297156361,-31
32-14,297160267,-31
32-15,297164173,-32
32-16,297168079,-31
32-17,297171985,-30
32-18,297175891,-30
32-19,297179797,-31
32-20,297183703,-31
32-21,297187609,-33
32-22,297191515,-38
32-23,297195421,-35
32-24,297199327,-32
32-25,297203233,-32
32-26,297207139,-30
32-27,297211045,-17
32-28,297214951,-27
32-29,297218857,-56
32-30,297222763,-31
32-31,297226669,-8
32-32,297230575,-35
32-1,297234792,-44
32-2,297238698,-30
32-3,297242604,-28
32-4,297246510,-32
32-5,297250416,-35
32-6,297254322,-31
32-7,297258228,-28
32-8,297262134,-32
32-9,297266040,-32
32-10,297269946,-29
32-11,297273852,-31
32-12,297277758,-33
32-13,297281664,-33
32-14,297285570,-33
32-15,297289476,-29
32-16,297293382,-25
32-17,297297288,-29
32-18,297301194,-38
32-19,297305100,-35
32-20,297309006,-29
32-21,297312912,-34
32-22,297316818,-36
32-23,297320724,-30
32-24,297324630,-27
32-25,297328536,-28
32-26,297332442,-31
32-27,297336348,-37
32-28,297340254,-36
32-29,297344160,-23
32-30,297348066,-24
32-31,297351972,-38
32-32,297355878,-33
32-1,297359484,-27
32-2,297363390,-32
32-3,297367296,-35
32-4,297371202,-35
32-5,297375108,-34
32-6,297379014,-32
32-7,297382920,-36
32-8,297386826,-36
32-9,297390732,-33
32-10,297394638,-35
32-11,297398544,-38
32-12,297402450,-33
32-13,297406356,-31
32-14,297410262,-32
32-15,297414168,-32
32-16,297418074,-38
32-17,297421980,-35
32-18,297425886,-27
32-19,297429792,-36
32-20,297433698,-41
32-21,297437604,-34
32-22,297441510,-30
32-23,297445416,-31
32-24,297449322,-33
32-25,297453228,-31
32-26,297457134,-28
32-27,297461040,-32
32-28,297464946,-39
32-29,297468852,-42
32-30,297472758,-55
32-31,297476664,-57
32-32,297480570,-36
32-1,297484482,-30
32-2,297488388,-30
32-3,297492294,-26
32-4,297496200,-34
32-5,297500106,-38
32-6,297504012,-30
32-7,297507918,-27
32-8,297511824,-31
32-9,297515730,-32
32-10,297519636,-31
32-11,297523542,-34
32-12,297527448,-34
32-13,297531354,-32
32-14,297535260,-30
32-15,297539166,-26
32-16,297543072,-29
32-17,297546978,-33
32-18,297550884,-35
32-19,297554790,-33
32-20,297558696,-27
32-21,297562602,-27
32-22,297566508,-36
32-23,297570414,-36
32-24,297574320,-29
32-25,297578226,-26
32-26,297582132,-35
32-27,297586038,-30
32-28,297589944,-33
32-29,297593850,-63
32-30,297597756,-61
32-31,297601662,-31
32-32,297605568,-30
32-1,297609479,-37
32-2,297613385,-33
32-3,297617291,-30
32-4,297621197,-29
32-5,297625103,-32
32-6,297629009,-36
32-7,297632915,-36
32-8,297636821,-31
32-9,297640727,-29
32-10,297644633,-39
32-11,297648539,-41
32-12,297652445,-30
32-13,297656351,-24
32-14,297660257,-26
32-15,297664163,-31
32-16,297668069,-35
32-17,297671975,-28
32-18,297675881,-26
32-19,297679787,-34
32-20,297683693,-34
32-21,297687599,-31
32-22,297691505,-32
32-23,297695411,-28
32-24,297699317,-25
32-25,297703223,-34
32-26,297707129,-39
32-27,297711035,-30
32-28,297714941,-37
32-29,297718847,-55
32-30,297722753,-34
32-31,297726659,-12
32-32,297730565,-25
32-1,297734477,-39
32-2,297738383,-34
32-3,297742289,-28
32-4,297746195,-29
32-5,297750101,-32
32-6,297754007,-26
32-7,297757913,-27
32-8,297761819,-30
32-9,297765725,-29
32-10,297769631,-29
32-11,297773537,-25
32-12,297777443,-25
32-13,297781349,-29
32-14,297785255,-30
32-15,297789161,-32
32-16,297793067,-34
32-17,297796973,-32
32-18,297800879,-29
32-19,297804785,-31
32-20,297808691,-32
32-21,297812597,-34
32-22,297816503,-34
32-23,297820409,-29
32-24,297824315,-26
32-25,297828221,-27
32-26,297832127,-33
32-27,297836033,-26
32-28,297839939,-30
32-29,297843845,-50
32-30,297847751,-21
32-31,297851657,5
32-32,297855563,-23
32-1,297859475,-30
32-2,297863381,-24
32-3,297867287,-32
32-4,297871193,-31
32-5,297875099,-27
32-6,297879005,-31
32-7,297882911,-39
32-8,297886817,-35
32-9,297890723,-28
32-10,297894629,-31
32-11,297898535,-31
32-12,297902441,-28
32-13,297906347,-27
32-14,297910253,-29
32-15,297914159,-31
32-16,297918065,-30
32-17,297921971,-27
32-18,297925877,-27
32-19,297929783,-29
32-20,297933689,-34
32-21,297937595,-32
32-22,297941501,-28
32-23,297945407,-30
32-24,297949313,-32
32-25,297953219,-29
32-26,297957125,-21
32-27,297961031,-25
32-28,297964937,-34
32-29,297968843,-21
32-30,297972749,-35
32-31,297976655,-61
32-32,297980561,-41
32-1,297984472,-27
32-2,297988378,-34
32-3,297992284,-31
32-4,297996190,-29
32-5,298000096,-30
32-6,298004002,-34
32-7,298007908,-32
32-8,298011814,-27
32-9,298015720,-30
32-10,298019626,-31
32-11,298023532,-28
32-12,298027438,-29
32-13,298031344,-30
32-14,298035250,-31
32-15,298039156,-29
32-16,298043062,-27
32-17,298046968,-29
32-18,298050874,-31
32-19,298054780,-30
32-20,298058686,-25
32-21,298062592,-26
32-22,298066498,-32
32-23,298070404,-32
32-24,298074310,-30
32-25,298078216,-29
32-26,298082122,-31
32-27,298086028,-33
32-28,298089934,-27
32-29,298093840,-31
32-30,298097746,-15
32-31,298101652,9
32-32,298105558,-17
32-1,298109531,-38
32-2,298113437,-28
32-3,298117343,-30
32-4,298121249,-31
32-5,298125155,-29
32-6,298129061,-32
32-7,298132967,-32
32-8,298136873,-31
32-9,298140779,-29
32-10,298144685,-29
32-11,298148591,-29
32-12,298152497,-32
32-13,298156403,-33
32-14,298160309,-34
32-15,298164215,-35
32-16,298168121,-34
32-17,298172027,-32
32-18,298175933,-30
32-19,298179839,-32
32-20,298183745,-36
32-21,298187651,-32
32-22,298191557,-28
32-23,298195463,-30
32-24,298199369,-33
32-25,298203275,-31
32-26,298207181,-34
32-27,298211087,-26
32-28,298214993,-27
32-29,298218899,-81
32-30,298222805,-93
32-31,298226711,-32
32-32,298230617,-20
32-1,298234467,-41
32-2,298238373,-32
32-3,298242279,-24
32-4,298246185,-29
32-5,298250091,-31
32-6,298253997,-27
32-7,298257903,-27
32-8,298261809,-34
32-9,298265715,-33
32-10,298269621,-29
32-11,298273527,-27
32-12,298277433,-24
32-13,298281339,-27
32-14,298285245,-34
32-15,298289151,-37
32-16,298293057,-32
32-17,298296963,-28
32-18,298300869,-32
32-19,298304775,-29
32-20,298308681,-25
32-21,298312587,-28
32-22,298316493,-30
32-23,298320399,-28
32-24,298324305,-24
32-25,298328211,-29
32-26,298332117,-34
32-27,298336023,-21
32-28,298339929,-32
32-29,298343835,-60
32-30,298347741,-34
32-31,298351647,-7
32-32,298355553,-26
32-1,298359465,-26
32-2,298363371,-20
32-3,298367277,-29
32-4,298371183,-26
32-5,298375089,-26
32-6,298378995,-35
32-7,298382901,-34
32-8,298386807,-30
32-9,298390713,-29
32-10,298394619,-32
32-11,298398525,-34
32-12,298402431,-35
32-13,298406337,-34
32-14,298410243,-32
32-15,298414149,-29
32-16,298418055,-30
32-17,298421961,-33
32-18,298425867,-28
32-19,298429773,-27
32-20,298433679,-34
32-21,298437585,-31
32-22,298441491,-23
32-23,298445397,-29
32-24,298449303,-39
32-25,298453209,-41
32-26,298457115,-38
32-27,298461021,-25
32-28,298464927,-33
32-29,298468833,-40
32-30,298472739,2
32-31,298476645,9
32-32,298480551,-38
32-1,298484463,-39
32-2,298488369,-23
32-3,298492275,-29
32-4,298496181,-29
32-5,298500087,-28
32-6,298503993,-32
32-7,298507899,-34
32-8,298511805,-29
32-9,298515711,-26
32-10,298519617,-30
32-11,298523523,-26
32-12,298527429,-25
32-13,298531335,-33
32-14,298535241,-36
32-15,298539147,-32
32-16,298543053,-28
32-17,298546959,-28
32-18,298550865,-30
32-19,298554771,-27
32-20,298558677,-26
32-21,298562583,-31
32-22,298566489,-34
32-23,298570395,-31
32-24,298574301,-26
32-25,298578207,-29
32-26,298582113,-32
32-27,298586019,-26
32-28,298589925,-29
32-29,298593831,-41
32-30,298597737,-36
32-31,298601643,-35
32-32,298605549,-33
32-1,298609460,-27
32-2,298613366,-28
32-3,298617272,-31
32-4,298621178,-30
32-5,298625084,-26
32-6,298628990,-27
32-7,298632896,-36
32-8,298636802,-33
32-9,298640708,-29
32-10,298644614,-32
32-11,298648520,-34
32-12,298652426,-30
32-13,298656332,-30
32-14,298660238,-32
32-15,298664144,-31
32-16,298668050,-30
32-17,298671956,-30
32-18,298675862,-28
32-19,298679768,-32
32-20,298683674,-30
32-21,298687580,-25
32-22,298691486,-26
32-23,298695392,-29
32-24,298699298,-34
32-25,298703204,-33
32-26,298707110,-31
32-27,298711016,-31
32-28,298714922,-30
32-29,298718828,-19
32-30,298722734,6
32-31,298726640,4
32-32,298730546,-29
32-1,298734458,-38
32-2,298738364,-28
32-3,298742270,-30
32-4,298746176,-33
32-5,298750082,-32
32-6,298753988,-32
32-7,298757894,-34
32-8,298761800,-32
32-9,298765706,-29
32-10,298769612,-33
32-11,298773518,-33
32-12,298777424,-30
32-13,298781330,-32
32-14,298785236,-34
32-15,298789142,-35
32-16,298793048,-35
32-17,298796954,-32
32-18,298800860,-30
32-19,298804766,-31
32-20,298808672,-30
32-21,298812578,-31
32-22,298816484,-35
32-23,298820390,-34
32-24,298824296,-29
32-25,298828202,-28
32-26,298832108,-28
32-27,298836014,-35
32-28,298839920,-34
32-29,298843826,-24
32-30,298847732,-37
32-31,298851638,-55
32-32,298855544,-38
32-1,298859456,-23
32-2,298863362,-27
32-3,298867268,-29
32-4,298871174,-29
32-5,298875080,-30
32-6,298878986,-34
32-7,298882892,-38
32-8,298886798,-30
32-9,298890704,-29
32-10,298894610,-33
32-11,298898516,-34
32-12,298902422,-32
32-13,298906328,-29
32-14,298910234,-27
32-15,298914140,-33
32-16,298918046,-37
32-17,298921952,-31
32-18,298925858,-27
32-19,298929764,-33
32-20,298933670,-33
32-21,298937576,-29
32-22,298941482,-28
32-23,298945388,-29
32-24,298949294,-38
32-25,298953200,-36
32-26,298957106,-28
32-27,298961012,-29
32-28,298964918,-21
32-29,298968824,-58
32-30,298972730,-117
32-31,298976636,-84
32-32,298980542,-26
32-1,298984453,-33
32-2,298988359,-42
32-3,298992265,-29
32-4,298996171,-28
32-5,299000077,-31
32-6,299003983,-28
32-7,299007889,-26
32-8,299011795,-29
32-9,299015701,-29
32-10,299019607,-29
32-11,299023513,-27
32-12,299027419,-26
32-13,299031325,-30
32-14,299035231,-29
32-15,299039137,-29
32-16,299043043,-32
32-17,299046949,-35
32-18,299050855,-35
32-19,299054761,-32
32-20,299058667,-31
32-21,299062573,-34
32-22,299066479,-37
32-23,299070385,-36
32-24,299074291,-28
32-25,299078197,-27
32-26,299082103,-37
32-27,299086009,-28
32-28,299089915,-34
32-29,299093821,-69
32-30,299097727,-50
32-31,299101633,-10
32-32,299105539,-19
32-1,299109451,-31
32-2,299113357,-28
32-3,299117263,-30
32-4,299121169,-27
32-5,299125075,-25
32-6,299128981,-26
32-7,299132887,-31
32-8,299136793,-32
32-9,299140699,-31
32-10,299144605,-29
32-11,299148511,-26
32-12,299152417,-24
32-13,299156323,-26
32-14,299160229,-29
32-15,299164135,-32
32-16,299168041,-35
32-17,299171947,-32
32-18,299175853,-26
32-19,299179759,-30
32-20,299183665,-35
32-21,299187571,-32
32-22,299191477,-25
32-23,299195383,-23
32-24,299199289,-27
32-25,299203195,-32
32-26,299207101,-28
32-27,299211007,-25
32-28,299214913,-34
32-29,299218819,-23
32-30,299222725,-4
32-31,299226631,-18
32-32,299230537,-34
32-1,299234448,-31
32-2,299238354,-28
32-3,299242260,-27
32-4,299246166,-28
32-5,299250072,-31
32-6,299253978,-29
32-7,299257884,-32
32-8,299261790,-30
32-9,299265696,-28
32-10,299269602,-31
32-11,299273508,-26
32-12,299277414,-28
32-13,299281320,-38
32-14,299285226,-36
32-15,299289132,-29
32-16,299293038,-27
32-17,299296944,-31
32-18,299300850,-31
32-19,299304756,-26
32-20,299308662,-27
32-21,299312568,-29
32-22,299316474,-30
32-23,299320380,-31
32-24,299324286,-30
32-25,299328192,-30
32-26,299332098,-27
32-27,299336004,-36
32-28,299339910,-23
32-29,299343816,27
32-30,299347722,15
32-31,299351628,-34
32-32,299355534,-33
32-1,299359446,-26
32-2,299363352,-34
32-3,299367258,-38
32-4,299371164,-33
32-5,299375070,-25
32-6,299378976,-32
32-7,299382882,-41
32-8,299386788,-37
32-9,299390694,-31
32-10,299394600,-30
32-11,299398506,-36
32-12,299402412,-34
32-13,299406318,-29
32-14,299410224,-29
32-15,299414130,-27
32-16,299418036,-30
32-17,299421942,-33
32-18,299425848,-34
32-19,299429754,-31
32-20,299433660,-29
32-21,299437566,-30
32-22,299441472,-30
32-23,299445378,-30
32-24,299449284,-32
32-25,299453190,-33
32-26,299457096,-34
32-27,299461002,-27
32-28,299464908,-32
32-29,299468814,-47
32-30,299472720,-19
32-31,299476626,3
32-32,299480532,-25
32-1,299484474,-36
32-2,299488380,-28
32-3,299492286,-30
32-4,299496192,-32
32-5,299500098,-35
32-6,299504004,-37
32-7,299507910,-33
32-8,299511816,-28
32-9,299515722,-27
32-10,299519628,-32
32-11,299523534,-30
32-12,299527440,-28
32-13,299531346,-32
32-14,299535252,-33
32-15,299539158,-28
32-16,299543064,-26
32-17,299546970,-29
32-18,299550876,-36
32-19,299554782,-37
32-20,299558688,-33
32-21,299562594,-33
32-22,299566500,-36
32-23,299570406,-33
32-24,299574312,-31
32-25,299578218,-31
32-26,299582124,-27
32-27,299586030,-35
32-28,299589936,-37
32-29,299593842,-16
32-30,299597748,-33
32-31,299601654,-65
32-32,299605560,-40
32-1,299609563,-20
32-2,299613469,-29
32-3,299617375,-27
32-4,299621281,-25
32-5,299625187,-30
32-6,299629093,-35
32-7,299632999,-34
32-8,299636905,-27
32-9,299640811,-24
32-10,299644717,-24
32-11,299648623,-29
32-12,299652529,-34
32-13,299656435,-31
32-14,299660341,-30
32-15,299664247,-33
32-16,299668153,-33
32-17,299672059,-32
32-18,299675965,-29
32-19,299679871,-31
32-20,299683777,-39
32-21,299687683,-37
32-22,299691589,-28
32-23,299695495,-29
32-24,299699401,-38
32-25,299703307,-38
32-26,299707213,-22
32-27,299711119,-31
32-28,299715025,-37
32-29,299718931,-16
32-30,299722837,-38
32-31,299726743,-58
32-32,299730649,-34
32-1,299734439,-30
32-2,299738345,-37
32-3,299742251,-33
32-4,299746157,-36
32-5,299750063,-38
32-6,299753969,-32
32-7,299757875,-23
32-8,299761781,-28
32-9,299765687,-36
32-10,299769593,-35
32-11,299773499,-33
32-12,299777405,-31
32-13,299781311,-33
32-14,299785217,-30
32-15,299789123,-27
32-16,299793029,-32
32-17,299796935,-35
32-18,299800841,-34
32-19,299804747,-32
32-20,299808653,-23
32-21,299812559,-29
32-22,299816465,-43
32-23,299820371,-40
32-24,299824277,-27
32-25,299828183,-26
32-26,299832089,-33
32-27,299835995,-31
32-28,299839901,-31
32-29,299843807,-58
32-30,299847713,-63
32-31,299851619,-41
32-32,299855525,-29
32-1,299859437,-28
32-2,299863343,-31
32-3,299867249,-33
32-4,299871155,-24
32-5,299875061,-22
32-6,299878967,-35
32-7,299882873,-37
32-8,299886779,-27
32-9,299890685,-23
32-10,299894591,-23
32-11,299898497,-30
32-12,299902403,-38
32-13,299906309,-31
32-14,299910215,-23
32-15,299914121,-28
32-16,299918027,-31
32-17,299921933,-28
32-18,299925839,-28
32-19,299929745,-28
32-20,299933651,-29
32-21,299937557,-24
32-22,299941463,-26
32-23,299945369,-29
32-24,299949275,-31
32-25,299953181,-28
32-26,299957087,-15
32-27,299960993,-35
32-28,299964899,-29
32-29,299968805,26
32-30,299972711,-16
32-31,299976617,-76
32-32,299980523,-36
32-1,299984434,-22
32-2,299988340,-35
32-3,299992246,-25
32-4,299996152,-29
32-5,300000058,-27
32-6,300003964,-25
32-7,300007870,-33
32-8,300011776,-29
32-9,300015682,-25
32-10,300019588,-29
32-11,300023494,-31
32-12,300027400,-27
32-13,300031306,-30
32-14,300035212,-33
32-15,300039118,-34
32-16,300043024,-32
32-17,300046930,-30
32-18,300050836,-29
32-19,300054742,-29
32-20,300058648,-29
32-21,300062554,-33
32-22,300066460,-36
32-23,300070366,-34
32-24,300074272,-29
32-25,300078178,-31
32-26,300082084,-39
32-27,300085990,-27
32-28,300089896,-29
32-29,300093802,-70
32-30,300097708,-53
32-31,300101614,-9
32-32,300105520,-28
32-1,300109432,-40
32-2,300113338,-25
32-3,300117244,-29
32-4,300121150,-31
32-5,300125056,-26
32-6,300128962,-28
32-7,300132868,-29
32-8,300136774,-31
32-9,300140680,-30
32-10,300144586,-27
32-11,300148492,-31
32-12,300152398,-29
32-13,300156304,-24
32-14,300160210,-31
32-15,300164116,-36
32-16,300168022,-32
32-17,300171928,-28
32-18,300175834,-27
32-19,300179740,-28
32-20,300183646,-31
32-21,300187552,-28
32-22,300191458,-26
32-23,300195364,-27
32-24,300199270,-31
32-25,300203176,-32
32-26,300207082,-27
32-27,300210988,-35
32-28,300214894,-37
32-29,300218800,-22
32-30,300222706,-45
32-31,300226612,-58
32-32,300230518,-34
32-1,300234521,-29
32-2,300238427,-32
32-3,300242333,-26
32-4,300246239,-29
32-5,300250145,-32
32-6,300254051,-32
32-7,300257957,-27
32-8,300261863,-32
32-9,300265769,-38
32-10,300269675,-32
32-11,300273581,-28
32-12,300277487,-29
32-13,300281393,-29
32-14,300285299,-33
32-15,300289205,-34
32-16,300293111,-31
32-17,300297017,-32
32-18,300300923,-35
32-19,300304829,-32
32-20,300308735,-30
32-21,300312641,-30
32-22,300316547,-26
32-23,300320453,-27
32-24,300324359,-29
32-25,300328265,-27
32-26,300332171,-25
32-27,300336077,-31
32-28,300339983,-30
32-29,300343889,-15
32-30,300347795,-19
32-31,300351701,-39
32-32,300355607,-34
32-1,300359549,-23
32-2,300363455,-31
32-3,300367361,-36
32-4,300371267,-31
32-5,300375173,-30
32-6,300379079,-34
32-7,300382985,-32
32-8,300386891,-31
32-9,300390797,-31
32-10,300394703,-26
32-11,300398609,-27
32-12,300402515,-28
32-13,300406421,-26
32-14,300410327,-30
32-15,300414233,-33
32-16,300418139,-31
32-17,300422045,-32
32-18,300425951,-34
32-19,300429857,-28
32-20,300433763,-28
32-21,300437669,-31
32-22,300441575,-28
32-23,300445481,-30
32-24,300449387,-35
32-25,300453293,-32
32-26,300457199,-22
32-27,300461105,-26
32-28,300465011,-39
32-29,300468917,-32
32-30,300472823,-46
32-31,300476729,-66
32-32,300480635,-40
32-1,300484425,-24
32-2,300488331,-35
32-3,300492237,-31
32-4,300496143,-29
32-5,300500049,-30
32-6,300503955,-29
32-7,300507861,-29
32-8,300511767,-27
32-9,300515673,-29
32-10,300519579,-39
32-11,300523485,-36
32-12,300527391,-28
32-13,300531297,-30
32-14,300535203,-32
32-15,300539109,-27
32-16,300543015,-23
32-17,300546921,-30
32-18,300550827,-31
32-19,300554733,-23
32-20,300558639,-26
32-21,300562545,-33
32-22,300566451,-33
32-23,300570357,-29
32-24,300574263,-25
32-25,300578169,-28
32-26,300582075,-30
32-27,300585981,-28
32-28,300589887,-37
32-29,300593793,-56
32-30,300597699,-58
32-31,300601605,-45
32-32,300605511,-34
32-1,300609422,-29
32-2,300613328,-26
32-3,300617234,-27
32-4,300621140,-33
32-5,300625046,-34
32-6,300628952,-27
32-7,300632858,-28
32-8,300636764,-27
32-9,300640670,-23
32-10,300644576,-30
32-11,300648482,-34
32-12,300652388,-29
32-13,300656294,-29
32-14,300660200,-32
32-15,300664106,-30
32-16,300668012,-29
32-17,300671918,-34
32-18,300675824,-30
32-19,300679730,-22
32-20,300683636,-29
32-21,300687542,-31
32-22,300691448,-22
32-23,300695354,-19
32-24,300699260,-25
32-25,300703166,-31
32-26,300707072,-27
32-27,300710978,-22
32-28,300714884,-26
32-29,300718790,-29
32-30,300722696,-37
32-31,300726602,-38
32-32,300730508,-24
32-1,300734420,-21
32-2,300738326,-24
32-3,300742232,-19
32-4,300746138,-19
32-5,300750044,-20
32-6,300753950,-22
32-7,300757856,-23
32-8,300761762,-20
32-9,300765668,-19
32-10,300769574,-24
32-11,300773480,-25
32-12,300777386,-18
32-13,300781292,-13
32-14,300785198,-15
32-15,300789104,-14
32-16,300793010,-11
32-17,300796916,-8
32-18,300800822,-11
32-19,300804728,-15
32-20,300808634,-13
32-21,300812540,-13
32-22,300816446,-20
32-23,300820352,-26
32-24,300824258,-29
32-25,300828164,-33
32-26,300832070,-37
32-27,300835976,-36
32-28,300839882,-45
32-29,300843788,-58
32-30,300847694,-42
32-31,300851600,-28
32-32,300855506,-36
32-1,300859418,-33
32-2,300863324,-26
32-3,300867230,-24
32-4,300871136,-22
32-5,300875042,-26
32-6,300878948,-28
32-7,300882854,-21
32-8,300886760,-19
32-9,300890666,-28
32-10,300894572,-32
32-11,300898478,-25
32-12,300902384,-28
32-13,300906290,-45
32-14,300910196,-52
32-15,300914102,-47
32-16,300918008,-43
32-17,300921914,-42
32-18,300925820,-42
32-19,300929726,-37
32-20,300933632,-32
32-21,300937538,-37
32-22,300941444,-38
32-23,300945350,-32
32-24,300949256,-28
32-25,300953162,-33
32-26,300957068,-39
32-27,300960974,-36
32-28,300964880,-38
32-29,300968786,-32
32-30,300972692,-3
32-31,300976598,-8
32-32,300980504,-38
32-1,300984446,-40
32-2,300988352,-35
32-3,300992258,-35
32-4,300996164,-33
32-5,301000070,-34
32-6,301003976,-31
32-7,301007882,-32
32-8,301011788,-31
32-9,301015694,-30
32-10,301019600,-36
32-11,301023506,-40
32-12,301027412,-36
32-13,301031318,-31
32-14,301035224,-31
32-15,301039130,-30
32-16,301043036,-30
32-17,301046942,-30
32-18,301050848,-31
32-19,301054754,-31
32-20,301058660,-31
32-21,301062566,-32
32-22,301066472,-34
32-23,301070378,-33
32-24,301074284,-34
32-25,301078190,-35
32-26,301082096,-32
32-27,301086002,-27
32-28,301089908,-40
32-29,301093814,-29
32-30,301097720,30
32-31,301101626,22
32-32,301105532,-43
32-1,301109504,-44
32-2,301113410,-26
32-3,301117316,-30
32-4,301121222,-29
32-5,301125128,-33
32-6,301129034,-36
32-7,301132940,-27
32-8,301136846,-25
32-9,301140752,-36
32-10,301144658,-37
32-11,301148564,-30
32-12,301152470,-32
32-13,301156376,-32
32-14,301160282,-31
32-15,301164188,-32
32-16,301168094,-33
32-17,301172000,-38
32-18,301175906,-36
32-19,301179812,-32
32-20,301183718,-29
32-21,301187624,-33
32-22,301191530,-39
32-23,301195436,-39
32-24,301199342,-32
32-25,301203248,-28
32-26,301207154,-34
32-27,301211060,-36
32-28,301214966,-33
32-29,301218872,-51
32-30,301222778,-80
32-31,301226684,-72
32-32,301230590,-34
32-1,301234411,-24
32-2,301238317,-36
32-3,301242223,-37
32-4,301246129,-34
32-5,301250035,-29
32-6,301253941,-32
32-7,301257847,-45
32-8,301261753,-40
32-9,301265659,-28
32-10,301269565,-36
32-11,301273471,-44
32-12,301277377,-33
32-13,301281283,-24
32-14,301285189,-27
32-15,301289095,-35
32-16,301293001,-38
32-17,301296907,-35
32-18,301300813,-30
32-19,301304719,-31
32-20,301308625,-37
32-21,301312531,-38
32-22,301316437,-31
32-23,301320343,-26
32-24,301324249,-34
32-25,301328155,-40
32-26,301332061,-24
32-27,301335967,-29
32-28,301339873,-45
32-29,301343779,-4
32-30,301347685,30
32-31,301351591,-6
32-32,301355497,-35
32-1,301359408,-32
32-2,301363314,-29
32-3,301367220,-29
32-4,301371126,-29
32-5,301375032,-30
32-6,301378938,-33
32-7,301382844,-33
32-8,301386750,-32
32-9,301390656,-36
32-10,301394562,-37
32-11,301398468,-31
32-12,301402374,-29
32-13,301406280,-35
32-14,301410186,-40
32-15,301414092,-29
32-16,301417998,-25
32-17,301421904,-35
32-18,301425810,-36
32-19,301429716,-27
32-20,301433622,-29
32-21,301437528,-34
32-22,301441434,-35
32-23,301445340,-35
32-24,301449246,-31
32-25,301453152,-30
32-26,301457058,-41
32-27,301460964,-33
32-28,301464870,-33
32-29,301468776,-43
32-30,301472682,3
32-31,301476588,22
32-32,301480494,-29
32-1,301484406,-44
32-2,301488312,-31
32-3,301492218,-38
32-4,301496124,-37
32-5,301500030,-28
32-6,301503936,-30
32-7,301507842,-39
32-8,301511748,-37
32-9,301515654,-27
32-10,301519560,-28
32-11,301523466,-34
32-12,301527372,-31
32-13,301531278,-27
32-14,301535184,-30
32-15,301539090,-37
32-16,301542996,-36
32-17,301546902,-28
32-18,301550808,-23
32-19,301554714,-29
32-20,301558620,-36
32-21,301562526,-34
32-22,301566432,-32
32-23,301570338,-33
32-24,301574244,-35
32-25,301578150,-39
32-26,301582056,-30
32-27,301585962,-29
32-28,301589868,-39
32-29,301593774,-26
32-30,301597680,-27
32-31,301601586,-52
32-32,301605492,-45
32-1,301609403,-31
32-2,301613309,-32
32-3,301617215,-28
32-4,301621121,-30
32-5,301625027,-35
32-6,301628933,-29
32-7,301632839,-27
32-8,301636745,-33
32-9,301640651,-39
32-10,301644557,-33
32-11,301648463,-31
32-12,301652369,-35
32-13,301656275,-36
32-14,301660181,-38
32-15,301664087,-34
32-16,301667993,-23
32-17,301671899,-29
32-18,301675805,-37
32-19,301679711,-29
32-20,301683617,-25
32-21,301687523,-27
32-22,301691429,-31
32-23,301695335,-39
32-24,301699241,-38
32-25,301703147,-33
32-26,301707053,-35
32-27,301710959,-35
32-28,301714865,-28
32-29,301718771,-46
32-30,301722677,-75
32-31,301726583,-63
32-32,301730489,-28
32-1,301734432,-22
32-2,301738338,-31
32-3,301742244,-33
32-4,301746150,-31
32-5,301750056,-25
32-6,301753962,-25
32-7,301757868,-32
32-8,301761774,-34
32-9,301765680,-29
32-10,301769586,-25
32-11,301773492,-35
32-12,301777398,-35
32-13,301781304,-21
32-14,301785210,-25
32-15,301789116,-35
32-16,301793022,-30
32-17,301796928,-29
32-18,301800834,-33
32-19,301804740,-31
32-20,301808646,-36
32-21,301812552,-37
32-22,301816458,-25
32-23,301820364,-27
32-24,301824270,-32
32-25,301828176,-33
32-26,301832082,-28
32-27,301835988,-25
32-28,301839894,-34
32-29,301843800,-34
32-30,301847706,-60
32-31,301851612,-91
32-32,301855518,-51
32-1,301859368,-20
32-2,301863274,-33
32-3,301867180,-29
32-4,301871086,-28
32-5,301874992,-33
32-6,301878898,-29
32-7,301882804,-28
32-8,301886710,-31
32-9,301890616,-38
32-10,301894522,-38
32-11,301898428,-31
32-12,301902334,-31
32-13,301906240,-34
32-14,301910146,-34
32-15,301914052,-29
32-16,301917958,-26
32-17,301921864,-32
32-18,301925770,-31
32-19,301929676,-25
32-20,301933582,-28
32-21,301937488,-29
32-22,301941394,-33
32-23,301945300,-31
32-24,301949206,-20
32-25,301953112,-24
32-26,301957018,-29
32-27,301960924,-28
32-28,301964830,-34
32-29,301968736,-27
32-30,301972642,-19
32-31,301976548,-31
32-32,301980454,-35
32-1,301984396,-30
32-2,301988302,-33
32-3,301992208,-37
32-4,301996114,-33
32-5,302000020,-30
32-6,302003926,-31
32-7,302007832,-31
32-8,302011738,-30
32-9,302015644,-30
32-10,302019550,-32
32-11,302023456,-33
32-12,302027362,-35
32-13,302031268,-27
32-14,302035174,-22
32-15,302039080,-29
32-16,302042986,-33
32-17,302046892,-31
32-18,302050798,-33
32-19,302054704,-32
32-20,302058610,-31
32-21,302062516,-32
32-22,302066422,-30
32-23,302070328,-31
32-24,302074234,-36
32-25,302078140,-35
32-26,302082046,-29
32-27,302085952,-26
32-28,302089858,-32
32-29,302093764,-26
32-30,302097670,14
32-31,302101576,20
32-32,302105482,-26
32-1,302109455,-37
32-2,302113361,-19
32-3,302117267,-26
32-4,302121173,-35
32-5,302125079,-34
32-6,302128985,-32
32-7,302132891,-28
32-8,302136797,-30
32-9,302140703,-35
32-10,302144609,-33
32-11,302148515,-33
32-12,302152421,-33
32-13,302156327,-33
32-14,302160233,-35
32-15,302164139,-34
32-16,302168045,-28
32-17,302171951,-30
32-18,302175857,-31
32-19,302179763,-29
32-20,302183669,-33
32-21,302187575,-34
32-22,302191481,-32
32-23,302195387,-31
32-24,302199293,-25
32-25,302203199,-26
32-26,302207105,-35
32-27,302211011,-30
32-28,302214917,-31
32-29,302218823,-53
32-30,302222729,-52
32-31,302226635,-40
32-32,302230541,-38
32-1,302234392,-33
32-2,302238298,-30
32-3,302242204,-32
32-4,302246110,-32
32-5,302250016,-32
32-6,302253922,-32
32-7,302257828,-36
32-8,302261734,-34
32-9,302265640,-28
32-10,302269546,-29
32-11,302273452,-39
32-12,302277358,-39
32-13,302281264,-28
32-14,302285170,-33
32-15,302289076,-40
32-16,302292982,-38
32-17,302296888,-35
32-18,302300794,-30
32-19,302304700,-33
32-20,302308606,-34
32-21,302312512,-26
32-22,302316418,-28
32-23,302320324,-36
32-24,302324230,-35
32-25,302328136,-31
32-26,302332042,-36
32-27,302335948,-13
32-28,302339854,-41
32-29,302343760,-118
32-30,302347666,-73
32-31,302351572,2
32-32,302355478,-27
32-1,302359389,-43
32-2,302363295,-28
32-3,302367201,-27
32-4,302371107,-29
32-5,302375013,-33
32-6,302378919,-29
32-7,302382825,-25
32-8,302386731,-28
32-9,302390637,-32
32-10,302394543,-31
32-11,302398449,-28
32-12,302402355,-32
32-13,302406261,-30
32-14,302410167,-27
32-15,302414073,-30
32-16,302417979,-29
32-17,302421885,-33
32-18,302425791,-35
32-19,302429697,-28
32-20,302433603,-25
32-21,302437509,-27
32-22,302441415,-31
32-23,302445321,-34
32-24,302449227,-29
32-25,302453133,-31
32-26,302457039,-35
32-27,302460945,-29
32-28,302464851,-29
32-29,302468757,-20
32-30,302472663,11
32-31,302476569,8
32-32,302480475,-26
32-1,302484387,-35
32-2,302488293,-29
32-3,302492199,-35
32-4,302496105,-35
32-5,302500011,-26
32-6,302503917,-28
32-7,302507823,-34
32-8,302511729,-36
32-9,302515635,-33
32-10,302519541,-32
32-11,302523447,-32
32-12,302527353,-33
32-13,302531259,-33
32-14,302535165,-32
32-15,302539071,-35
32-16,302542977,-41
32-17,302546883,-39
32-18,302550789,-33
32-19,302554695,-32
32-20,302558601,-34
32-21,302562507,-32
32-22,302566413,-24
32-23,302570319,-28
32-24,302574225,-35
32-25,302578131,-36
32-26,302582037,-27
32-27,302585943,-23
32-28,302589849,-43
32-29,302593755,-31
32-30,302597661,11
32-31,302601567,-8
32-32,302605473,-42
32-1,302609385,-32
32-2,302613291,-28
32-3,302617197,-35
32-4,302621103,-32
32-5,302625009,-33
32-6,302628915,-34
32-7,302632821,-30
32-8,302636727,-32
32-9,302640633,-37
32-10,302644539,-37
32-11,302648445,-36
32-12,302652351,-33
32-13,302656257,-34
32-14,302660163,-39
32-15,302664069,-35
32-16,302667975,-31
32-17,302671881,-31
32-18,302675787,-35
32-19,302679693,-33
32-20,302683599,-26
32-21,302687505,-30
32-22,302691411,-37
32-23,302695317,-32
32-24,302699223,-33
32-25,302703129,-38
32-26,302707035,-23
32-27,302710941,-35
32-28,302714847,-43
32-29,302718753,0
32-30,302722659,-34
32-31,302726565,-92
32-32,302730471,-46
32-1,302734504,-17
32-2,302738410,-36
32-3,302742316,-30
32-4,302746222,-31
32-5,302750128,-33
32-6,302754034,-31
32-7,302757940,-35
32-8,302761846,-28
32-9,302765752,-27
32-10,302769658,-33
32-11,302773564,-30
32-12,302777470,-32
32-13,302781376,-34
32-14,302785282,-27
32-15,302789188,-31
32-16,302793094,-40
32-17,302797000,-33
32-18,302800906,-22
32-19,302804812,-31
32-20,302808718,-43
32-21,302812624,-32
32-22,302816530,-22
32-23,302820436,-29
32-24,302824342,-32
32-25,302828248,-29
32-26,302832154,-36
32-27,302836060,-25
32-28,302839966,-32
32-29,302843872,-48
32-30,302847778,14
32-31,302851684,41
32-32,302855590,-26
32-1,302859380,-43
32-2,302863286,-26
32-3,302867192,-34
32-4,302871098,-33
32-5,302875004,-34
32-6,302878910,-34
32-7,302882816,-26
32-8,302886722,-28
32-9,302890628,-33
32-10,302894534,-31
32-11,302898440,-30
32-12,302902346,-29
32-13,302906252,-26
32-14,302910158,-32
32-15,302914064,-30
32-16,302917970,-19
32-17,302921876,-26
32-18,302925782,-38
32-19,302929688,-30
32-20,302933594,-28
32-21,302937500,-35
32-22,302941406,-37
32-23,302945312,-33
32-24,302949218,-30
32-25,302953124,-35
32-26,302957030,-36
32-27,302960936,-33
32-28,302964842,-38
32-29,302968748,-38
32-30,302972654,-43
32-31,302976560,-50
32-32,302980466,-36
32-1,302984377,-24
32-2,302988283,-30
32-3,302992189,-36
32-4,302996095,-36
32-5,303000001,-27
32-6,303003907,-27
32-7,303007813,-34
32-8,303011719,-31
32-9,303015625,-27
32-10,303019531,-28
32-11,303023437,-32
32-12,303027343,-34
32-13,303031249,-34
32-14,303035155,-30
32-15,303039061,-35
32-16,303042967,-35
32-17,303046873,-25
32-18,303050779,-27
32-19,303054685,-35
32-20,303058591,-35
32-21,303062497,-31
32-22,303066403,-25
32-23,303070309,-26
32-24,303074215,-35
32-25,303078121,-34
32-26,303082027,-34
32-27,303085933,-25
32-28,303089839,-24
32-29,303093745,-64
32-30,303097651,-57
32-31,303101557,-7
32-32,303105463,-19
32-1,303109375,-42
32-2,303113281,-31
32-3,303117187,-24
32-4,303121093,-23
32-5,303124999,-32
32-6,303128905,-34
32-7,303132811,-26
32-8,303136717,-26
32-9,303140623,-30
32-10,303144529,-33
32-11,303148435,-31
32-12,303152341,-30
32-13,303156247,-34
32-14,303160153,-35
32-15,303164059,-27
32-16,303167965,-24
32-17,303171871,-27
32-18,303175777,-32
32-19,303179683,-32
32-20,303183589,-29
32-21,303187495,-29
32-22,303191401,-36
32-23,303195307,-33
32-24,303199213,-24
32-25,303203119,-26
32-26,303207025,-37
32-27,303210931,-26
32-28,303214837,-30
32-29,303218743,-39
32-30,303222649,-6
32-31,303226555,5
32-32,303230461,-23
32-1,303234403,-31
32-2,303238309,-32
32-3,303242215,-38
32-4,303246121,-33
32-5,303250027,-28
32-6,303253933,-27
32-7,303257839,-29
32-8,303261745,-32
32-9,303265651,-30
32-10,303269557,-29
32-11,303273463,-34
32-12,303277369,-35
32-13,303281275,-29
32-14,303285181,-30
32-15,303289087,-31
32-16,303292993,-31
32-17,303296899,-32
32-18,303300805,-31
32-19,303304711,-28
32-20,303308617,-37
32-21,303312523,-38
32-22,303316429,-26
32-23,303320335,-27
32-24,303324241,-32
32-25,303328147,-29
32-26,303332053,-32
32-27,303335959,-21
32-28,303339865,-39
32-29,303343771,-69
32-30,303347677,-24
32-31,303351583,4
32-32,303355489,-36
32-1,303359675,-41
32-2,303363581,-28
32-3,303367487,-32
32-4,303371393,-34
32-5,303375299,-35
32-6,303379205,-30
32-7,303383111,-27
32-8,303387017,-26
32-9,303390923,-23
32-10,303394829,-26
32-11,303398735,-28
32-12,303402641,-27
32-13,303406547,-30
32-14,303410453,-33
32-15,303414359,-31
32-16,303418265,-28
32-17,303422171,-27
32-18,303426077,-27
32-19,303429983,-28
32-20,303433889,-32
32-21,303437795,-33
32-22,303441701,-31
32-23,303445607,-32
32-24,303449513,-30
32-25,303453419,-25
32-26,303457325,-36
32-27,303461231,-43
32-28,303465137,-24
32-29,303469043,-68
32-30,303472949,-127
32-31,303476855,-70
32-32,303480761,-14
32-1,303484368,-25
32-2,303488274,-24
32-3,303492180,-29
32-4,303496086,-34
32-5,303499992,-25
32-6,303503898,-27
32-7,303507804,-28
32-8,303511710,-27
32-9,303515616,-30
32-10,303519522,-33
32-11,303523428,-34
32-12,303527334,-30
32-13,303531240,-24
32-14,303535146,-26
32-15,303539052,-28
32-16,303542958,-26
32-17,303546864,-23
32-18,303550770,-26
32-19,303554676,-32
32-20,303558582,-33
32-21,303562488,-28
32-22,303566394,-20
32-23,303570300,-23
32-24,303574206,-36
32-25,303578112,-40
32-26,303582018,-29
32-27,303585924,-25
32-28,303589830,-37
32-29,303593736,-47
32-30,303597642,-55
32-31,303601548,-51
32-32,303605454,-31
32-1,303609366,-29
32-2,303613272,-28
32-3,303617178,-22
32-4,303621084,-30
32-5,303624990,-31
32-6,303628896,-29
32-7,303632802,-34
32-8,303636708,-32
32-9,303640614,-27
32-10,303644520,-28
32-11,303648426,-28
32-12,303652332,-26
32-13,303656238,-33
32-14,303660144,-38
32-15,303664050,-32
32-16,303667956,-27
32-17,303671862,-28
32-18,303675768,-27
32-19,303679674,-24
32-20,303683580,-25
32-21,303687486,-30
32-22,303691392,-34
32-23,303695298,-31
32-24,303699204,-17
32-25,303703110,-17
32-26,303707016,-39
32-27,303710922,-24
32-28,303714828,-29
32-29,303718734,-93
32-30,303722640,-49
32-31,303726546,21
32-32,303730452,-27
32-1,303734363,-43
32-2,303738269,-20
32-3,303742175,-33
32-4,303746081,-32
32-5,303749987,-27
32-6,303753893,-32
32-7,303757799,-31
32-8,303761705,-28
32-9,303765611,-30
32-10,303769517,-27
32-11,303773423,-28
32-12,303777329,-36
32-13,303781235,-33
32-14,303785141,-27
32-15,303789047,-30
32-16,303792953,-33
32-17,303796859,-33
32-18,303800765,-29
32-19,303804671,-29
32-20,303808577,-31
32-21,303812483,-28
32-22,303816389,-25
32-23,303820295,-25
32-24,303824201,-26
32-25,303828107,-32
32-26,303832013,-36
32-27,303835919,-22
32-28,303839825,-31
32-29,303843731,-60
32-30,303847637,-34
32-31,303851543,-2
32-32,303855449,-26
32-1,303859361,-36
32-2,303863267,-25
32-3,303867173,-28
32-4,303871079,-32
32-5,303874985,-28
32-6,303878891,-26
32-7,303882797,-26
32-8,303886703,-32
32-9,303890609,-34
32-10,303894515,-32
32-11,303898421,-29
32-12,303902327,-24
32-13,303906233,-22
32-14,303910139,-27
32-15,303914045,-26
32-16,303917951,-22
32-17,303921857,-25
32-18,303925763,-32
32-19,303929669,-30
32-20,303933575,-22
32-21,303937481,-27
32-22,303941387,-34
32-23,303945293,-27
32-24,303949199,-22
32-25,303953105,-28
32-26,303957011,-36
32-27,303960917,-26
32-28,303964823,-31
32-29,303968729,-37
32-30,303972635,11
32-31,303976541,27
32-32,303980447,-26
32-1,303984572,-37
32-2,303988478,-25
32-3,303992384,-33
32-4,303996290,-33
32-5,304000196,-27
32-6,304004102,-27
32-7,304008008,-33
32-8,304011914,-32
32-9,304015820,-26
32-10,304019726,-27
32-11,304023632,-33
32-12,304027538,-30
32-13,304031444,-29
32-14,304035350,-32
32-15,304039256,-34
32-16,304043162,-36
32-17,304047068,-33
32-18,304050974,-29
32-19,304054880,-33
32-20,304058786,-36
32-21,304062692,-37
32-22,304066598,-37
32-23,304070504,-32
32-24,304074410,-32
32-25,304078316,-38
32-26,304082222,-32
32-27,304086128,-28
32-28,304090034,-32
32-29,304093940,-30
32-30,304097846,-55
32-31,304101752,-71
32-32,304105658,-35
32-1,304109417,-22
32-2,304113323,-31
32-3,304117229,-23
32-4,304121135,-29
32-5,304125041,-33
32-6,304128947,-25
32-7,304132853,-21
32-8,304136759,-24
32-9,304140665,-32
32-10,304144571,-31
32-11,304148477,-26
32-12,304152383,-30
32-13,304156289,-32
32-14,304160195,-31
32-15,304164101,-30
32-16,304168007,-25
32-17,304171913,-30
32-18,304175819,-37
32-19,304179725,-29
32-20,304183631,-22
32-21,304187537,-27
32-22,304191443,-37
32-23,304195349,-32
32-24,304199255,-24
32-25,304203161,-26
32-26,304207067,-29
32-27,304210973,-23
32-28,304214879,-34
32-29,304218785,-55
32-30,304222691,-24
32-31,304226597,0
32-32,304230503,-31
32-1,304234354,-31
32-2,304238260,-19
32-3,304242166,-33
32-4,304246072,-32
32-5,304249978,-29
32-6,304253884,-29
32-7,304257790,-30
32-8,304261696,-33
32-9,304265602,-29
32-10,304269508,-23
32-11,304273414,-28
32-12,304277320,-32
32-13,304281226,-29
32-14,304285132,-27
32-15,304289038,-29
32-16,304292944,-31
32-17,304296850,-28
32-18,304300756,-26
32-19,304304662,-31
32-20,304308568,-32
32-21,304312474,-29
32-22,304316380,-30
32-23,304320286,-30
32-24,304324192,-29
32-25,304328098,-28
32-26,304332004,-28
32-27,304335910,-28
32-28,304339816,-37
32-29,304343722,-37
32-30,304347628,-19
32-31,304351534,-19
32-32,304355440,-33
32-1,304359351,-30
32-2,304363257,-26
32-3,304367163,-32
32-4,304371069,-33
32-5,304374975,-32
32-6,304378881,-33
32-7,304382787,-34
32-8,304386693,-34
32-9,304390599,-34
32-10,304394505,-32
32-11,304398411,-28
32-12,304402317,-29
32-13,304406223,-32
32-14,304410129,-36
32-15,304414035,-34
32-16,304417941,-28
32-17,304421847,-28
32-18,304425753,-33
32-19,304429659,-31
32-20,304433565,-26
32-21,304437471,-31
32-22,304441377,-35
32-23,304445283,-29
32-24,304449189,-29
32-25,304453095,-32
32-26,304457001,-32
32-27,304460907,-33
32-28,304464813,-35
32-29,304468719,-30
32-30,304472625,-30
32-31,304476531,-29
32-32,304480437,-27
32-1,304484349,-28
32-2,304488255,-31
32-3,304492161,-31
32-4,304496067,-33
32-5,304499973,-28
32-6,304503879,-26
32-7,304507785,-31
32-8,304511691,-33
32-9,304515597,-32
32-10,304519503,-34
32-11,304523409,-35
32-12,304527315,-38
32-13,304531221,-36
32-14,304535127,-31
32-15,304539033,-33
32-16,304542939,-38
32-17,304546845,-28
32-18,304550751,-24
32-19,304554657,-30
32-20,304558563,-37
32-21,304562469,-34
32-22,304566375,-26
32-23,304570281,-23
32-24,304574187,-31
32-25,304578093,-35
32-26,304581999,-33
32-27,304585905,-31
32-28,304589811,-32
32-29,304593717,-24
32-30,304597623,-21
32-31,304601529,-29
32-32,304605435,-32
32-1,304609347,-30
32-2,304613253,-26
32-3,304617159,-22
32-4,304621065,-28
32-5,304624971,-35
32-6,304628877,-31
32-7,304632783,-22
32-8,304636689,-22
32-9,304640595,-30
32-10,304644501,-32
32-11,304648407,-27
32-12,304652313,-24
32-13,304656219,-31
32-14,304660125,-35
32-15,304664031,-28
32-16,304667937,-29
32-17,304671843,-32
32-18,304675749,-32
32-19,304679655,-29
32-20,304683561,-24
32-21,304687467,-25
32-22,304691373,-32
32-23,304695279,-30
32-24,304699185,-26
32-25,304703091,-30
32-26,304706997,-33
32-27,304710903,-37
32-28,304714809,-42
32-29,304718715,-28
32-30,304722621,-14
32-31,304726527,-31
32-32,304730433,-39
32-1,304734436,-27
32-2,304738342,-28
32-3,304742248,-36
32-4,304746154,-30
32-5,304750060,-23
32-6,304753966,-29
32-7,304757872,-37
32-8,304761778,-28
32-9,304765684,-22
32-10,304769590,-31
32-11,304773496,-36
32-12,304777402,-35
32-13,304781308,-31
32-14,304785214,-32
32-15,304789120,-38
32-16,304793026,-35
32-17,304796932,-30
32-18,304800838,-31
32-19,304804744,-30
32-20,304808650,-33
32-21,304812556,-32
32-22,304816462,-25
32-23,304820368,-30
32-24,304824274,-33
32-25,304828180,-31
32-26,304832086,-29
32-27,304835992,-30
32-28,304839898,-31
32-29,304843804,-18
32-30,304847710,-24
32-31,304851616,-58
32-32,304855522,-55
32-1,304859464,-24
32-2,304863370,-26
32-3,304867276,-36
32-4,304871182,-32
32-5,304875088,-31
32-6,304878994,-33
32-7,304882900,-31
32-8,304886806,-30
32-9,304890712,-34
32-10,304894618,-32
32-11,304898524,-27
32-12,304902430,-28
32-13,304906336,-30
32-14,304910242,-33
32-15,304914148,-28
32-16,304918054,-18
32-17,304921960,-25
32-18,304925866,-30
32-19,304929772,-23
32-20,304933678,-26
32-21,304937584,-35
32-22,304941490,-38
32-23,304945396,-35
32-24,304949302,-28
32-25,304953208,-34
32-26,304957114,-37
32-27,304961020,-28
32-28,304964926,-37
32-29,304968832,-26
32-30,304972738,8
32-31,304976644,-8
32-32,304980550,-37
32-1,304984340,-29
32-2,304988246,-26
32-3,304992152,-33
32-4,304996058,-30
32-5,304999964,-28
32-6,305003870,-32
32-7,305007776,-39
32-8,305011682,-36
32-9,305015588,-29
32-10,305019494,-30
32-11,305023400,-33
32-12,305027306,-33
32-13,305031212,-28
32-14,305035118,-26
32-15,305039024,-33
32-16,305042930,-35
32-17,305046836,-31
32-18,305050742,-30
32-19,305054648,-31
32-20,305058554,-33
32-21,305062460,-31
32-22,305066366,-32
32-23,305070272,-37
32-24,305074178,-34
32-25,305078084,-30
32-26,305081990,-30
32-27,305085896,-26
32-28,305089802,-28
32-29,305093708,-32
32-30,305097614,-18
32-31,305101520,-10
32-32,305105426,-28
32-1,305109337,-36
32-2,305113243,-26
32-3,305117149,-25
32-4,305121055,-29
32-5,305124961,-32
32-6,305128867,-35
32-7,305132773,-35
32-8,305136679,-32
32-9,305140585,-31
32-10,305144491,-36
32-11,305148397,-35
32-12,305152303,-26
32-13,305156209,-29
32-14,305160115,-40
32-15,305164021,-34
32-16,305167927,-27
32-17,305171833,-35
32-18,305175739,-40
32-19,305179645,-32
32-20,305183551,-30
32-21,305187457,-32
32-22,305191363,-32
32-23,305195269,-31
32-24,305199175,-30
32-25,305203081,-30
32-26,305206987,-34
32-27,305210893,-28
32-28,305214799,-33
32-29,305218705,-48
32-30,305222611,-26
32-31,305226517,-11
32-32,305230423,-34
32-1,305234335,-41
32-2,305238241,-32
32-3,305242147,-30
32-4,305246053,-30
32-5,305249959,-30
32-6,305253865,-28
32-7,305257771,-30
32-8,305261677,-33
32-9,305265583,-32
32-10,305269489,-29
32-11,305273395,-26
32-12,305277301,-27
32-13,305281207,-31
32-14,305285113,-30
32-15,305289019,-32
32-16,305292925,-33
32-17,305296831,-34
32-18,305300737,-30
32-19,305304643,-26
32-20,305308549,-30
32-21,305312455,-36
32-22,305316361,-35
32-23,305320267,-30
32-24,305324173,-31
32-25,305328079,-33
32-26,305331985,-26
32-27,305335891,-29
32-28,305339797,-39
32-29,305343703,-25
32-30,305347609,-19
32-31,305351515,-32
32-32,305355421,-34
32-1,305359332,-35
32-2,305363238,-35
32-3,305367144,-30
32-4,305371050,-29
32-5,305374956,-30
32-6,305378862,-30
32-7,305382768,-32
32-8,305386674,-34
32-9,305390580,-31
32-10,305394486,-28
32-11,305398392,-30
32-12,305402298,-31
32-13,305406204,-33
32-14,305410110,-36
32-15,305414016,-34
32-16,305417922,-28
32-17,305421828,-29
32-18,305425734,-32
32-19,305429640,-31
32-20,305433546,-30
32-21,305437452,-28
32-22,305441358,-33
32-23,305445264,-35
32-24,305449170,-32
32-25,305453076,-35
32-26,305456982,-26
32-27,305460888,-42
32-28,305464794,-35
32-29,305468700,41
32-30,305472606,25
32-31,305476512,-53
32-32,305480418,-40
32-1,305484452,-19
32-2,305488358,-32
32-3,305492264,-30
32-4,305496170,-26
32-5,305500076,-28
32-6,305503982,-31
32-7,305507888,-35
32-8,305511794,-35
32-9,305515700,-27
32-10,305519606,-28
32-11,305523512,-36
32-12,305527418,-31
32-13,305531324,-28
32-14,305535230,-31
32-15,305539136,-32
32-16,305543042,-33
32-17,305546948,-37
32-18,305550854,-35
32-19,305554760,-31
32-20,305558666,-34
32-21,305562572,-41
32-22,305566478,-34
32-23,305570384,-32
32-24,305574290,-37
32-25,305578196,-36
32-26,305582102,-35
32-27,305586008,-30
32-28,305589914,-38
32-29,305593820,-69
32-30,305597726,-58
32-31,305601632,-26
32-32,305605538,-33
32-1,305609450,-41
32-2,305613356,-36
32-3,305617262,-31
32-4,305621168,-28
32-5,305625074,-32
32-6,305628980,-33
32-7,305632886,-27
32-8,305636792,-29
32-9,305640698,-32
32-10,305644604,-30
32-11,305648510,-30
32-12,305652416,-35
32-13,305656322,-33
32-14,305660228,-33
32-15,305664134,-34
32-16,305668040,-32
32-17,305671946,-34
32-18,305675852,-39
32-19,305679758,-33
32-20,305683664,-29
32-21,305687570,-33
32-22,305691476,-36
32-23,305695382,-32
32-24,305699288,-30
32-25,305703194,-31
32-26,305707100,-33
32-27,305711006,-32
32-28,305714912,-38
32-29,305718818,-50
32-30,305722724,-44
32-31,305726630,-32
32-32,305730536,-29
32-1,305734325,-26
32-2,305738231,-29
32-3,305742137,-34
32-4,305746043,-33
32-5,305749949,-29
32-6,305753855,-28
32-7,305757761,-33
32-8,305761667,-36
32-9,305765573,-32
32-10,305769479,-28
32-11,305773385,-29
32-12,305777291,-27
32-13,305781197,-25
32-14,305785103,-25
32-15,305789009,-29
32-16,305792915,-34
32-17,305796821,-32
32-18,305800727,-30
32-19,305804633,-32
32-20,305808539,-35
32-21,305812445,-36
32-22,305816351,-33
32-23,305820257,-28
32-24,305824163,-27
32-25,305828069,-33
32-26,305831975,-31
32-27,305835881,-37
32-28,305839787,-38
32-29,305843693,-7
32-30,305847599,-21
32-31,305851505,-61
32-32,305855411,-42
32-1,305859323,-25
32-2,305863229,-34
32-3,305867135,-30
32-4,305871041,-33
32-5,305874947,-36
32-6,305878853,-36
32-7,305882759,-32
32-8,305886665,-30
32-9,305890571,-31
32-10,305894477,-26
32-11,305898383,-27
32-12,305902289,-28
32-13,305906195,-27
32-14,305910101,-35
32-15,305914007,-34
32-16,305917913,-27
32-17,305921819,-34
32-18,305925725,-41
32-19,305929631,-33
32-20,305933537,-27
32-21,305937443,-30
32-22,305941349,-34
32-23,305945255,-32
32-24,305949161,-28
32-25,305953067,-30
32-26,305956973,-32
32-27,305960879,-28
32-28,305964785,-31
32-29,305968691,-34
32-30,305972597,-27
32-31,305976503,-27
32-32,305980409,-35
32-1,305984321,-32
32-2,305988227,-29
32-3,305992133,-31
32-4,305996039,-26
32-5,305999945,-21
32-6,306003851,-26
32-7,306007757,-32
32-8,306011663,-34
32-9,306015569,-28
32-10,306019475,-23
32-11,306023381,-30
32-12,306027287,-33
32-13,306031193,-27
32-14,306035099,-26
32-15,306039005,-28
32-16,306042911,-30
32-17,306046817,-32
32-18,306050723,-32
32-19,306054629,-30
32-20,306058535,-36
32-21,306062441,-35
32-22,306066347,-28
32-23,306070253,-29
32-24,306074159,-35
32-25,306078065,-32
32-26,306081971,-20
32-27,306085877,-34
32-28,306089783,-29
32-29,306093689,20
32-30,306097595,-1
32-31,306101501,-55
32-32,306105407,-39
32-1,306109318,-29
32-2,306113224,-37
32-3,306117130,-29
32-4,306121036,-30
32-5,306124942,-33
32-6,306128848,-28
32-7,306132754,-27
32-8,306136660,-31
32-9,306140566,-31
32-10,306144472,-29
32-11,306148378,-32
32-12,306152284,-33
32-13,306156190,-33
32-14,306160096,-29
32-15,306164002,-30
32-16,306167908,-30
32-17,306171814,-27
32-18,306175720,-36
32-19,306179626,-37
32-20,306183532,-24
32-21,306187438,-28
32-22,306191344,-39
32-23,306195250,-39
32-24,306199156,-30
32-25,306203062,-28
32-26,306206968,-38
32-27,306210874,-25
32-28,306214780,-33
32-29,306218686,-64
32-30,306222592,-12
32-31,306226498,26
32-32,306230404,-30
32-1,306234468,-45
32-2,306238374,-28
32-3,306242280,-38
32-4,306246186,-35
32-5,306250092,-29
32-6,306253998,-30
32-7,306257904,-34
32-8,306261810,-35
32-9,306265716,-24
32-10,306269622,-23
32-11,306273528,-31
32-12,306277434,-29
32-13,306281340,-25
32-14,306285246,-22
32-15,306289152,-24
32-16,306293058,-26
32-17,306296964,-14
32-18,306300870,-12
32-19,306304776,-21
32-20,306308682,-19
32-21,306312588,-23
32-22,306316494,-24
32-23,306320400,-17
32-24,306324306,-23
32-25,306328212,-26
32-26,306332118,-11
32-27,306336024,-15
32-28,306339930,-32
32-29,306343836,-20
32-30,306347742,-21
32-31,306351648,-57
32-32,306355554,-52
32-1,306359466,-25
32-2,306363372,-27
32-3,306367278,-29
32-4,306371184,-31
32-5,306375090,-40
32-6,306378996,-37
32-7,306382902,-28
32-8,306386808,-31
32-9,306390714,-40
32-10,306394620,-35
32-11,306398526,-25
32-12,306402432,-27
32-13,306406338,-34
32-14,306410244,-33
32-15,306414150,-27
32-16,306418056,-26
32-17,306421962,-26
32-18,306425868,-31
32-19,306429774,-32
32-20,306433680,-24
32-21,306437586,-27
32-22,306441492,-35
32-23,306445398,-30
32-24,306449304,-28
32-25,306453210,-32
32-26,306457116,-28
32-27,306461022,-40
32-28,306464928,-41
32-29,306468834,-6
32-30,306472740,-21
32-31,306476646,-59
32-32,306480552,-34
32-1,306484311,-15
32-2,306488217,-26
32-3,306492123,-26
32-4,306496029,-24
32-5,306499935,-20
32-6,306503841,-24
32-7,306507747,-33
32-8,306511653,-28
32-9,306515559,-19
32-10,306519465,-24
32-11,306523371,-28
32-12,306527277,-25
32-13,306531183,-27
32-14,306535089,-26
32-15,306538995,-25
32-16,306542901,-33
32-17,306546807,-33
32-18,306550713,-28
32-19,306554619,-31
32-20,306558525,-36
32-21,306562431,-33
32-22,306566337,-26
32-23,306570243,-29
32-24,306574149,-37
32-25,306578055,-36
32-26,306581961,-31
32-27,306585867,-28
32-28,306589773,-47
32-29,306593679,-59
32-30,306597585,-26
32-31,306601491,-8
32-32,306605397,-32
32-1,306609309,-42
32-2,306613215,-33
32-3,306617121,-27
32-4,306621027,-32
32-5,306624933,-43
32-6,306628839,-45
32-7,306632745,-37
32-8,306636651,-33
32-9,306640557,-41
32-10,306644463,-40
32-11,306648369,-34
32-12,306652275,-35
32-13,306656181,-35
32-14,306660087,-36
32-15,306663993,-35
32-16,306667899,-33
32-17,306671805,-38
32-18,306675711,-42
32-19,306679617,-34
32-20,306683523,-31
32-21,306687429,-37
32-22,306691335,-44
32-23,306695241,-41
32-24,306699147,-33
32-25,306703053,-29
32-26,306706959,-39
32-27,306710865,-44
32-28,306714771,-33
32-29,306718677,-35
32-30,306722583,-39
32-31,306726489,-32
32-32,306730395,-36
32-1,306734306,-32
32-2,306738212,-25
32-3,306742118,-38
32-4,306746024,-37
32-5,306749930,-24
32-6,306753836,-28
32-7,306757742,-35
32-8,306761648,-34
32-9,306765554,-27
32-10,306769460,-29
32-11,306773366,-40
32-12,306777272,-39
32-13,306781178,-29
32-14,306785084,-30
32-15,306788990,-41
32-16,306792896,-43
32-17,306796802,-37
32-18,306800708,-34
32-19,306804614,-34
32-20,306808520,-39
32-21,306812426,-41
32-22,306816332,-31
32-23,306820238,-28
32-24,306824144,-39
32-25,306828050,-44
32-26,306831956,-31
32-27,306835862,-30
32-28,306839768,-40
32-29,306843674,-33
32-30,306847580,-53
32-31,306851486,-67
32-32,306855392,-40
32-1,306859304,-37
32-2,306863210,-40
32-3,306867116,-24
32-4,306871022,-30
32-5,306874928,-42
32-6,306878834,-37
32-7,306882740,-31
32-8,306886646,-34
32-9,306890552,-42
32-10,306894458,-44
32-11,306898364,-34
32-12,306902270,-30
32-13,306906176,-36
32-14,306910082,-39
32-15,306913988,-30
32-16,306917894,-26
32-17,306921800,-32
32-18,306925706,-36
32-19,306929612,-30
32-20,306933518,-26
32-21,306937424,-30
32-22,306941330,-33
32-23,306945236,-32
32-24,306949142,-32
32-25,306953048,-31
32-26,306956954,-36
32-27,306960860,-30
32-28,306964766,-33
32-29,306968672,-38
32-30,306972578,5
32-31,306976484,18
32-32,306980390,-26
32-1,306984485,-34
32-2,306988391,-24
32-3,306992297,-33
32-4,306996203,-33
32-5,307000109,-25
32-6,307004015,-25
32-7,307007921,-36
32-8,307011827,-39
32-9,307015733,-25
32-10,307019639,-23
32-11,307023545,-36
32-12,307027451,-37
32-13,307031357,-23
32-14,307035263,-20
32-15,307039169,-30
32-16,307043075,-36
32-17,307046981,-28
32-18,307050887,-24
32-19,307054793,-34
32-20,307058699,-37
32-21,307062605,-33
32-22,307066511,-28
32-23,307070417,-29
32-24,307074323,-37
32-25,307078229,-40
32-26,307082135,-30
32-27,307086041,-21
32-28,307089947,-40
32-29,307093853,-36
32-30,307097759,1
32-31,307101665,-12
32-32,307105571,-42
32-1,307109482,-31
32-2,307113388,-26
32-3,307117294,-28
32-4,307121200,-23
32-5,307125106,-30
32-6,307129012,-34
32-7,307132918,-27
32-8,307136824,-25
32-9,307140730,-32
32-10,307144636,-32
32-11,307148542,-28
32-12,307152448,-30
32-13,307156354,-33
32-14,307160260,-39
32-15,307164166,-33
32-16,307168072,-19
32-17,307171978,-22
32-18,307175884,-38
32-19,307179790,-32
32-20,307183696,-20
32-21,307187602,-27
32-22,307191508,-34
32-23,307195414,-33
32-24,307199320,-30
32-25,307203226,-26
32-26,307207132,-26
32-27,307211038,-34
32-28,307214944,-44
32-29,307218850,-13
32-30,307222756,8
32-31,307226662,-25
32-32,307230568,-37
32-1,307234297,-23
32-2,307238203,-28
32-3,307242109,-32
32-4,307246015,-35
32-5,307249921,-31
32-6,307253827,-30
32-7,307257733,-37
32-8,307261639,-35
32-9,307265545,-30
32-10,307269451,-32
32-11,307273357,-34
32-12,307277263,-36
32-13,307281169,-33
32-14,307285075,-26
32-15,307288981,-32
32-16,307292887,-41
32-17,307296793,-36
32-18,307300699,-30
32-19,307304605,-29
32-20,307308511,-35
32-21,307312417,-35
32-22,307316323,-31
32-23,307320229,-32
32-24,307324135,-36
32-25,307328041,-37
32-26,307331947,-25
32-27,307335853,-33
32-28,307339759,-29
32-29,307343665,20
32-30,307347571,13
32-31,307351477,-33
32-32,307355383,-31
32-1,307359295,-33
32-2,307363201,-41
32-3,307367107,-32
32-4,307371013,-31
32-5,307374919,-40
32-6,307378825,-40
32-7,307382731,-30
32-8,307386637,-32
32-9,307390543,-38
32-10,307394449,-35
32-11,307398355,-30
32-12,307402261,-28
32-13,307406167,-34
32-14,307410073,-34
32-15,307413979,-27
32-16,307417885,-29
32-17,307421791,-34
32-18,307425697,-33
32-19,307429603,-34
32-20,307433509,-33
32-21,307437415,-28
32-22,307441321,-31
32-23,307445227,-37
32-24,307449133,-28
32-25,307453039,-26
32-26,307456945,-39
32-27,307460851,-41
32-28,307464757,-37
32-29,307468663,-19
32-30,307472569,15
32-31,307476475,-5
32-32,307480381,-40
32-1,307484292,-31
32-2,307488198,-28
32-3,307492104,-40
32-4,307496010,-37
32-5,307499916,-31
32-6,307503822,-29
32-7,307507728,-35
32-8,307511634,-36
32-9,307515540,-30
32-10,307519446,-31
32-11,307523352,-35
32-12,307527258,-34
32-13,307531164,-31
32-14,307535070,-34
32-15,307538976,-35
32-16,307542882,-36
32-17,307546788,-33
32-18,307550694,-31
32-19,307554600,-33
32-20,307558506,-34
32-21,307562412,-32
32-22,307566318,-29
32-23,307570224,-31
32-24,307574130,-33
32-25,307578036,-32
32-26,307581942,-31
32-27,307585848,-28
32-28,307589754,-38
32-29,307593660,-54
32-30,307597566,-37
32-31,307601472,-19
32-32,307605378,-28
32-1,307609290,-37
32-2,307613196,-36
32-3,307617102,-29
32-4,307621008,-28
32-5,307624914,-39
32-6,307628820,-38
32-7,307632726,-28
32-8,307636632,-30
32-9,307640538,-38
32-10,307644444,-37
32-11,307648350,-28
32-12,307652256,-30
32-13,307656162,-40
32-14,307660068,-40
32-15,307663974,-35
32-16,307667880,-32
32-17,307671786,-34
32-18,307675692,-38
32-19,307679598,-37
32-20,307683504,-37
32-21,307687410,-36
32-22,307691316,-38
32-23,307695222,-39
32-24,307699128,-28
32-25,307703034,-28
32-26,307706940,-35
32-27,307710846,-33
32-28,307714752,-30
32-29,307718658,-18
32-30,307722564,-31
32-31,307726470,-59
32-32,307730376,-42
32-1,307734471,-25
32-2,307738377,-35
32-3,307742283,-36
32-4,307746189,-34
32-5,307750095,-29
32-6,307754001,-28
32-7,307757907,-40
32-8,307761813,-42
32-9,307765719,-30
32-10,307769625,-27
32-11,307773531,-32
32-12,307777437,-37
32-13,307781343,-32
32-14,307785249,-27
32-15,307789155,-32
32-16,307793061,-38
32-17,307796967,-33
32-18,307800873,-28
32-19,307804779,-31
32-20,307808685,-35
32-21,307812591,-33
32-22,307816497,-33
32-23,307820403,-37
32-24,307824309,-38
32-25,307828215,-31
32-26,307832121,-31
32-27,307836027,-32
32-28,307839933,-20
32-29,307843839,-34
32-30,307847745,-40
32-31,307851651,-12
32-32,307855557,-24
32-1,307859468,-48
32-2,307863374,-35
32-3,307867280,-28
32-4,307871186,-33
32-5,307875092,-40
32-6,307878998,-39
32-7,307882904,-28
32-8,307886810,-27
32-9,307890716,-34
32-10,307894622,-40
32-11,307898528,-35
32-12,307902434,-29
32-13,307906340,-33
32-14,307910246,-36
32-15,307914152,-31
32-16,307918058,-31
32-17,307921964,-38
32-18,307925870,-42
32-19,307929776,-33
32-20,307933682,-28
32-21,307937588,-31
32-22,307941494,-36
32-23,307945400,-34
32-24,307949306,-26
32-25,307953212,-30
32-26,307957118,-26
32-27,307961024,-40
32-28,307964930,-40
32-29,307968836,46
32-30,307972742,39
32-31,307976648,-69
32-32,307980554,-57
32-1,307984283,-15
32-2,307988189,-37
32-3,307992095,-41
32-4,307996001,-38
32-5,307999907,-36
32-6,308003813,-33
32-7,308007719,-36
32-8,308011625,-37
32-9,308015531,-36
32-10,308019437,-30
32-11,308023343,-32
32-12,308027249,-35
32-13,308031155,-30
32-14,308035061,-31
32-15,308038967,-38
32-16,308042873,-37
32-17,308046779,-31
32-18,308050685,-26
32-19,308054591,-27
32-20,308058497,-31
32-21,308062403,-31
32-22,308066309,-28
32-23,308070215,-27
32-24,308074121,-31
32-25,308078027,-37
32-26,308081933,-33
32-27,308085839,-28
32-28,308089745,-35
32-29,308093651,-34
32-30,308097557,-16
32-31,308101463,-12
32-32,308105369,-27
32-1,308109280,-34
32-2,308113186,-35
32-3,308117092,-34
32-4,308120998,-31
32-5,308124904,-38
32-6,308128810,-37
32-7,308132716,-26
32-8,308136622,-29
32-9,308140528,-34
32-10,308144434,-32
32-11,308148340,-35
32-12,308152246,-36
32-13,308156152,-38
32-14,308160058,-40
32-15,308163964,-34
32-16,308167870,-29
32-17,308171776,-33
32-18,308175682,-36
32-19,308179588,-36
32-20,308183494,-27
32-21,308187400,-25
32-22,308191306,-36
32-23,308195212,-40
32-24,308199118,-34
32-25,308203024,-32
32-26,308206930,-35
32-27,308210836,-30
32-28,308214742,-31
32-29,308218648,-28
32-30,308222554,-3
32-31,308226460,-4
32-32,308230366,-30
32-1,308234339,-31
32-2,308238245,-32
32-3,308242151,-42
32-4,308246057,-38
32-5,308249963,-30
32-6,308253869,-31
32-7,308257775,-39
32-8,308261681,-37
32-9,308265587,-28
32-10,308269493,-29
32-11,308273399,-34
32-12,308277305,-32
32-13,308281211,-28
32-14,308285117,-29
32-15,308289023,-33
32-16,308292929,-36
32-17,308296835,-42
32-18,308300741,-36
32-19,308304647,-29
32-20,308308553,-38
32-21,308312459,-39
32-22,308316365,-31
32-23,308320271,-32
32-24,308324177,-41
32-25,308328083,-40
32-26,308331989,-34
32-27,308335895,-30
32-28,308339801,-44
32-29,308343707,-71
32-30,308347613,-57
32-31,308351519,-26
32-32,308355425,-29
32-1,308359276,-36
32-2,308363182,-36
32-3,308367088,-38
32-4,308370994,-37
32-5,308374900,-38
32-6,308378806,-36
32-7,308382712,-29
32-8,308386618,-30
32-9,308390524,-36
32-10,308394430,-28
32-11,308398336,-23
32-12,308402242,-30
32-13,308406148,-33
32-14,308410054,-36
32-15,308413960,-39
32-16,308417866,-31
32-17,308421772,-30
32-18,308425678,-39
32-19,308429584,-36
32-20,308433490,-30
32-21,308437396,-34
32-22,308441302,-38
32-23,308445208,-40
32-24,308449114,-33
32-25,308453020,-28
32-26,308456926,-40
32-27,308460832,-24
32-28,308464738,-44
32-29,308468644,-99
32-30,308472550,-55
32-31,308476456,-8
32-32,308480362,-35
32-1,308484456,-30
32-2,308488362,-22
32-3,308492268,-39
32-4,308496174,-33
32-5,308500080,-24
32-6,308503986,-24
32-7,308507892,-32
32-8,308511798,-38
32-9,308515704,-31
32-10,308519610,-27
32-11,308523516,-36
32-12,308527422,-34
32-13,308531328,-25
32-14,308535234,-26
32-15,308539140,-32
32-16,308543046,-39
32-17,308546952,-36
32-18,308550858,-31
32-19,308554764,-35
32-20,308558670,-37
32-21,308562576,-30
32-22,308566482,-26
32-23,308570388,-25
32-24,308574294,-32
32-25,308578200,-39
32-26,308582106,-35
32-27,308586012,-34
32-28,308589918,-28
32-29,308593824,-35
32-30,308597730,-54
32-31,308601636,-32
32-32,308605542,-14
32-1,308609454,-37
32-2,308613360,-40
32-3,308617266,-28
32-4,308621172,-33
32-5,308625078,-37
32-6,308628984,-36
32-7,308632890,-32
32-8,308636796,-30
32-9,308640702,-31
32-10,308644608,-30
32-11,308648514,-24
32-12,308652420,-23
32-13,308656326,-35
32-14,308660232,-39
32-15,308664138,-32
32-16,308668044,-29
32-17,308671950,-31
32-18,308675856,-31
32-19,308679762,-30
32-20,308683668,-25
32-21,308687574,-27
32-22,308691480,-35
32-23,308695386,-33
32-24,308699292,-27
32-25,308703198,-25
32-26,308707104,-32
32-27,308711010,-31
32-28,308714916,-24
32-29,308718822,-56
32-30,308722728,-80
32-31,308726634,-48
32-32,308730540,-26
32-1,308734268,-30
32-2,308738174,-30
32-3,308742080,-34
32-4,308745986,-41
32-5,308749892,-35
32-6,308753798,-27
32-7,308757704,-32
32-8,308761610,-35
32-9,308765516,-27
32-10,308769422,-27
32-11,308773328,-32
32-12,308777234,-35
32-13,308781140,-33
32-14,308785046,-28
32-15,308788952,-31
32-16,308792858,-36
32-17,308796764,-33
32-18,308800670,-29
32-19,308804576,-31
32-20,308808482,-34
32-21,308812388,-34
32-22,308816294,-29
32-23,308820200,-27
32-24,308824106,-30
32-25,308828012,-32
32-26,308831918,-31
32-27,308835824,-28
32-28,308839730,-39
32-29,308843636,-38
32-30,308847542,-2
32-31,308851448,-1
32-32,308855354,-34
32-1,308859388,-39
32-2,308863294,-32
32-3,308867200,-27
32-4,308871106,-24
32-5,308875012,-32
32-6,308878918,-38
32-7,308882824,-29
32-8,308886730,-22
32-9,308890636,-30
32-10,308894542,-36
32-11,308898448,-27
32-12,308902354,-26
32-13,308906260,-30
32-14,308910166,-31
32-15,308914072,-28
32-16,308917978,-26
32-17,308921884,-31
32-18,308925790,-39
32-19,308929696,-38
32-20,308933602,-32
32-21,308937508,-30
32-22,308941414,-35
32-23,308945320,-36
32-24,308949226,-30
32-25,308953132,-27
32-26,308957038,-37
32-27,308960944,-27
32-28,308964850,-29
32-29,308968756,-43
32-30,308972662,-3
32-31,308976568,15
32-32,308980474,-30
32-1,308984264,-38
32-2,308988170,-27
32-3,308992076,-34
32-4,308995982,-30
32-5,308999888,-21
32-6,309003794,-27
32-7,309007700,-39
32-8,309011606,-37
32-9,309015512,-29
32-10,309019418,-29
32-11,309023324,-33
32-12,309027230,-38
32-13,309031136,-33
32-14,309035042,-26
32-15,309038948,-33
32-16,309042854,-36
32-17,309046760,-30
32-18,309050666,-27
32-19,309054572,-29
32-20,309058478,-35
32-21,309062384,-36
32-22,309066290,-27
32-23,309070196,-26
32-24,309074102,-36
32-25,309078008,-42
32-26,309081914,-28
32-27,309085820,-25
32-28,309089726,-36
32-29,309093632,-25
32-30,309097538,-41
32-31,309101444,-64
32-32,309105350,-35
32-1,309109261,-25
32-2,309113167,-38
32-3,309117073,-30
32-4,309120979,-31
32-5,309124885,-40
32-6,309128791,-36
32-7,309132697,-26
32-8,309136603,-22
32-9,309140509,-27
32-10,309144415,-34
32-11,309148321,-33
32-12,309152227,-30
32-13,309156133,-33
32-14,309160039,-36
32-15,309163945,-31
32-16,309167851,-28
32-17,309171757,-34
32-18,309175663,-39
32-19,309179569,-33
32-20,309183475,-31
32-21,309187381,-33
32-22,309191287,-33
32-23,309195193,-33
32-24,309199099,-31
32-25,309203005,-26
32-26,309206911,-36
32-27,309210817,-34
32-28,309214723,-31
32-29,309218629,-60
32-30,309222535,-43
32-31,309226441,0
32-32,309230347,-23
32-1,309234442,-39
32-2,309238348,-30
32-3,309242254,-39
32-4,309246160,-33
32-5,309250066,-23
32-6,309253972,-32
32-7,309257878,-39
32-8,309261784,-33
32-9,309265690,-27
32-10,309269596,-31
32-11,309273502,-38
32-12,309277408,-38
32-13,309281314,-32
32-14,309285220,-26
32-15,309289126,-26
32-16,309293032,-32
32-17,309296938,-35
32-18,309300844,-27
32-19,309304750,-27
32-20,309308656,-33
32-21,309312562,-37
32-22,309316468,-31
32-23,309320374,-26
32-24,309324280,-28
32-25,309328186,-33
32-26,309332092,-31
32-27,309335998,-25
32-28,309339904,-36
32-29,309343810,-50
32-30,309347716,-31
32-31,309351622,-22
32-32,309355528,-34
32-1,309359434,-33
32-2,309363340,-28
32-3,309367246,-24
32-4,309371152,-21
32-5,309375058,-29
32-6,309378964,-36
32-7,309382870,-30
32-8,309386776,-25
32-9,309390682,-32
32-10,309394588,-36
32-11,309398494,-29
32-12,309402400,-28
32-13,309406306,-35
32-14,309410212,-36
32-15,309414118,-28
32-16,309418024,-19
32-17,309421930,-24
32-18,309425836,-37
32-19,309429742,-31
32-20,309433648,-24
32-21,309437554,-27
32-22,309441460,-30
32-23,309445366,-28
32-24,309449272,-28
32-25,309453178,-35
32-26,309457084,-30
32-27,309460990,-49
32-28,309464896,-35
32-29,309468802,45
32-30,309472708,1
32-31,309476614,-87
32-32,309480520,-40
32-1,309484376,-10
32-2,309488282,-37
32-3,309492188,-35
32-4,309496094,-34
32-5,309500000,-27
32-6,309503906,-23
32-7,309507812,-36
32-8,309511718,-39
32-9,309515624,-25
32-10,309519530,-23
32-11,309523436,-32
32-12,309527342,-37
32-13,309531248,-34
32-14,309535154,-29
32-15,309539060,-33
32-16,309542966,-36
32-17,309546872,-29
32-18,309550778,-26
32-19,309554684,-31
32-20,309558590,-37
32-21,309562496,-37
32-22,309566402,-32
32-23,309570308,-29
32-24,309574214,-32
32-25,309578120,-35
32-26,309582026,-41
32-27,309585932,-20
32-28,309589838,-33
32-29,309593744,-84
32-30,309597650,-9
32-31,309601556,67
32-32,309605462,-8
32-1,309609252,-51
32-2,309613158,-29
32-3,309617064,-32
32-4,309620970,-35
32-5,309624876,-35
32-6,309628782,-34
32-7,309632688,-32
32-8,309636594,-31
32-9,309640500,-31
32-10,309644406,-38
32-11,309648312,-35
32-12,309652218,-28
32-13,309656124,-32
32-14,309660030,-38
32-15,309663936,-34
32-16,309667842,-29
32-17,309671748,-33
32-18,309675654,-37
32-19,309679560,-31
32-20,309683466,-30
32-21,309687372,-37
32-22,309691278,-38
32-23,309695184,-35
32-24,309699090,-32
32-25,309702996,-30
32-26,309706902,-32
32-27,309710808,-38
32-28,309714714,-36
32-29,309718620,-39
32-30,309722526,-67
32-31,309726432,-71
32-32,309730338,-37
32-1,309734250,-23
32-2,309738156,-30
32-3,309742062,-35
32-4,309745968,-37
32-5,309749874,-30
32-6,309753780,-26
32-7,309757686,-33
32-8,309761592,-36
32-9,309765498,-29
32-10,309769404,-24
32-11,309773310,-31
32-12,309777216,-40
32-13,309781122,-32
32-14,309785028,-25
32-15,309788934,-33
32-16,309792840,-38
32-17,309796746,-31
32-18,309800652,-28
32-19,309804558,-30
32-20,309808464,-32
32-21,309812370,-37
32-22,309816276,-32
32-23,309820182,-29
32-24,309824088,-34
32-25,309827994,-33
32-26,309831900,-37
32-27,309835806,-20
32-28,309839712,-34
32-29,309843618,-98
32-30,309847524,-62
32-31,309851430,9
32-32,309855336,-24
32-1,309859247,-46
32-2,309863153,-33
32-3,309867059,-32
32-4,309870965,-27
32-5,309874871,-28
32-6,309878777,-33
32-7,309882683,-30
32-8,309886589,-27
32-9,309890495,-23
32-10,309894401,-27
32-11,309898307,-29
32-12,309902213,-25
32-13,309906119,-25
32-14,309910025,-31
32-15,309913931,-28
32-16,309917837,-21
32-17,309921743,-24
32-18,309925649,-35
32-19,309929555,-38
32-20,309933461,-29
32-21,309937367,-27
32-22,309941273,-32
32-23,309945179,-31
32-24,309949085,-23
32-25,309952991,-20
32-26,309956897,-26
32-27,309960803,-32
32-28,309964709,-34
32-29,309968615,-34
32-30,309972521,-29
32-31,309976427,-27
32-32,309980333,-33
32-1,309984245,-33
32-2,309988151,-29
32-3,309992057,-33
32-4,309995963,-36
32-5,309999869,-27
32-6,310003775,-25
32-7,310007681,-34
32-8,310011587,-35
32-9,310015493,-27
32-10,310019399,-24
32-11,310023305,-30
32-12,310027211,-37
32-13,310031117,-28
32-14,310035023,-22
32-15,310038929,-34
32-16,310042835,-40
32-17,310046741,-30
32-18,310050647,-26
32-19,310054553,-30
32-20,310058459,-31
32-21,310062365,-28
32-22,310066271,-26
32-23,310070177,-26
32-24,310074083,-29
32-25,310077989,-37
32-26,310081895,-36
32-27,310085801,-28
32-28,310089707,-32
32-29,310093613,-33
32-30,310097519,-21
32-31,310101425,-20
32-32,310105331,-31
32-1,310109242,-34
32-2,310113148,-30
32-3,310117054,-27
32-4,310120960,-32
32-5,310124866,-34
32-6,310128772,-34
32-7,310132678,-32
32-8,310136584,-29
32-9,310140490,-32
32-10,310144396,-39
32-11,310148302,-35
32-12,310152208,-31
32-13,310156114,-32
32-14,310160020,-36
32-15,310163926,-32
32-16,310167832,-27
32-17,310171738,-32
32-18,310175644,-40
32-19,310179550,-33
32-20,310183456,-26
32-21,310187362,-30
32-22,310191268,-36
32-23,310195174,-33
32-24,310199080,-27
32-25,310202986,-30
32-26,310206892,-34
32-27,310210798,-37
32-28,310214704,-43
32-29,310218610,-18
32-30,310222516,2
32-31,310226422,-31
32-32,310230328,-42
32-1,310234240,-25
32-2,310238146,-29
32-3,310242052,-35
32-4,310245958,-31
32-5,310249864,-30
32-6,310253770,-31
32-7,310257676,-36
32-8,310261582,-33
32-9,310265488,-23
32-10,310269394,-23
32-11,310273300,-34
32-12,310277206,-37
32-13,310281112,-29
32-14,310285018,-24
32-15,310288924,-31
32-16,310292830,-34
32-17,310296736,-29
32-18,310300642,-27
32-19,310304548,-31
32-20,310308454,-34
32-21,310312360,-34
32-22,310316266,-34
32-23,310320172,-39
32-24,310324078,-35
32-25,310327984,-26
32-26,310331890,-30
32-27,310335796,-17
32-28,310339702,-25
32-29,310343608,-76
32-30,310347514,-51
32-31,310351420,2
32-32,310355326,-21
32-1,310359238,-40
32-2,310363144,-33
32-3,310367050,-31
32-4,310370956,-29
32-5,310374862,-36
32-6,310378768,-37
32-7,310382674,-28
32-8,310386580,-28
32-9,310390486,-32
32-10,310394392,-33
32-11,310398298,-35
32-12,310402204,-36
32-13,310406110,-30
32-14,310410016,-34
32-15,310413922,-41
32-16,310417828,-29
32-17,310421734,-26
32-18,310425640,-37
32-19,310429546,-36
32-20,310433452,-30
32-21,310437358,-31
32-22,310441264,-36
32-23,310445170,-38
32-24,310449076,-31
32-25,310452982,-24
32-26,310456888,-29
32-27,310460794,-32
32-28,310464700,-37
32-29,310468606,-28
32-30,310472512,5
32-31,310476418,1
32-32,310480324,-33
32-1,310484235,-33
32-2,310488141,-25
32-3,310492047,-37
32-4,310495953,-37
32-5,310499859,-27
32-6,310503765,-28
32-7,310507671,-37
32-8,310511577,-37
32-9,310515483,-32
32-10,310519389,-35
32-11,310523295,-35
32-12,310527201,-33
32-13,310531107,-35
32-14,310535013,-35
32-15,310538919,-32
32-16,310542825,-35
32-17,310546731,-39
32-18,310550637,-32
32-19,310554543,-29
32-20,310558449,-38
32-21,310562355,-37
32-22,310566261,-30
32-23,310570167,-29
32-24,310574073,-31
32-25,310577979,-34
32-26,310581885,-34
32-27,310585791,-27
32-28,310589697,-28
32-29,310593603,-61
32-30,310597509,-84
32-31,310601415,-55
32-32,310605321,-26
32-1,310609233,-29
32-2,310613139,-31
32-3,310617045,-30
32-4,310620951,-34
32-5,310624857,-39
32-6,310628763,-34
32-7,310632669,-26
32-8,310636575,-30
32-9,310640481,-37
32-10,310644387,-35
32-11,310648293,-32
32-12,310652199,-29
32-13,310656105,-28
32-14,310660011,-34
32-15,310663917,-31
32-16,310667823,-22
32-17,310671729,-28
32-18,310675635,-36
32-19,310679541,-32
32-20,310683447,-25
32-21,310687353,-27
32-22,310691259,-29
32-23,310695165,-28
32-24,310699071,-26
32-25,310702977,-25
32-26,310706883,-34
32-27,310710789,-37
32-28,310714695,-33
32-29,310718601,-28
32-30,310722507,-10
32-31,310726413,-11
32-32,310730319,-30
32-1,310734231,-30
32-2,310738137,-30
32-3,310742043,-38
32-4,310745949,-37
32-5,310749855,-32
32-6,310753761,-31
32-7,310757667,-36
32-8,310761573,-39
32-9,310765479,-32
32-10,310769385,-30
32-11,310773291,-35
32-12,310777197,-36
32-13,310781103,-30
32-14,310785009,-26
32-15,310788915,-32
32-16,310792821,-37
32-17,310796727,-32
32-18,310800633,-28
32-19,310804539,-31
32-20,310808445,-32
32-21,310812351,-35
32-22,310816257,-29
32-23,310820163,-26
32-24,310824069,-31
32-25,310827975,-25
32-26,310831881,-31
32-27,310835787,-21
32-28,310839693,-35
32-29,310843599,-65
32-30,310847505,49
32-31,310851411,110
32-32,310855317,-21
32-1,310859198,-65
32-2,310863104,-27
32-3,310867010,-34
32-4,310870916,-31
32-5,310874822,-34
32-6,310878728,-41
32-7,310882634,-32
32-8,310886540,-31
32-9,310890446,-31
32-10,310894352,-28
32-11,310898258,-30
32-12,310902164,-31
32-13,310906070,-31
32-14,310909976,-38
32-15,310913882,-36
32-16,310917788,-25
32-17,310921694,-28
32-18,310925600,-34
32-19,310929506,-31
32-20,310933412,-28
32-21,310937318,-30
32-22,310941224,-37
32-23,310945130,-37
32-24,310949036,-28
32-25,310952942,-25
32-26,310956848,-34
32-27,310960754,-38
32-28,310964660,-33
32-29,310968566,-47
32-30,310972472,-61
32-31,310976378,-46
32-32,310980284,-31
32-1,310984190,-31
32-2,310988096,-33
32-3,310992002,-36
32-4,310995908,-34
32-5,310999814,-29
32-6,311003720,-29
32-7,311007626,-32
32-8,311011532,-33
32-9,311015438,-30
32-10,311019344,-28
32-11,311023250,-31
32-12,311027156,-31
32-13,311031062,-31
32-14,311034968,-32
32-15,311038874,-30
32-16,311042780,-36
32-17,311046686,-35
32-18,311050592,-24
32-19,311054498,-28
32-20,311058404,-37
32-21,311062310,-29
32-22,311066216,-22
32-23,311070122,-23
32-24,311074028,-31
32-25,311077934,-35
32-26,311081840,-24
32-27,311085746,-37
32-28,311089652,-40
32-29,311093558,8
32-30,311097464,8
32-31,311101370,-33
32-32,311105276,-36
32-1,311109223,-32
32-2,311113129,-32
32-3,311117035,-28
32-4,311120941,-31
32-5,311124847,-33
32-6,311128753,-35
32-7,311132659,-34
32-8,311136565,-34
32-9,311140471,-35
32-10,311144377,-33
32-11,311148283,-32
32-12,311152189,-33
32-13,311156095,-30
32-14,311160001,-31
32-15,311163907,-35
32-16,311167813,-32
32-17,311171719,-32
32-18,311175625,-39
32-19,311179531,-34
32-20,311183437,-27
32-21,311187343,-32
32-22,311191249,-36
32-23,311195155,-34
32-24,311199061,-31
32-25,311202967,-29
32-26,311206873,-37
32-27,311210779,-35
32-28,311214685,-36
32-29,311218591,-50
32-30,311222497,-39
32-31,311226403,-23
32-32,311230309,-28
32-1,311234221,-29
32-2,311238127,-29
32-3,311242033,-40
32-4,311245939,-38
32-5,311249845,-27
32-6,311253751,-29
32-7,311257657,-40
32-8,311261563,-42
32-9,311265469,-33
32-10,311269375,-31
32-11,311273281,-37
32-12,311277187,-35
32-13,311281093,-28
32-14,311284999,-25
32-15,311288905,-29
32-16,311292811,-37
32-17,311296717,-39
32-18,311300623,-28
32-19,311304529,-26
32-20,311308435,-35
32-21,311312341,-40
32-22,311316247,-31
32-23,311320153,-25
32-24,311324059,-29
32-25,311327965,-37
32-26,311331871,-34
32-27,311335777,-19
32-28,311339683,-36
32-29,311343589,-41
32-30,311347495,20
32-31,311351401,27
32-32,311355307,-35
32-1,311359219,-47
32-2,311363125,-32
32-3,311367031,-33
32-4,311370937,-31
32-5,311374843,-36
32-6,311378749,-36
32-7,311382655,-28
32-8,311386561,-31
32-9,311390467,-36
32-10,311394373,-37
32-11,311398279,-38
32-12,311402185,-35
32-13,311406091,-33
32-14,311409997,-34
32-15,311413903,-30
32-16,311417809,-29
32-17,311421715,-34
32-18,311425621,-38
32-19,311429527,-33
32-20,311433433,-32
32-21,311437339,-36
32-22,311441245,-37
32-23,311445151,-33
32-24,311449057,-28
32-25,311452963,-29
32-26,311456869,-34
32-27,311460775,-42
32-28,311464681,-38
32-29,311468587,-23
32-30,311472493,-41
32-31,311476399,-61
32-32,311480305,-39
32-1,311484216,-27
32-2,311488122,-34
32-3,311492028,-30
32-4,311495934,-30
32-5,311499840,-34
32-6,311503746,-34
32-7,311507652,-33
32-8,311511558,-34
32-9,311515464,-33
32-10,311519370,-30
32-11,311523276,-31
32-12,311527182,-33
32-13,311531088,-33
32-14,311534994,-31
32-15,311538900,-33
32-16,311542806,-40
32-17,311546712,-36
32-18,311550618,-31
32-19,311554524,-37
32-20,311558430,-40
32-21,311562336,-38
32-22,311566242,-33
32-23,311570148,-26
32-24,311574054,-35
32-25,311577960,-43
32-26,311581866,-20
32-27,311585772,-35
32-28,311589678,-36
32-29,311593584,40
32-30,311597490,29
32-31,311601396,-54
32-32,311605302,-47
32-1,311609245,-31
32-2,311613151,-45
32-3,311617057,-35
32-4,311620963,-32
32-5,311624869,-39
32-6,311628775,-38
32-7,311632681,-32
32-8,311636587,-33
32-9,311640493,-35
32-10,311644399,-35
32-11,311648305,-35
32-12,311652211,-29
32-13,311656117,-27
32-14,311660023,-37
32-15,311663929,-37
32-16,311667835,-25
32-17,311671741,-27
32-18,311675647,-37
32-19,311679553,-35
32-20,311683459,-33
32-21,311687365,-38
32-22,311691271,-37
32-23,311695177,-33
32-24,311699083,-27
32-25,311702989,-28
32-26,311706895,-30
32-27,311710801,-36
32-28,311714707,-44
32-29,311718613,-28
32-30,311722519,-5
32-31,311726425,-14
32-32,311730331,-29
32-1,311734212,-30
32-2,311738118,-31
32-3,311742024,-42
32-4,311745930,-42
32-5,311749836,-31
32-6,311753742,-31
32-7,311757648,-43
32-8,311761554,-42
32-9,311765460,-31
32-10,311769366,-29
32-11,311773272,-37
32-12,311777178,-40
32-13,311781084,-36
32-14,311784990,-31
32-15,311788896,-30
32-16,311792802,-36
32-17,311796708,-36
32-18,311800614,-26
32-19,311804520,-29
32-20,311808426,-36
32-21,311812332,-33
32-22,311816238,-30
32-23,311820144,-33
32-24,311824050,-34
32-25,311827956,-34
32-26,311831862,-32
32-27,311835768,-16
32-28,311839674,-49
32-29,311843580,-79
32-30,311847486,-1
32-31,311851392,28
32-32,311855298,-38
32-1,311859209,-47
32-2,311863115,-33
32-3,311867021,-38
32-4,311870927,-30
32-5,311874833,-34
32-6,311878739,-36
32-7,311882645,-28
32-8,311886551,-28
32-9,311890457,-34
32-10,311894363,-36
32-11,311898269,-31
32-12,311902175,-26
32-13,311906081,-30
32-14,311909987,-33
32-15,311913893,-29
32-16,311917799,-28
32-17,311921705,-35
32-18,311925611,-41
32-19,311929517,-30
32-20,311933423,-24
32-21,311937329,-31
32-22,311941235,-37
32-23,311945141,-36
32-24,311949047,-30
32-25,311952953,-25
32-26,311956859,-33
32-27,311960765,-44
32-28,311964671,-30
32-29,311968577,-21
32-30,311972483,-53
32-31,311976389,-58
32-32,311980295,-25
32-1,311984207,-26
32-2,311988113,-37
32-3,311992019,-37
32-4,311995925,-36
32-5,311999831,-32
32-6,312003737,-33
32-7,312007643,-35
32-8,312011549,-31
32-9,312015455,-27
32-10,312019361,-29
32-11,312023267,-35
32-12,312027173,-40
32-13,312031079,-34
32-14,312034985,-22
32-15,312038891,-27
32-16,312042797,-40
32-17,312046703,-36
32-18,312050609,-24
32-19,312054515,-25
32-20,312058421,-36
32-21,312062327,-36
32-22,312066233,-30
32-23,312070139,-30
32-24,312074045,-34
32-25,312077951,-36
32-26,312081857,-27
32-27,312085763,-25
32-28,312089669,-39
32-29,312093575,-30
32-30,312097481,-6
32-31,312101387,-16
32-32,312105293,-34
32-1,312109205,-36
32-2,312113111,-37
32-3,312117017,-34
32-4,312120923,-31
32-5,312124829,-34
32-6,312128735,-36
32-7,312132641,-28
32-8,312136547,-26
32-9,312140453,-34
32-10,312144359,-38
32-11,312148265,-36
32-12,312152171,-32
32-13,312156077,-29
32-14,312159983,-36
32-15,312163889,-38
32-16,312167795,-29
32-17,312171701,-30
32-18,312175607,-37
32-19,312179513,-36
32-20,312183419,-33
32-21,312187325,-30
32-22,312191231,-34
32-23,312195137,-38
32-24,312199043,-34
32-25,312202949,-29
32-26,312206855,-27
32-27,312210761,-52
32-28,312214667,-37
32-29,312218573,26
32-30,312222479,-22
32-31,312226385,-88
32-32,312230291,-40
32-1,312234202,-17
32-2,312238108,-37
32-3,312242014,-37
32-4,312245920,-33
32-5,312249826,-29
32-6,312253732,-32
32-7,312257638,-42
32-8,312261544,-38
32-9,312265450,-27
32-10,312269356,-27
32-11,312273262,-38
32-12,312277168,-44
32-13,312281074,-36
32-14,312284980,-26
32-15,312288886,-31
32-16,312292792,-38
32-17,312296698,-30
32-18,312300604,-26
32-19,312304510,-35
32-20,312308416,-38
32-21,312312322,-37
32-22,312316228,-32
32-23,312320134,-31
32-24,312324040,-30
32-25,312327946,-30
32-26,312331852,-34
32-27,312335758,-20
32-28,312339664,-40
32-29,312343570,-65
32-30,312347476,-23
32-31,312351382,-18
32-32,312355288,-51
32-1,312359230,-40
32-2,312363136,-34
32-3,312367042,-33
32-4,312370948,-25
32-5,312374854,-36
32-6,312378760,-40
32-7,312382666,-30
32-8,312386572,-30
32-9,312390478,-38
32-10,312394384,-38
32-11,312398290,-29
32-12,312402196,-25
32-13,312406102,-31
32-14,312410008,-35
32-15,312413914,-27
32-16,312417820,-22
32-17,312421726,-31
32-18,312425632,-36
32-19,312429538,-31
32-20,312433444,-28
32-21,312437350,-28
32-22,312441256,-34
32-23,312445162,-40
32-24,312449068,-38
32-25,312452974,-31
32-26,312456880,-38
32-27,312460786,-42
32-28,312464692,-31
32-29,312468598,-53
32-30,312472504,-74
32-31,312476410,-51
32-32,312480316,-28
32-1,312484197,-25
32-2,312488103,-25
32-3,312492009,-29
32-4,312495915,-32
32-5,312499821,-28
32-6,312503727,-25
32-7,312507633,-33
32-8,312511539,-36
32-9,312515445,-29
32-10,312519351,-26
32-11,312523257,-29
32-12,312527163,-35
32-13,312531069,-32
32-14,312534975,-26
32-15,312538881,-31
32-16,312542787,-36
32-17,312546693,-34
32-18,312550599,-28
32-19,312554505,-28
32-20,312558411,-33
32-21,312562317,-32
32-22,312566223,-28
32-23,312570129,-31
32-24,312574035,-33
32-25,312577941,-36
32-26,312581847,-33
32-27,312585753,-19
32-28,312589659,-40
32-29,312593565,-63
32-30,312597471,-17
32-31,312601377,8
32-32,312605283,-28
32-1,312609195,-42
32-2,312613101,-35
32-3,312617007,-31
32-4,312620913,-24
32-5,312624819,-29
32-6,312628725,-34
32-7,312632631,-30
32-8,312636537,-28
32-9,312640443,-33
32-10,312644349,-37
32-11,312648255,-29
32-12,312652161,-21
32-13,312656067,-24
32-14,312659973,-36
32-15,312663879,-38
32-16,312667785,-27
32-17,312671691,-24
32-18,312675597,-31
32-19,312679503,-34
32-20,312683409,-31
32-21,312687315,-28
32-22,312691221,-31
32-23,312695127,-37
32-24,312699033,-30
32-25,312702939,-28
32-26,312706845,-33
32-27,312710751,-37
32-28,312714657,-36
32-29,312718563,-24
32-30,312722469,-21
32-31,312726375,-35
32-32,312730281,-33
32-1,312734193,-25
32-2,312738099,-29
32-3,312742005,-36
32-4,312745911,-40
32-5,312749817,-33
32-6,312753723,-28
32-7,312757629,-34
32-8,312761535,-36
32-9,312765441,-28
32-10,312769347,-31
32-11,312773253,-36
32-12,312777159,-35
32-13,312781065,-33
32-14,312784971,-34
32-15,312788877,-33
32-16,312792783,-34
32-17,312796689,-34
32-18,312800595,-29
32-19,312804501,-27
32-20,312808407,-33
32-21,312812313,-32
32-22,312816219,-25
32-23,312820125,-26
32-24,312824031,-38
32-25,312827937,-38
32-26,312831843,-26
32-27,312835749,-30
32-28,312839655,-39
32-29,312843561,-31
32-30,312847467,-34
32-31,312851373,-40
32-32,312855279,-31
32-1,312859190,-32
32-2,312863096,-36
32-3,312867002,-31
32-4,312870908,-32
32-5,312874814,-35
32-6,312878720,-33
32-7,312882626,-31
32-8,312886532,-28
32-9,312890438,-29
32-10,312894344,-29
32-11,312898250,-30
32-12,312902156,-28
32-13,312906062,-28
32-14,312909968,-32
32-15,312913874,-32
32-16,312917780,-27
32-17,312921686,-30
32-18,312925592,-36
32-19,312929498,-38
32-20,312933404,-31
32-21,312937310,-30
32-22,312941216,-38
32-23,312945122,-38
32-24,312949028,-30
32-25,312952934,-29
32-26,312956840,-34
32-27,312960746,-29
32-28,312964652,-37
32-29,312968558,-36
32-30,312972464,8
32-31,312976370,7
32-32,312980276,-33
32-1,312984188,-32
32-2,312988094,-27
32-3,312992000,-35
32-4,312995906,-35
32-5,312999812,-36
32-6,313003718,-30
32-7,313007624,-32
32-8,313011530,-41
32-9,313015436,-32
32-10,313019342,-26
32-11,313023248,-35
32-12,313027154,-41
32-13,313031060,-36
32-14,313034966,-26
32-15,313038872,-27
32-16,313042778,-36
32-17,313046684,-39
32-18,313050590,-31
32-19,313054496,-25
32-20,313058402,-34
32-21,313062308,-35
32-22,313066214,-26
32-23,313070120,-30
32-24,313074026,-38
32-25,313077932,-38
32-26,313081838,-34
32-27,313085744,-28
32-28,313089650,-31
32-29,313093556,-37
32-30,313097462,-18
32-31,313101368,-3
32-32,313105274,-27
32-1,313109338,-41
32-2,313113244,-30
32-3,313117150,-33
32-4,313121056,-36
32-5,313124962,-34
32-6,313128868,-36
32-7,313132774,-32
32-8,313136680,-23
32-9,313140586,-27
32-10,313144492,-31
32-11,313148398,-27
32-12,313152304,-30
32-13,313156210,-34
32-14,313160116,-37
32-15,313164022,-33
32-16,313167928,-27
32-17,313171834,-31
32-18,313175740,-35
32-19,313179646,-34
32-20,313183552,-37
32-21,313187458,-34
32-22,313191364,-33
32-23,313195270,-37
32-24,313199176,-32
32-25,313203082,-31
32-26,313206988,-39
32-27,313210894,-35
32-28,313214800,-40
32-29,313218706,-26
32-30,313222612,15
32-31,313226518,-6
32-32,313230424,-40
32-1,313234183,-26
32-2,313238089,-29
32-3,313241995,-43
32-4,313245901,-32
32-5,313249807,-26
32-6,313253713,-36
32-7,313257619,-39
32-8,313261525,-35
32-9,313265431,-37
32-10,313269337,-38
32-11,313273243,-34
32-12,313277149,-36
32-13,313281055,-38
32-14,313284961,-31
32-15,313288867,-30
32-16,313292773,-35
32-17,313296679,-34
32-18,313300585,-32
32-19,313304491,-31
32-20,313308397,-35
32-21,313312303,-41
32-22,313316209,-38
32-23,313320115,-29
32-24,313324021,-28
32-25,313327927,-35
32-26,313331833,-36
32-27,313335739,-23
32-28,313339645,-45
32-29,313343551,-77
32-30,313347457,-42
32-31,313351363,-12
32-32,313355269,-35
32-1,313359181,-37
32-2,313363087,-31
32-3,313366993,-35
32-4,313370899,-30
32-5,313374805,-30
32-6,313378711,-36
32-7,313382617,-36
32-8,313386523,-31
32-9,313390429,-29
32-10,313394335,-31
32-11,313398241,-30
32-12,313402147,-29
32-13,313406053,-29
32-14,313409959,-35
32-15,313413865,-34
32-16,313417771,-27
32-17,313421677,-27
32-18,313425583,-32
32-19,313429489,-37
32-20,313433395,-36
32-21,313437301,-29
32-22,313441207,-34
32-23,313445113,-38
32-24,313449019,-32
32-25,313452925,-27
32-26,313456831,-27
32-27,313460737,-40
32-28,313464643,-34
32-29,313468549,0
32-30,313472455,-6
32-31,313476361,-30
32-32,313480267,-30
32-1,313484179,-28
32-2,313488085,-34
32-3,313491991,-42
32-4,313495897,-38
32-5,313499803,-26
32-6,313503709,-28
32-7,313507615,-36
32-8,313511521,-34
32-9,313515427,-25
32-10,313519333,-27
32-11,313523239,-33
32-12,313527145,-33
32-13,313531051,-31
32-14,313534957,-30
32-15,313538863,-36
32-16,313542769,-41
32-17,313546675,-33
32-18,313550581,-22
32-19,313554487,-24
32-20,313558393,-36
32-21,313562299,-38
32-22,313566205,-30
32-23,313570111,-29
32-24,313574017,-33
32-25,313577923,-35
32-26,313581829,-32
32-27,313585735,-27
32-28,313589641,-37
32-29,313593547,-16
32-30,313597453,41
32-31,313601359,25
32-32,313605265,-31
32-1,313609176,-36
32-2,313613082,-30
32-3,313616988,-33
32-4,313620894,-28
32-5,313624800,-33
32-6,313628706,-36
32-7,313632612,-33
32-8,313636518,-31
32-9,313640424,-28
32-10,313644330,-35
32-11,313648236,-41
32-12,313652142,-32
32-13,313656048,-33
32-14,313659954,-42
32-15,313663860,-37
32-16,313667766,-31
32-17,313671672,-38
32-18,313675578,-41
32-19,313679484,-33
32-20,313683390,-26
32-21,313687296,-26
32-22,313691202,-36
32-23,313695108,-40
32-24,313699014,-31
32-25,313702920,-33
32-26,313706826,-38
32-27,313710732,-36
32-28,313714638,-34
32-29,313718544,-27
32-30,313722450,-18
32-31,313726356,-28
32-32,313730262,-35
32-1,313734204,-29
32-2,313738110,-30
32-3,313742016,-40
32-4,313745922,-43
32-5,313749828,-36
32-6,313753734,-31
32-7,313757640,-35
32-8,313761546,-40
32-9,313765452,-33
32-10,313769358,-28
32-11,313773264,-34
32-12,313777170,-34
32-13,313781076,-29
32-14,313784982,-27
32-15,313788888,-30
32-16,313792794,-40
32-17,313796700,-39
32-18,313800606,-28
32-19,313804512,-32
32-20,313808418,-39
32-21,313812324,-35
32-22,313816230,-30
32-23,313820136,-31
32-24,313824042,-36
32-25,313827948,-38
32-26,313831854,-30
32-27,313835760,-32
32-28,313839666,-41
32-29,313843572,-44
32-30,313847478,-80
32-31,313851384,-98
32-32,313855290,-45
32-1,313859202,-20
32-2,313863108,-37
32-3,313867014,-31
32-4,313870920,-30
32-5,313874826,-39
32-6,313878732,-37
32-7,313882638,-31
32-8,313886544,-27
32-9,313890450,-33
32-10,313894356,-36
32-11,313898262,-33
32-12,313902168,-29
32-13,313906074,-29
32-14,313909980,-32
32-15,313913886,-33
32-16,313917792,-29
32-17,313921698,-32
32-18,313925604,-36
32-19,313929510,-29
32-20,313933416,-26
32-21,313937322,-33
32-22,313941228,-37
32-23,313945134,-34
32-24,313949040,-31
32-25,313952946,-34
32-26,313956852,-23
32-27,313960758,-39
32-28,313964664,-39
32-29,313968570,36
32-30,313972476,22
32-31,313976382,-61
32-32,313980288,-46
32-1,313984169,-20
32-2,313988075,-34
32-3,313991981,-33
32-4,313995887,-33
32-5,313999793,-31
32-6,314003699,-29
32-7,314007605,-33
32-8,314011511,-37
32-9,314015417,-36
32-10,314019323,-32
32-11,314023229,-33
32-12,314027135,-37
32-13,314031041,-34
32-14,314034947,-30
32-15,314038853,-33
32-16,314042759,-37
32-17,314046665,-34
32-18,314050571,-27
32-19,314054477,-28
32-20,314058383,-34
32-21,314062289,-31
32-22,314066195,-28
32-23,314070101,-31
32-24,314074007,-37
32-25,314077913,-36
32-26,314081819,-35
32-27,314085725,-22
32-28,314089631,-28
32-29,314093537,-82
32-30,314097443,-85
32-31,314101349,-28
32-32,314105255,-23
32-1,314109167,-41
32-2,314113073,-34
32-3,314116979,-28
32-4,314120885,-25
32-5,314124791,-30
32-6,314128697,-38
32-7,314132603,-30
32-8,314136509,-24
32-9,314140415,-32
32-10,314144321,-37
32-11,314148227,-33
32-12,314152133,-30
32-13,314156039,-30
32-14,314159945,-37
32-15,314163851,-37
32-16,314167757,-26
32-17,314171663,-30
32-18,314175569,-36
32-19,314179475,-32
32-20,314183381,-28
32-21,314187287,-24
32-22,314191193,-24
32-23,314195099,-37
32-24,314199005,-37
32-25,314202911,-22
32-26,314206817,-28
32-27,314210723,-32
32-28,314214629,-34
32-29,314218535,-63
32-30,314222441,-64
32-31,314226347,-39
32-32,314230253,-32
32-1,314234164,-26
32-2,314238070,-27
32-3,314241976,-36
32-4,314245882,-34
32-5,314249788,-27
32-6,314253694,-26
32-7,314257600,-30
32-8,314261506,-36
32-9,314265412,-34
32-10,314269318,-26
32-11,314273224,-24
32-12,314277130,-31
32-13,314281036,-32
32-14,314284942,-26
32-15,314288848,-26
32-16,314292754,-34
32-17,314296660,-34
32-18,314300566,-27
32-19,314304472,-29
32-20,314308378,-34
32-21,314312284,-30
32-22,314316190,-27
32-23,314320096,-28
32-24,314324002,-31
32-25,314327908,-31
32-26,314331814,-33
32-27,314335720,-35
32-28,314339626,-32
32-29,314343532,-36
32-30,314347438,-57
32-31,314351344,-53
32-32,314355250,-28
32-1,314359223,-29
32-2,314363129,-33
32-3,314367035,-25
32-4,314370941,-22
32-5,314374847,-29
32-6,314378753,-35
32-7,314382659,-26
32-8,314386565,-21
32-9,314390471,-29
32-10,314394377,-32
32-11,314398283,-25
32-12,314402189,-20
32-13,314406095,-29
32-14,314410001,-36
32-15,314413907,-32
32-16,314417813,-24
32-17,314421719,-22
32-18,314425625,-29
32-19,314429531,-35
32-20,314433437,-31
32-21,314437343,-25
32-22,314441249,-31
32-23,314445155,-33
32-24,314449061,-26
32-25,314452967,-25
32-26,314456873,-28
32-27,314460779,-34
32-28,314464685,-31
32-29,314468591,-21
32-30,314472497,-28
32-31,314476403,-34
32-32,314480309,-28
32-1,314484160,-26
32-2,314488066,-28
32-3,314491972,-32
32-4,314495878,-33
32-5,314499784,-28
32-6,314503690,-29
32-7,314507596,-31
32-8,314511502,-27
32-9,314515408,-22
32-10,314519314,-21
32-11,314523220,-26
32-12,314527126,-33
32-13,314531032,-28
32-14,314534938,-23
32-15,314538844,-29
32-16,314542750,-31
32-17,314546656,-30
32-18,314550562,-30
32-19,314554468,-27
32-20,314558374,-31
32-21,314562280,-37
32-22,314566186,-28
32-23,314570092,-25
32-24,314573998,-32
32-25,314577904,-34
32-26,314581810,-38
32-27,314585716,-14
32-28,314589622,-27
32-29,314593528,-112
32-30,314597434,-86
32-31,314601340,0
32-32,314605246,-15
32-1,314609127,-40
32-2,314613033,-29
32-3,314616939,-26
32-4,314620845,-24
32-5,314624751,-27
32-6,314628657,-32
32-7,314632563,-31
32-8,314636469,-25
32-9,314640375,-28
32-10,314644281,-38
32-11,314648187,-34
32-12,314652093,-24
32-13,314655999,-23
32-14,314659905,-33
32-15,314663811,-33
32-16,314667717,-23
32-17,314671623,-26
32-18,314675529,-37
32-19,314679435,-35
32-20,314683341,-24
32-21,314687247,-23
32-22,314691153,-29
32-23,314695059,-34
32-24,314698965,-28
32-25,314702871,-18
32-26,314706777,-31
32-27,314710683,-22
32-28,314714589,-23
32-29,314718495,-79
32-30,314722401,-67
32-31,314726307,-7
32-32,314730213,-20
32-1,314734155,-28
32-2,314738061,-16
32-3,314741967,-32
32-4,314745873,-32
32-5,314749779,-21
32-6,314753685,-22
32-7,314757591,-29
32-8,314761497,-30
32-9,314765403,-26
32-10,314769309,-27
32-11,314773215,-29
32-12,314777121,-33
32-13,314781027,-33
32-14,314784933,-28
32-15,314788839,-27
32-16,314792745,-32
32-17,314796651,-30
32-18,314800557,-24
32-19,314804463,-25
32-20,314808369,-30
32-21,314812275,-35
32-22,314816181,-31
32-23,314820087,-26
32-24,314823993,-29
32-25,314827899,-32
32-26,314831805,-31
32-27,314835711,-20
32-28,314839617,-28
32-29,314843523,-56
32-30,314847429,-34
32-31,314851335,-3
32-32,314855241,-28
32-1,314859152,-45
32-2,314863058,-37
32-3,314866964,-35
32-4,314870870,-32
32-5,314874776,-35
32-6,314878682,-35
32-7,314882588,-30
32-8,314886494,-30
32-9,314890400,-33
32-10,314894306,-33
32-11,314898212,-28
32-12,314902118,-29
32-13,314906024,-36
32-14,314909930,-38
32-15,314913836,-34
32-16,314917742,-29
32-17,314921648,-26
32-18,314925554,-30
32-19,314929460,-32
32-20,314933366,-25
32-21,314937272,-26
32-22,314941178,-32
32-23,314945084,-34
32-24,314948990,-22
32-25,314952896,-13
32-26,314956802,-28
32-27,314960708,-36
32-28,314964614,-30
32-29,314968520,-26
32-30,314972426,-3
32-31,314976332,1
32-32,314980238,-28
32-1,314984272,-34
32-2,314988178,-26
32-3,314992084,-33
32-4,314995990,-37
32-5,314999896,-27
32-6,315003802,-17
32-7,315007708,-25
32-8,315011614,-36
32-9,315015520,-30
32-10,315019426,-22
32-11,315023332,-33
32-12,315027238,-38
32-13,315031144,-28
