32-1,14014724,-11
32-2,14018630,41
32-3,14022536,54
32-4,14026442,13
32-5,14030348,1
32-6,14034254,42
32-7,14038160,58
32-8,14042066,-6
32-9,14045972,-40
32-10,14049878,17
32-11,14053784,35
32-12,14057690,-32
32-13,14061596,-58
32-14,14065502,0
32-15,14069408,32
32-16,14073314,-5
32-17,14077220,-32
32-18,14081126,-3
32-19,14085032,24
32-20,14088938,-12
32-21,14092844,-42
32-22,14096750,-19
32-23,14100656,19
32-24,14104562,28
32-25,14108468,-9
32-26,14112374,-16
32-27,14116280,25
32-28,14120186,24
32-29,14124092,-15
32-30,14127998,-32
32-31,14131904,-4
32-32,14135810,26
32-1,14139721,8
32-2,14143627,11
32-3,14147533,60
32-4,14151439,77
32-5,14155345,27
32-6,14159251,-49
32-7,14163157,-64
32-8,14167063,-20
32-9,14170969,-42
32-10,14174875,-135
32-11,14178781,-161
32-12,14182687,-82
32-13,14186593,-35
32-14,14190499,-92
32-15,14194405,-122
32-16,14198311,-51
32-17,14202217,7
32-18,14206123,-8
32-19,14210029,-32
32-20,14213935,-16
32-21,14217841,14
32-22,14221747,2
32-23,14225653,-40
32-24,14229559,-47
32-25,14233465,-19
32-26,14237371,-27
32-27,14241277,-68
32-28,14245183,-65
32-29,14249089,-10
32-30,14252995,11
32-31,14256901,-29
32-32,14260807,-40
32-1,14264719,-1
32-2,14268625,14
32-3,14272531,-35
32-4,14276437,-100
32-5,14280343,-111
32-6,14284249,-80
32-7,14288155,-86
32-8,14292061,-140
32-9,14295967,-156
32-10,14299873,-108
32-11,14303779,-75
32-12,14307685,-85
32-13,14311591,-70
32-14,14315497,-2
32-15,14319403,27
32-16,14323309,-26
32-17,14327215,-67
32-18,14331121,-41
32-19,14335027,1
32-20,14338933,-6
32-21,14342839,-43
32-22,14346745,-44
32-23,14350651,-28
32-24,14354557,-53
32-25,14358463,-96
32-26,14362369,-107
32-27,14366275,-77
32-28,14370181,-57
32-29,14374087,-78
32-30,14377993,-96
32-31,14381899,-61
32-32,14385805,-6
32-1,14389747,-19
32-2,14393653,-62
32-3,14397559,-33
32-4,14401465,10
32-5,14405371,-26
32-6,14409277,-73
32-7,14413183,-56
32-8,14417089,-6
32-9,14420995,-4
32-10,14424901,-58
32-11,14428807,-75
32-12,14432713,-28
32-13,14436619,-24
32-14,14440525,-81
32-15,14444431,-94
32-16,14448337,-44
32-17,14452243,-12
32-18,14456149,-64
32-19,14460055,-123
32-20,14463961,-90
32-21,14467867,-42
32-22,14471773,-73
32-23,14475679,-123
32-24,14479585,-112
32-25,14483491,-45
32-26,14487397,1
32-27,14491303,-24
32-28,14495209,-49
32-29,14499115,-17
32-30,14503021,-4
32-31,14506927,-46
32-32,14510833,-68
32-1,14514836,-39
32-2,14518742,1
32-3,14522648,-7
32-4,14526554,-52
32-5,14530460,-41
32-6,14534366,-10
32-7,14538272,-54
32-8,14542178,-101
32-9,14546084,-68
32-10,14549990,-12
32-11,14553896,10
32-12,14557802,-12
32-13,14561708,-20
32-14,14565614,43
32-15,14569520,61
32-16,14573426,-9
32-17,14577332,-34
32-18,14581238,16
32-19,14585144,41
32-20,14589050,9
32-21,14592956,-22
32-22,14596862,-13
32-23,14600768,12
32-24,14604674,3
32-25,14608580,-38
32-26,14612486,-24
32-27,14616392,25
32-28,14620298,28
32-29,14624204,6
32-30,14628110,-13
32-31,14632016,-10
32-32,14635922,9
32-1,14639712,-2
32-2,14643618,-36
32-3,14647524,-34
32-4,14651430,3
32-5,14655336,-10
32-6,14659242,-71
32-7,14663148,-76
32-8,14667054,-33
32-9,14670960,-12
32-10,14674866,-27
32-11,14678772,-45
32-12,14682678,-30
32-13,14686584,-16
32-14,14690490,-45
32-15,14694396,-69
32-16,14698302,-39
32-17,14702208,3
32-18,14706114,0
32-19,14710020,-20
32-20,14713926,7
32-21,14717832,41
32-22,14721738,14
32-23,14725644,-36
32-24,14729550,-48
32-25,14733456,-1
32-26,14737362,29
32-27,14741268,-15
32-28,14745174,-15
32-29,14749080,52
32-30,14752986,69
32-31,14756892,29
32-32,14760798,-4
32-1,14764709,-2
32-2,14768615,20
32-3,14772521,-4
32-4,14776427,-71
32-5,14780333,-81
32-6,14784239,-38
32-7,14788145,-37
32-8,14792051,-65
32-9,14795957,-72
32-10,14799863,-63
32-11,14803769,-60
32-12,14807675,-84
32-13,14811581,-101
32-14,14815487,-62
32-15,14819393,-40
32-16,14823299,-104
32-17,14827205,-148
32-18,14831111,-90
32-19,14835017,-23
32-20,14838923,-26
32-21,14842829,-49
32-22,14846735,-19
32-23,14850641,27
32-24,14854547,14
32-25,14858453,-18
32-26,14862359,-21
32-27,14866265,-7
32-28,14870171,-7
32-29,14874077,-34
32-30,14877983,-56
32-31,14881889,-26
32-32,14885795,24
32-1,14889707,-1
32-2,14893613,-59
32-3,14897519,-33
32-4,14901425,23
32-5,14905331,21
32-6,14909237,-8
32-7,14913143,3
32-8,14917049,48
32-9,14920955,40
32-10,14924861,-21
32-11,14928767,-28
32-12,14932673,27
32-13,14936579,48
32-14,14940485,15
32-15,14944391,4
32-16,14948297,38
32-17,14952203,45
32-18,14956109,7
32-19,14960015,-27
32-20,14963921,-9
32-21,14967827,36
32-22,14971733,18
32-23,14975639,-46
32-24,14979545,-41
32-25,14983451,2
32-26,14987357,-17
32-27,14991263,-69
32-28,14995169,-65
32-29,14999075,1
32-30,15002981,42
32-31,15006887,9
32-32,15010793,-33
32-1,15014735,19
32-2,15018641,94
32-3,15022547,56
32-4,15026453,-7
32-5,15030359,6
32-6,15034265,31
32-7,15038171,7
32-8,15042077,-45
32-9,15045983,-40
32-10,15049889,-1
32-11,15053795,-16
32-12,15057701,-64
32-13,15061607,-84
32-14,15065513,-77
32-15,15069419,-62
32-16,15073325,-69
32-17,15077231,-89
32-18,15081137,-63
32-19,15085043,-29
32-20,15088949,-64
32-21,15092855,-113
32-22,15096761,-78
32-23,15100667,-1
32-24,15104573,-17
32-25,15108479,-86
32-26,15112385,-74
32-27,15116291,-40
32-28,15120197,-57
32-29,15124103,-95
32-30,15128009,-110
32-31,15131915,-52
32-32,15135821,6
32-1,15139885,-39
32-2,15143791,-84
32-3,15147697,-62
32-4,15151603,-46
32-5,15155509,-75
32-6,15159415,-116
32-7,15163321,-107
32-8,15167227,-60
32-9,15171133,-43
32-10,15175039,-64
32-11,15178945,-55
32-12,15182851,21
32-13,15186757,72
32-14,15190663,29
32-15,15194569,1
32-16,15198475,53
32-17,15202381,87
32-18,15206287,51
32-19,15210193,4
32-20,15214099,-1
32-21,15218005,12
32-22,15221911,-24
32-23,15225817,-62
32-24,15229723,-51
32-25,15233629,-23
32-26,15237535,-9
32-27,15241441,-38
32-28,15245347,-65
32-29,15249253,-18
32-30,15253159,22
32-31,15257065,-5
32-32,15260971,-30
32-1,15264700,-17
32-2,15268606,-6
32-3,15272512,-37
32-4,15276418,-79
32-5,15280324,-46
32-6,15284230,40
32-7,15288136,54
32-8,15292042,-5
32-9,15295948,-25
32-10,15299854,16
32-11,15303760,28
32-12,15307666,-25
32-13,15311572,-56
32-14,15315478,-20
32-15,15319384,19
32-16,15323290,-10
32-17,15327196,-55
32-18,15331102,-31
32-19,15335008,5
32-20,15338914,-27
32-21,15342820,-90
32-22,15346726,-111
32-23,15350632,-70
32-24,15354538,-23
32-25,15358444,-34
32-26,15362350,-31
32-27,15366256,8
32-28,15370162,-1
32-29,15374068,-43
32-30,15377974,-59
32-31,15381880,-38
32-32,15385786,11
32-1,15389698,17
32-2,15393604,-34
32-3,15397510,-42
32-4,15401416,3
32-5,15405322,0
32-6,15409228,-50
32-7,15413134,-16
32-8,15417040,84
32-9,15420946,76
32-10,15424852,-20
32-11,15428758,-49
32-12,15432664,-10
32-13,15436570,4
32-14,15440476,-24
32-15,15444382,-62
32-16,15448288,-69
32-17,15452194,-40
32-18,15456100,-54
32-19,15460006,-99
32-20,15463912,-51
32-21,15467818,18
32-22,15471724,-15
32-23,15475630,-59
32-24,15479536,-23
32-25,15483442,31
32-26,15487348,2
32-27,15491254,-85
32-28,15495160,-100
32-29,15499066,-48
32-30,15502972,-21
32-31,15506878,-51
32-32,15510784,-71
32-1,15514695,-14
32-2,15518601,32
32-3,15522507,3
32-4,15526413,-20
32-5,15530319,-15
32-6,15534225,8
32-7,15538131,10
32-8,15542037,-52
32-9,15545943,-62
32-10,15549849,6
32-11,15553755,28
32-12,15557661,8
32-13,15561567,-1
32-14,15565473,11
32-15,15569379,40
32-16,15573285,17
32-17,15577191,-53
32-18,15581097,-52
32-19,15585003,-5
32-20,15588909,-41
32-21,15592815,-104
32-22,15596721,-81
32-23,15600627,-23
32-24,15604533,-17
32-25,15608439,-36
32-26,15612345,-10
32-27,15616251,24
32-28,15620157,7
32-29,15624063,-30
32-30,15627969,-48
32-31,15631875,-34
32-32,15635781,-1
32-1,15639693,4
32-2,15643599,-32
32-3,15647505,-52
32-4,15651411,-10
32-5,15655317,6
32-6,15659223,-46
32-7,15663129,-53
32-8,15667035,-7
32-9,15670941,-17
32-10,15674847,-58
32-11,15678753,-57
32-12,15682659,-28
32-13,15686565,-32
32-14,15690471,-80
32-15,15694377,-102
32-16,15698283,-63
32-17,15702189,-36
32-18,15706095,-63
32-19,15710001,-102
32-20,15713907,-99
32-21,15717813,-56
32-22,15721719,-49
32-23,15725625,-84
32-24,15729531,-79
32-25,15733437,-42
32-26,15737343,-54
32-27,15741249,-115
32-28,15745155,-114
32-29,15749061,-43
32-30,15752967,-27
32-31,15756873,-80
32-32,15760779,-104
32-1,15764874,-54
32-2,15768780,-1
32-3,15772686,-48
32-4,15776592,-113
32-5,15780498,-78
32-6,15784404,-11
32-7,15788310,-15
32-8,15792216,-54
32-9,15796122,-44
32-10,15800028,-19
32-11,15803934,-38
32-12,15807840,-71
32-13,15811746,-58
32-14,15815652,-2
32-15,15819558,7
32-16,15823464,-74
32-17,15827370,-136
32-18,15831276,-112
32-19,15835182,-58
32-20,15839088,-42
32-21,15842994,-66
32-22,15846900,-75
32-23,15850806,-39
32-24,15854712,-28
32-25,15858618,-74
32-26,15862524,-88
32-27,15866430,-44
32-28,15870336,-11
32-29,15874242,-7
32-30,15878148,-19
32-31,15882054,-2
32-32,15885960,35
32-1,15889719,19
32-2,15893625,-21
32-3,15897531,-11
32-4,15901437,28
32-5,15905343,19
32-6,15909249,-34
32-7,15913155,-48
32-8,15917061,-17
32-9,15920967,-3
32-10,15924873,-21
32-11,15928779,-27
32-12,15932685,2
32-13,15936591,14
32-14,15940497,-26
32-15,15944403,-63
32-16,15948309,-40
32-17,15952215,-12
32-18,15956121,-44
32-19,15960027,-94
32-20,15963933,-109
32-21,15967839,-100
32-22,15971745,-112
32-23,15975651,-134
32-24,15979557,-116
32-25,15983463,-70
32-26,15987369,-42
32-27,15991275,-57
32-28,15995181,-64
32-29,15999087,-2
32-30,16002993,36
32-31,16006899,-26
32-32,16010805,-75
32-1,16014686,-30
32-2,16018592,33
32-3,16022498,28
32-4,16026404,-12
32-5,16030310,8
32-6,16034216,68
32-7,16038122,58
32-8,16042028,-2
32-9,16045934,-18
32-10,16049840,14
32-11,16053746,32
32-12,16057652,3
32-13,16061558,-3
32-14,16065464,49
32-15,16069370,49
32-16,16073276,-33
32-17,16077182,-95
32-18,16081088,-66
32-19,16084994,-6
32-20,16088900,-18
32-21,16092806,-55
32-22,16096712,-42
32-23,16100618,-20
32-24,16104524,-34
32-25,16108430,-82
32-26,16112336,-95
32-27,16116242,-56
32-28,16120148,-30
32-29,16124054,-23
32-30,16127960,-27
32-31,16131866,-8
32-32,16135772,36
32-1,16139683,20
32-2,16143589,-20
32-3,16147495,-5
32-4,16151401,30
32-5,16155307,24
32-6,16159213,-15
32-7,16163119,-7
32-8,16167025,30
32-9,16170931,3
32-10,16174837,-52
32-11,16178743,-57
32-12,16182649,-16
32-13,16186555,-8
32-14,16190461,-56
32-15,16194367,-74
32-16,16198273,-34
32-17,16202179,13
32-18,16206085,17
32-19,16209991,1
32-20,16213897,37
32-21,16217803,78
32-22,16221709,31
32-23,16225615,-30
32-24,16229521,-11
32-25,16233427,38
32-26,16237333,44
32-27,16241239,-11
32-28,16245145,-46
32-29,16249051,8
32-30,16252957,38
32-31,16256863,-33
32-32,16260769,-77
32-1,16264681,-29
32-2,16268587,39
32-3,16272493,58
32-4,16276399,19
32-5,16280305,-5
32-6,16284211,37
32-7,16288117,33
32-8,16292023,-35
32-9,16295929,-52
32-10,16299835,-28
32-11,16303741,-19
32-12,16307647,-40
32-13,16311553,-57
32-14,16315459,-5
32-15,16319365,38
32-16,16323271,-2
32-17,16327177,-17
32-18,16331083,40
32-19,16334989,69
32-20,16338895,11
32-21,16342801,-54
32-22,16346707,-39
32-23,16350613,-3
32-24,16354519,-26
32-25,16358425,-80
32-26,16362331,-105
32-27,16366237,-87
32-28,16370143,-55
32-29,16374049,-60
32-30,16377955,-79
32-31,16381861,-27
32-32,16385767,25
32-1,16389679,-35
32-2,16393585,-99
32-3,16397491,-72
32-4,16401397,-51
32-5,16405303,-95
32-6,16409209,-141
32-7,16413115,-124
32-8,16417021,-64
32-9,16420927,-48
32-10,16424833,-102
32-11,16428739,-118
32-12,16432645,-65
32-13,16436551,-51
32-14,16440457,-75
32-15,16444363,-82
32-16,16448269,-60
32-17,16452175,-13
32-18,16456081,-29
32-19,16459987,-86
32-20,16463893,-57
32-21,16467799,-14
32-22,16471705,-51
32-23,16475611,-64
32-24,16479517,-23
32-25,16483423,3
32-26,16487329,-6
32-27,16491235,-43
32-28,16495141,-39
32-29,16499047,24
32-30,16502953,27
32-31,16506859,-34
32-32,16510765,-64
32-1,16514737,-40
32-2,16518643,-14
32-3,16522549,-54
32-4,16526455,-102
32-5,16530361,-62
32-6,16534267,-11
32-7,16538173,-10
32-8,16542079,-25
32-9,16545985,-19
32-10,16549891,22
32-11,16553797,37
32-12,16557703,2
32-13,16561609,-3
32-14,16565515,38
32-15,16569421,49
32-16,16573327,-2
32-17,16577233,-51
32-18,16581139,-48
32-19,16585045,-35
32-20,16588951,-54
32-21,16592857,-73
32-22,16596763,-39
32-23,16600669,17
32-24,16604575,-4
32-25,16608481,-76
32-26,16612387,-70
32-27,16616293,-7
32-28,16620199,10
32-29,16624105,-33
32-30,16628011,-49
32-31,16631917,-10
32-32,16635823,-4
32-1,16639735,-56
32-2,16643641,-91
32-3,16647547,-67
32-4,16651453,-31
32-5,16655359,-61
32-6,16659265,-91
32-7,16663171,-34
32-8,16667077,24
32-9,16670983,0
32-10,16674889,-51
32-11,16678795,-54
32-12,16682701,-15
32-13,16686607,-6
32-14,16690513,-31
32-15,16694419,-29
32-16,16698325,11
32-17,16702231,49
32-18,16706137,24
32-19,16710043,-29
32-20,16713949,11
32-21,16717855,87
32-22,16721761,52
32-23,16725667,-37
32-24,16729573,-52
32-25,16733479,-7
32-26,16737385,-22
32-27,16741291,-90
32-28,16745197,-86
32-29,16749103,-31
32-30,16753009,-9
32-31,16756915,-16
32-32,16760821,-33
32-1,16764671,-3
32-2,16768577,44
32-3,16772483,-12
32-4,16776389,-100
32-5,16780295,-85
32-6,16784201,-23
32-7,16788107,-26
32-8,16792013,-73
32-9,16795919,-60
32-10,16799825,-11
32-11,16803731,-22
32-12,16807637,-66
32-13,16811543,-75
32-14,16815449,-56
32-15,16819355,-46
32-16,16823261,-74
32-17,16827167,-98
32-18,16831073,-78
32-19,16834979,-49
32-20,16838885,-58
32-21,16842791,-92
32-22,16846697,-78
32-23,16850603,-17
32-24,16854509,-34
32-25,16858415,-113
32-26,16862321,-116
32-27,16866227,-63
32-28,16870133,-41
32-29,16874039,-54
32-30,16877945,-79
32-31,16881851,-59
32-32,16885757,-9
32-1,16889669,-31
32-2,16893575,-74
32-3,16897481,-43
32-4,16901387,7
32-5,16905293,-14
32-6,16909199,-87
32-7,16913105,-95
32-8,16917011,-47
32-9,16920917,-66
32-10,16924823,-113
32-11,16928729,-93
32-12,16932635,-55
32-13,16936541,-60
32-14,16940447,-94
32-15,16944353,-108
32-16,16948259,-79
32-17,16952165,-47
32-18,16956071,-61
32-19,16959977,-79
32-20,16963883,-46
32-21,16967789,-8
32-22,16971695,-14
32-23,16975601,-52
32-24,16979507,-74
32-25,16983413,-42
32-26,16987319,-20
32-27,16991225,-49
32-28,16995131,-57
32-29,16999037,-18
32-30,17002943,-2
32-31,17006849,-43
32-32,17010755,-87
32-1,17014667,-70
32-2,17018573,-39
32-3,17022479,-52
32-4,17026385,-83
32-5,17030291,-81
32-6,17034197,-30
32-7,17038103,12
32-8,17042009,-2
32-9,17045915,-11
32-10,17049821,38
32-11,17053727,67
32-12,17057633,17
32-13,17061539,-24
32-14,17065445,8
32-15,17069351,43
32-16,17073257,5
32-17,17077163,-42
32-18,17081069,-15
32-19,17084975,7
32-20,17088881,-50
32-21,17092787,-93
32-22,17096693,-51
32-23,17100599,-5
32-24,17104505,-40
32-25,17108411,-75
32-26,17112317,-38
32-27,17116223,2
32-28,17120129,-4
32-29,17124035,-41
32-30,17127941,-83
32-31,17131847,-71
32-32,17135753,-21
32-1,17139664,-28
32-2,17143570,-66
32-3,17147476,-38
32-4,17151382,3
32-5,17155288,-26
32-6,17159194,-55
32-7,17163100,-20
32-8,17167006,28
32-9,17170912,20
32-10,17174818,-34
32-11,17178724,-31
32-12,17182630,23
32-13,17186536,4
32-14,17190442,-68
32-15,17194348,-87
32-16,17198254,-49
32-17,17202160,-15
32-18,17206066,-28
32-19,17209972,-61
32-20,17213878,-48
32-21,17217784,-14
32-22,17221690,-24
32-23,17225596,-62
32-24,17229502,-46
32-25,17233408,11
32-26,17237314,20
32-27,17241220,-15
32-28,17245126,-25
32-29,17249032,11
32-30,17252938,29
32-31,17256844,-4
32-32,17260750,-24
32-1,17264723,4
32-2,17268629,33
32-3,17272535,4
32-4,17276441,-28
32-5,17280347,12
32-6,17284253,50
32-7,17288159,-2
32-8,17292065,-85
32-9,17295971,-97
32-10,17299877,-73
32-11,17303783,-79
32-12,17307689,-85
32-13,17311595,-71
32-14,17315501,-48
32-15,17319407,-42
32-16,17323313,-81
32-17,17327219,-104
32-18,17331125,-49
32-19,17335031,12
32-20,17338937,-26
32-21,17342843,-81
32-22,17346749,-41
32-23,17350655,-3
32-24,17354561,-45
32-25,17358467,-92
32-26,17362373,-68
32-27,17366279,3
32-28,17370185,18
32-29,17374091,-23
32-30,17377997,-20
32-31,17381903,29
32-32,17385809,30
32-1,17389751,-56
32-2,17393657,-124
32-3,17397563,-70
32-4,17401469,4
32-5,17405375,-17
32-6,17409281,-62
32-7,17413187,-36
32-8,17417093,25
32-9,17420999,34
32-10,17424905,-16
32-11,17428811,-40
32-12,17432717,-13
32-13,17436623,-16
32-14,17440529,-60
32-15,17444435,-70
32-16,17448341,-26
32-17,17452247,25
32-18,17456153,21
32-19,17460059,-18
32-20,17463965,-9
32-21,17467871,35
32-22,17471777,40
32-23,17475683,-5
32-24,17479589,-43
32-25,17483495,-25
32-26,17487401,-5
32-27,17491307,-54
32-28,17495213,-77
32-29,17499119,-27
32-30,17503025,-25
32-31,17506931,-75
32-32,17510837,-78
32-1,17514657,-53
32-2,17518563,-40
32-3,17522469,-48
32-4,17526375,-77
32-5,17530281,-60
32-6,17534187,-7
32-7,17538093,-26
32-8,17541999,-73
32-9,17545905,-55
32-10,17549811,-21
32-11,17553717,-19
32-12,17557623,-43
32-13,17561529,-50
32-14,17565435,-31
32-15,17569341,-43
32-16,17573247,-77
32-17,17577153,-86
32-18,17581059,-62
32-19,17584965,-32
32-20,17588871,-48
32-21,17592777,-79
32-22,17596683,-66
32-23,17600589,-42
32-24,17604495,-58
32-25,17608401,-85
32-26,17612307,-69
32-27,17616213,-44
32-28,17620119,-58
32-29,17624025,-69
32-30,17627931,-61
32-31,17631837,-45
32-32,17635743,-13
32-1,17639655,-13
32-2,17643561,-36
32-3,17647467,-29
32-4,17651373,-26
32-5,17655279,-42
32-6,17659185,-54
32-7,17663091,-36
32-8,17666997,12
32-9,17670903,20
32-10,17674809,-26
32-11,17678715,-42
32-12,17682621,-6
32-13,17686527,2
32-14,17690433,-51
32-15,17694339,-75
32-16,17698245,-11
32-17,17702151,45
32-18,17706057,12
32-19,17709963,-25
32-20,17713869,13
32-21,17717775,54
32-22,17721681,39
32-23,17725587,8
32-24,17729493,13
32-25,17733399,38
32-26,17737305,16
32-27,17741211,-54
32-28,17745117,-69
32-29,17749023,-22
32-30,17752929,-9
32-31,17756835,-42
32-32,17760741,-62
32-1,17764653,-26
32-2,17768559,18
32-3,17772465,0
32-4,17776371,-29
32-5,17780277,-5
32-6,17784183,27
32-7,17788089,6
32-8,17791995,-47
32-9,17795901,-55
32-10,17799807,-13
32-11,17803713,6
32-12,17807619,-31
32-13,17811525,-52
32-14,17815431,-9
32-15,17819337,26
32-16,17823243,-6
32-17,17827149,-42
32-18,17831055,-12
32-19,17834961,25
32-20,17838867,-7
32-21,17842773,-48
32-22,17846679,-32
32-23,17850585,16
32-24,17854491,24
32-25,17858397,-21
32-26,17862303,-24
32-27,17866209,28
32-28,17870115,41
32-29,17874021,7
32-30,17877927,-23
32-31,17881833,-11
32-32,17885739,17
32-1,17889650,-6
32-2,17893556,-25
32-3,17897462,2
32-4,17901368,9
32-5,17905274,-31
32-6,17909180,-86
32-7,17913086,-78
32-8,17916992,9
32-9,17920898,27
32-10,17924804,-62
32-11,17928710,-99
32-12,17932616,-40
32-13,17936522,-10
32-14,17940428,-67
32-15,17944334,-117
32-16,17948240,-95
32-17,17952146,-59
32-18,17956052,-61
32-19,17959958,-69
32-20,17963864,-47
32-21,17967770,-13
32-22,17971676,-13
32-23,17975582,-21
32-24,17979488,-5
32-25,17983394,11
32-26,17987300,-20
32-27,17991206,-96
32-28,17995112,-105
32-29,17999018,-28
32-30,18002924,-8
32-31,18006830,-50
32-32,18010736,-48
32-1,18014709,-19
32-2,18018615,-12
32-3,18022521,-31
32-4,18026427,-47
32-5,18030333,-5
32-6,18034239,61
32-7,18038145,62
32-8,18042051,19
32-9,18045957,14
32-10,18049863,53
32-11,18053769,70
32-12,18057675,22
32-13,18061581,-21
32-14,18065487,3
32-15,18069393,7
32-16,18073299,-62
32-17,18077205,-99
32-18,18081111,-38
32-19,18085017,19
32-20,18088923,-7
32-21,18092829,-51
32-22,18096735,-46
32-23,18100641,-15
32-24,18104547,-8
32-25,18108453,-24
32-26,18112359,27
32-27,18116265,100
32-28,18120171,73
32-29,18124077,4
32-30,18127983,-10
32-31,18131889,24
32-32,18135795,61
32-1,18139768,52
32-2,18143674,7
32-3,18147580,-9
32-4,18151486,0
32-5,18155392,-27
32-6,18159298,-61
32-7,18163204,-36
32-8,18167110,14
32-9,18171016,18
32-10,18174922,-38
32-11,18178828,-78
32-12,18182734,-41
32-13,18186640,-9
32-14,18190546,-32
32-15,18194452,-30
32-16,18198358,19
32-17,18202264,32
32-18,18206170,-20
32-19,18210076,-50
32-20,18213982,-23
32-21,18217888,-9
32-22,18221794,-42
32-23,18225700,-89
32-24,18229606,-95
32-25,18233512,-65
32-26,18237418,-67
32-27,18241324,-92
32-28,18245230,-56
32-29,18249136,9
32-30,18253042,-6
32-31,18256948,-67
32-32,18260854,-96
32-1,18264643,-94
32-2,18268549,-78
32-3,18272455,-86
32-4,18276361,-102
32-5,18280267,-58
32-6,18284173,-24
32-7,18288079,-69
32-8,18291985,-109
32-9,18295891,-80
32-10,18299797,-28
32-11,18303703,-32
32-12,18307609,-106
32-13,18311515,-131
32-14,18315421,-57
32-15,18319327,-14
32-16,18323233,-30
32-17,18327139,-18
32-18,18331045,34
32-19,18334951,65
32-20,18338857,28
32-21,18342763,-11
32-22,18346669,19
32-23,18350575,78
32-24,18354481,94
32-25,18358387,60
32-26,18362293,57
32-27,18366199,75
32-28,18370105,42
32-29,18374011,15
32-30,18377917,9
32-31,18381823,6
32-32,18385729,19
32-1,18389641,-10
32-2,18393547,-48
32-3,18397453,-9
32-4,18401359,26
32-5,18405265,-9
32-6,18409171,-47
32-7,18413077,-23
32-8,18416983,13
32-9,18420889,-11
32-10,18424795,-57
32-11,18428701,-73
32-12,18432607,-53
32-13,18436513,-28
32-14,18440419,-63
32-15,18444325,-83
32-16,18448231,-22
32-17,18452137,-16
32-18,18456043,-103
32-19,18459949,-135
32-20,18463855,-70
32-21,18467761,-24
32-22,18471667,-59
32-23,18475573,-106
32-24,18479479,-98
32-25,18483385,-57
32-26,18487291,-71
32-27,18491197,-134
32-28,18495103,-122
32-29,18499009,-53
32-30,18502915,-62
32-31,18506821,-130
32-32,18510727,-138
32-1,18514638,-85
32-2,18518544,-65
32-3,18522450,-109
32-4,18526356,-147
32-5,18530262,-96
32-6,18534168,-39
32-7,18538074,-65
32-8,18541980,-92
32-9,18545886,-58
32-10,18549792,-5
32-11,18553698,-9
32-12,18557604,-61
32-13,18561510,-53
32-14,18565416,-7
32-15,18569322,-4
32-16,18573228,-55
32-17,18577134,-101
32-18,18581040,-72
32-19,18584946,-36
32-20,18588852,-61
32-21,18592758,-75
32-22,18596664,-41
32-23,18600570,3
32-24,18604476,7
32-25,18608382,-46
32-26,18612288,-75
32-27,18616194,-35
32-28,18620100,-3
32-29,18624006,-22
32-30,18627912,-39
32-31,18631818,-16
32-32,18635724,-2
32-1,18639636,-26
32-2,18643542,-27
32-3,18647448,18
32-4,18651354,36
32-5,18655260,2
32-6,18659166,-34
32-7,18663072,-24
32-8,18666978,6
32-9,18670884,-8
32-10,18674790,-55
32-11,18678696,-54
32-12,18682602,-13
32-13,18686508,-23
32-14,18690414,-86
32-15,18694320,-113
32-16,18698226,-85
32-17,18702132,-74
32-18,18706038,-128
32-19,18709944,-167
32-20,18713850,-116
32-21,18717756,-61
32-22,18721662,-71
32-23,18725568,-90
32-24,18729474,-53
32-25,18733380,12
32-26,18737286,-4
32-27,18741192,-73
32-28,18745098,-59
32-29,18749004,-3
32-30,18752910,-10
32-31,18756816,-54
32-32,18760722,-55
32-1,18764634,-4
32-2,18768540,26
32-3,18772446,-2
32-4,18776352,-27
32-5,18780258,9
32-6,18784164,46
32-7,18788070,-6
32-8,18791976,-68
32-9,18795882,-41
32-10,18799788,14
32-11,18803694,18
32-12,18807600,-19
32-13,18811506,-32
32-14,18815412,26
32-15,18819318,63
32-16,18823224,10
32-17,18827130,-24
32-18,18831036,26
32-19,18834942,63
32-20,18838848,19
32-21,18842754,-12
32-22,18846660,46
32-23,18850566,84
32-24,18854472,26
32-25,18858378,-47
32-26,18862284,-51
32-27,18866190,-23
32-28,18870096,-36
32-29,18874002,-66
32-30,18877908,-59
32-31,18881814,-14
32-32,18885720,29
32-1,18889784,-3
32-2,18893690,-48
32-3,18897596,-11
32-4,18901502,20
32-5,18905408,-18
32-6,18909314,-40
32-7,18913220,-25
32-8,18917126,-25
32-9,18921032,-59
32-10,18924938,-104
32-11,18928844,-105
32-12,18932750,-66
32-13,18936656,-53
32-14,18940562,-82
32-15,18944468,-98
32-16,18948374,-70
32-17,18952280,-42
32-18,18956186,-62
32-19,18960092,-72
32-20,18963998,-19
32-21,18967904,8
32-22,18971810,-56
32-23,18975716,-110
32-24,18979622,-87
32-25,18983528,-44
32-26,18987434,-47
32-27,18991340,-93
32-28,18995246,-115
32-29,18999152,-68
32-30,19003058,-26
32-31,19006964,-71
32-32,19010870,-106
32-1,19014629,-41
32-2,19018535,-1
32-3,19022441,-66
32-4,19026347,-124
32-5,19030253,-111
32-6,19034159,-82
32-7,19038065,-99
32-8,19041971,-139
32-9,19045877,-117
32-10,19049783,-39
32-11,19053689,-11
32-12,19057595,-50
32-13,19061501,-62
32-14,19065407,-8
32-15,19069313,-4
32-16,19073219,-85
32-17,19077125,-98
32-18,19081031,-17
32-19,19084937,28
32-20,19088843,6
32-21,19092749,-21
32-22,19096655,-2
32-23,19100561,42
32-24,19104467,29
32-25,19108373,-2
32-26,19112279,30
32-27,19116185,55
32-28,19120091,21
32-29,19123997,-11
32-30,19127903,-30
32-31,19131809,-26
32-32,19135715,-11
32-1,19139626,-50
32-2,19143532,-84
32-3,19147438,-22
32-4,19151344,39
32-5,19155250,-22
32-6,19159156,-105
32-7,19163062,-80
32-8,19166968,-14
32-9,19170874,-13
32-10,19174780,-53
32-11,19178686,-52
32-12,19182592,-18
32-13,19186498,-14
32-14,19190404,-64
32-15,19194310,-92
32-16,19198216,-23
32-17,19202122,37
32-18,19206028,-4
32-19,19209934,-34
32-20,19213840,-1
32-21,19217746,28
32-22,19221652,8
32-23,19225558,-27
32-24,19229464,-28
32-25,19233370,3
32-26,19237276,5
32-27,19241182,-41
32-28,19245088,-49
32-29,19248994,3
32-30,19252900,6
32-31,19256806,-49
32-32,19260712,-69
32-1,19264624,-30
32-2,19268530,-4
32-3,19272436,-26
32-4,19276342,-49
32-5,19280248,-36
32-6,19284154,-17
32-7,19288060,-47
32-8,19291966,-92
32-9,19295872,-89
32-10,19299778,-61
32-11,19303684,-39
32-12,19307590,-34
32-13,19311496,-27
32-14,19315402,5
32-15,19319308,7
32-16,19323214,-47
32-17,19327120,-83
32-18,19331026,-41
32-19,19334932,13
32-20,19338838,-30
32-21,19342744,-104
32-22,19346650,-81
32-23,19350556,-28
32-24,19354462,-74
32-25,19358368,-144
32-26,19362274,-120
32-27,19366180,-49
32-28,19370086,11
32-29,19373992,32
32-30,19377898,14
32-31,19381804,40
32-32,19385710,79
32-1,19389622,43
32-2,19393528,14
32-3,19397434,46
32-4,19401340,62
32-5,19405246,41
32-6,19409152,23
32-7,19413058,20
32-8,19416964,35
32-9,19420870,38
32-10,19424776,-4
32-11,19428682,-26
32-12,19432588,23
32-13,19436494,59
32-14,19440400,16
32-15,19444306,-22
32-16,19448212,1
32-17,19452118,11
32-18,19456024,-26
32-19,19459930,-45
32-20,19463836,-12
32-21,19467742,11
32-22,19471648,-18
32-23,19475554,-27
32-24,19479460,25
32-25,19483366,81
32-26,19487272,73
32-27,19491178,11
32-28,19495084,5
32-29,19498990,54
32-30,19502896,33
32-31,19506802,-45
32-32,19510708,-68
32-1,19514619,-34
32-2,19518525,-6
32-3,19522431,-26
32-4,19526337,-59
32-5,19530243,-28
32-6,19534149,38
32-7,19538055,34
32-8,19541961,-8
32-9,19545867,-1
32-10,19549773,13
32-11,19553679,-8
32-12,19557585,-39
32-13,19561491,-50
32-14,19565397,-35
32-15,19569303,-36
32-16,19573209,-87
32-17,19577115,-129
32-18,19581021,-89
32-19,19584927,-38
32-20,19588833,-64
32-21,19592739,-84
32-22,19596645,-34
32-23,19600551,2
32-24,19604457,-33
32-25,19608363,-77
32-26,19612269,-29
32-27,19616175,43
32-28,19620081,12
32-29,19623987,-53
32-30,19627893,-62
32-31,19631799,-26
32-32,19635705,-6
32-1,19639800,-51
32-2,19643706,-94
32-3,19647612,-56
32-4,19651518,-11
32-5,19655424,-35
32-6,19659330,-86
32-7,19663236,-89
32-8,19667142,-49
32-9,19671048,-30
32-10,19674954,-47
32-11,19678860,-47
32-12,19682766,-4
32-13,19686672,14
32-14,19690578,-28
32-15,19694484,-52
32-16,19698390,-29
32-17,19702296,-25
32-18,19706202,-49
32-19,19710108,-71
32-20,19714014,-53
32-21,19717920,-14
32-22,19721826,-38
32-23,19725732,-81
32-24,19729638,-65
32-25,19733544,-41
32-26,19737450,-65
32-27,19741356,-112
32-28,19745262,-109
32-29,19749168,-57
32-30,19753074,-39
32-31,19756980,-70
32-32,19760886,-87
32-1,19764615,-40
32-2,19768521,-1
32-3,19772427,-52
32-4,19776333,-110
32-5,19780239,-93
32-6,19784145,-55
32-7,19788051,-55
32-8,19791957,-58
32-9,19795863,-11
32-10,19799769,29
32-11,19803675,2
32-12,19807581,-36
32-13,19811487,-34
32-14,19815393,0
32-15,19819299,33
32-16,19823205,25
32-17,19827111,-10
32-18,19831017,26
32-19,19834923,91
32-20,19838829,50
32-21,19842735,-5
32-22,19846641,29
32-23,19850547,40
32-24,19854453,-2
32-25,19858359,-41
32-26,19862265,-41
32-27,19866171,-10
32-28,19870077,-6
32-29,19873983,-32
32-30,19877889,-39
32-31,19881795,-11
32-32,19885701,-4
32-1,19889612,-49
32-2,19893518,-62
32-3,19897424,-23
32-4,19901330,8
32-5,19905236,-7
32-6,19909142,-45
32-7,19913048,-25
32-8,19916954,34
32-9,19920860,34
32-10,19924766,-9
32-11,19928672,-25
32-12,19932578,9
32-13,19936484,28
32-14,19940390,-8
32-15,19944296,-11
32-16,19948202,27
32-17,19952108,22
32-18,19956014,-19
32-19,19959920,-38
32-20,19963826,-15
32-21,19967732,13
32-22,19971638,0
32-23,19975544,-21
32-24,19979450,-4
32-25,19983356,39
32-26,19987262,37
32-27,19991168,-20
32-28,19995074,-17
32-29,19998980,46
32-30,20002886,42
32-31,20006792,-16
32-32,20010698,-5
32-1,20014640,56
32-2,20018546,51
32-3,20022452,-20
32-4,20026358,-64
32-5,20030264,-25
32-6,20034170,29
32-7,20038076,8
32-8,20041982,-39
32-9,20045888,-30
32-10,20049794,5
32-11,20053700,5
32-12,20057606,-30
32-13,20061512,-28
32-14,20065418,18
32-15,20069324,32
32-16,20073230,-2
32-17,20077136,-35
32-18,20081042,-27
32-19,20084948,13
32-20,20088854,19
32-21,20092760,-23
32-22,20096666,-19
32-23,20100572,30
32-24,20104478,18
32-25,20108384,-35
32-26,20112290,-36
32-27,20116196,9
32-28,20120102,3
32-29,20124008,-57
32-30,20127914,-50
32-31,20131820,18
32-32,20135726,30
32-1,20139608,-21
32-2,20143514,-57
32-3,20147420,-45
32-4,20151326,-33
32-5,20155232,-64
32-6,20159138,-84
32-7,20163044,-44
32-8,20166950,-25
32-9,20170856,-63
32-10,20174762,-98
32-11,20178668,-98
32-12,20182574,-71
32-13,20186480,-64
32-14,20190386,-101
32-15,20194292,-116
32-16,20198198,-75
32-17,20202104,-46
32-18,20206010,-87
32-19,20209916,-133
32-20,20213822,-97
32-21,20217728,-48
32-22,20221634,-78
32-23,20225540,-121
32-24,20229446,-99
32-25,20233352,-51
32-26,20237258,-41
32-27,20241164,-88
32-28,20245070,-116
32-29,20248976,-80
32-30,20252882,-74
32-31,20256788,-143
32-32,20260694,-167
32-1,20264605,-69
32-2,20268511,8
32-3,20272417,-40
32-4,20276323,-82
32-5,20280229,-41
32-6,20284135,-10
32-7,20288041,-33
32-8,20291947,-71
32-9,20295853,-60
32-10,20299759,-11
32-11,20303665,-14
32-12,20307571,-57
32-13,20311477,-46
32-14,20315383,24
32-15,20319289,53
32-16,20323195,15
32-17,20327101,-5
32-18,20331007,16
32-19,20334913,25
32-20,20338819,-12
32-21,20342725,-67
32-22,20346631,-49
32-23,20350537,20
32-24,20354443,6
32-25,20358349,-60
32-26,20362255,-31
32-27,20366161,49
32-28,20370067,51
32-29,20373973,9
32-30,20377879,2
32-31,20381785,39
32-32,20385691,63
32-1,20389816,13
32-2,20393722,-37
32-3,20397628,-35
32-4,20401534,-35
32-5,20405440,-86
32-6,20409346,-143
32-7,20413252,-124
32-8,20417158,-70
32-9,20421064,-60
32-10,20424970,-76
32-11,20428876,-68
32-12,20432782,-11
32-13,20436688,4
32-14,20440594,-58
32-15,20444500,-50
32-16,20448406,17
32-17,20452312,27
32-18,20456218,-4
32-19,20460124,-37
32-20,20464030,-42
32-21,20467936,-22
32-22,20471842,-41
32-23,20475748,-82
32-24,20479654,-62
32-25,20483560,3
32-26,20487466,17
32-27,20491372,-38
32-28,20495278,-43
32-29,20499184,3
32-30,20503090,-3
32-31,20506996,-21
32-32,20510902,-16
32-1,20514600,-10
32-2,20518506,23
32-3,20522412,26
32-4,20526318,-1
32-5,20530224,34
32-6,20534130,72
32-7,20538036,36
32-8,20541942,-21
32-9,20545848,-10
32-10,20549754,39
32-11,20553660,43
32-12,20557566,12
32-13,20561472,10
32-14,20565378,64
32-15,20569284,87
32-16,20573190,23
32-17,20577096,-11
32-18,20581002,16
32-19,20584908,35
32-20,20588814,23
32-21,20592720,-26
32-22,20596626,-56
32-23,20600532,-18
32-24,20604438,-9
32-25,20608344,-46
32-26,20612250,-11
32-27,20616156,50
32-28,20620062,38
32-29,20623968,-5
32-30,20627874,-37
32-31,20631780,-37
32-32,20635686,-8
32-1,20639690,-41
32-2,20643596,-86
32-3,20647502,-42
32-4,20651408,6
32-5,20655314,-31
32-6,20659220,-95
32-7,20663126,-121
32-8,20667032,-107
32-9,20670938,-110
32-10,20674844,-152
32-11,20678750,-140
32-12,20682656,-66
32-13,20686562,-69
32-14,20690468,-124
32-15,20694374,-109
32-16,20698280,-51
32-17,20702186,-23
32-18,20706092,-42
32-19,20709998,-67
32-20,20713904,-53
32-21,20717810,-36
32-22,20721716,-74
32-23,20725622,-114
32-24,20729528,-71
32-25,20733434,-2
32-26,20737340,-1
32-27,20741246,-33
32-28,20745152,-14
32-29,20749058,40
32-30,20752964,43
32-31,20756870,-15
32-32,20760776,-39
32-1,20764596,-2
32-2,20768502,-7
32-3,20772408,-72
32-4,20776314,-82
32-5,20780220,-24
32-6,20784126,5
32-7,20788032,-28
32-8,20791938,-62
32-9,20795844,-38
32-10,20799750,19
32-11,20803656,30
32-12,20807562,-22
32-13,20811468,-35
32-14,20815374,20
32-15,20819280,52
32-16,20823186,34
32-17,20827092,5
32-18,20830998,23
32-19,20834904,60
32-20,20838810,9
32-21,20842716,-39
32-22,20846622,4
32-23,20850528,33
32-24,20854434,7
32-25,20858340,-32
32-26,20862246,-24
32-27,20866152,34
32-28,20870058,49
32-29,20873964,-7
32-30,20877870,-61
32-31,20881776,-58
32-32,20885682,-9
32-1,20889593,3
32-2,20893499,-6
32-3,20897405,36
32-4,20901311,61
32-5,20905217,15
32-6,20909123,-23
32-7,20913029,-1
32-8,20916935,43
32-9,20920841,17
32-10,20924747,-57
32-11,20928653,-63
32-12,20932559,-24
32-13,20936465,-38
32-14,20940371,-83
32-15,20944277,-81
32-16,20948183,-50
32-17,20952089,-42
32-18,20955995,-50
32-19,20959901,-66
32-20,20963807,-54
32-21,20967713,-33
32-22,20971619,-85
32-23,20975525,-129
32-24,20979431,-76
32-25,20983337,-18
32-26,20987243,-39
32-27,20991149,-93
32-28,20995055,-105
32-29,20998961,-72
32-30,21002867,-62
32-31,21006773,-100
32-32,21010679,-102
32-1,21014591,-41
32-2,21018497,-24
32-3,21022403,-74
32-4,21026309,-109
32-5,21030215,-87
32-6,21034121,-45
32-7,21038027,-56
32-8,21041933,-84
32-9,21045839,-82
32-10,21049745,-78
32-11,21053651,-86
32-12,21057557,-111
32-13,21061463,-93
32-14,21065369,-13
32-15,21069275,26
32-16,21073181,6
32-17,21077087,-3
32-18,21080993,24
32-19,21084899,59
32-20,21088805,39
32-21,21092711,-1
32-22,21096617,11
32-23,21100523,39
32-24,21104429,26
32-25,21108335,-16
32-26,21112241,-16
32-27,21116147,13
32-28,21120053,-1
32-29,21123959,-42
32-30,21127865,-68
32-31,21131771,-46
32-32,21135677,-22
32-1,21139772,-54
32-2,21143678,-51
32-3,21147584,11
32-4,21151490,34
32-5,21155396,1
32-6,21159302,-32
32-7,21163208,-9
32-8,21167114,44
32-9,21171020,46
32-10,21174926,2
32-11,21178832,-2
32-12,21182738,20
32-13,21186644,-11
32-14,21190550,-42
32-15,21194456,-21
32-16,21198362,0
32-17,21202268,-3
32-18,21206174,-28
32-19,21210080,-47
32-20,21213986,-4
32-21,21217892,29
32-22,21221798,-35
32-23,21225704,-105
32-24,21229610,-66
32-25,21233516,12
32-26,21237422,2
32-27,21241328,-67
32-28,21245234,-77
32-29,21249140,-28
32-30,21253046,-17
32-31,21256952,-51
32-32,21260858,-63
32-1,21264739,-32
32-2,21268645,1
32-3,21272551,-30
32-4,21276457,-64
32-5,21280363,-15
32-6,21284269,18
32-7,21288175,-33
32-8,21292081,-91
32-9,21295987,-86
32-10,21299893,-23
32-11,21303799,4
32-12,21307705,-35
32-13,21311611,-35
32-14,21315517,6
32-15,21319423,-4
32-16,21323329,-45
32-17,21327235,-56
32-18,21331141,-12
32-19,21335047,24
32-20,21338953,-18
32-21,21342859,-43
32-22,21346765,12
32-23,21350671,58
32-24,21354577,50
32-25,21358483,11
32-26,21362389,4
32-27,21366295,34
32-28,21370201,22
32-29,21374107,-35
32-30,21378013,-60
32-31,21381919,-34
32-32,21385825,-20
32-1,21389584,-52
32-2,21393490,-75
32-3,21397396,-51
32-4,21401302,-25
32-5,21405208,-51
32-6,21409114,-91
32-7,21413020,-73
32-8,21416926,-46
32-9,21420832,-63
32-10,21424738,-77
32-11,21428644,-45
32-12,21432550,25
32-13,21436456,44
32-14,21440362,-23
32-15,21444268,-51
32-16,21448174,-4
32-17,21452080,12
32-18,21455986,-41
32-19,21459892,-81
32-20,21463798,-43
32-21,21467704,-1
32-22,21471610,-20
32-23,21475516,-40
32-24,21479422,-20
32-25,21483328,0
32-26,21487234,-37
32-27,21491140,-93
32-28,21495046,-67
32-29,21498952,1
32-30,21502858,-10
32-31,21506764,-85
32-32,21510670,-99
32-1,21514582,-33
32-2,21518488,-20
32-3,21522394,-81
32-4,21526300,-105
32-5,21530206,-79
32-6,21534112,-47
32-7,21538018,-53
32-8,21541924,-92
32-9,21545830,-81
32-10,21549736,-20
32-11,21553642,-2
32-12,21557548,-29
32-13,21561454,-40
32-14,21565360,-15
32-15,21569266,-12
32-16,21573172,-51
32-17,21577078,-71
32-18,21580984,-35
32-19,21584890,-2
32-20,21588796,-31
32-21,21592702,-67
32-22,21596608,-35
32-23,21600514,7
32-24,21604420,-33
32-25,21608326,-96
32-26,21612232,-77
32-27,21616138,-55
32-28,21620044,-99
32-29,21623950,-122
32-30,21627856,-94
32-31,21631762,-24
32-32,21635668,11
32-1,21639579,-45
32-2,21643485,-82
32-3,21647391,-60
32-4,21651297,-36
32-5,21655203,-44
32-6,21659109,-71
32-7,21663015,-54
32-8,21666921,-24
32-9,21670827,-58
32-10,21674733,-120
32-11,21678639,-124
32-12,21682545,-64
32-13,21686451,-37
32-14,21690357,-74
32-15,21694263,-89
32-16,21698169,-56
32-17,21702075,-21
32-18,21705981,-33
32-19,21709887,-53
32-20,21713793,-16
32-21,21717699,35
32-22,21721605,10
32-23,21725511,-45
32-24,21729417,-25
32-25,21733323,13
32-26,21737229,-25
32-27,21741135,-84
32-28,21745041,-66
32-29,21748947,3
32-30,21752853,6
32-31,21756759,-45
32-32,21760665,-35
32-1,21764577,17
32-2,21768483,9
32-3,21772389,-42
32-4,21776295,-50
32-5,21780201,-17
32-6,21784107,-2
32-7,21788013,-31
32-8,21791919,-46
32-9,21795825,-3
32-10,21799731,41
32-11,21803637,42
32-12,21807543,21
32-13,21811449,21
32-14,21815355,58
32-15,21819261,55
32-16,21823167,0
32-17,21827073,6
32-18,21830979,43
32-19,21834885,31
32-20,21838791,2
32-21,21842697,-23
32-22,21846603,-29
32-23,21850509,1
32-24,21854415,-10
32-25,21858321,-55
32-26,21862227,-45
32-27,21866133,-10
32-28,21870039,-20
32-29,21873945,-72
32-30,21877851,-104
32-31,21881757,-65
32-32,21885663,-48
32-1,21889971,-96
32-2,21893877,-93
32-3,21897783,-22
32-4,21901689,25
32-5,21905595,-6
32-6,21909501,-43
32-7,21913407,8
32-8,21917313,55
32-9,21921219,20
32-10,21925125,-5
32-11,21929031,22
32-12,21932937,59
32-13,21936843,48
32-14,21940749,-15
32-15,21944655,-21
32-16,21948561,33
32-17,21952467,51
32-18,21956373,20
32-19,21960279,-2
32-20,21964185,15
32-21,21968091,26
32-22,21971997,-34
32-23,21975903,-91
32-24,21979809,-54
32-25,21983715,1
32-26,21987621,-14
32-27,21991527,-70
32-28,21995433,-80
32-29,21999339,-34
32-30,22003245,-36
32-31,22007151,-115
32-32,22011057,-162
32-1,22014572,-116
32-2,22018478,-65
32-3,22022384,-88
32-4,22026290,-112
32-5,22030196,-59
32-6,22034102,-13
32-7,22038008,-57
32-8,22041914,-127
32-9,22045820,-121
32-10,22049726,-68
32-11,22053632,-72
32-12,22057538,-115
32-13,22061444,-94
32-14,22065350,-30
32-15,22069256,-3
32-16,22073162,-34
32-17,22077068,-58
32-18,22080974,-21
32-19,22084880,-21
32-20,22088786,-92
32-21,22092692,-103
32-22,22096598,-36
32-23,22100504,8
32-24,22104410,-10
32-25,22108316,-39
32-26,22112222,-12
32-27,22116128,12
32-28,22120034,-14
32-29,22123940,-28
32-30,22127846,-21
32-31,22131752,-7
32-32,22135658,11
32-1,22139570,-25
32-2,22143476,-64
32-3,22147382,-19
32-4,22151288,33
32-5,22155194,-1
32-6,22159100,-62
32-7,22163006,-37
32-8,22166912,27
32-9,22170818,2
32-10,22174724,-61
32-11,22178630,-50
32-12,22182536,6
32-13,22186442,10
32-14,22190348,-29
32-15,22194254,-35
32-16,22198160,-10
32-17,22202066,9
32-18,22205972,1
32-19,22209878,-8
32-20,22213784,28
32-21,22217690,49
32-22,22221596,-3
32-23,22225502,-53
32-24,22229408,-28
32-25,22233314,29
32-26,22237220,13
32-27,22241126,-45
32-28,22245032,-25
32-29,22248938,38
32-30,22252844,26
32-31,22256750,-27
32-32,22260656,-22
32-1,22264567,16
32-2,22268473,5
32-3,22272379,-38
32-4,22276285,-60
32-5,22280191,-31
32-6,22284097,19
32-7,22288003,9
32-8,22291909,-31
32-9,22295815,-15
32-10,22299721,11
32-11,22303627,-10
32-12,22307533,-44
32-13,22311439,-36
32-14,22315345,-2
32-15,22319251,-10
32-16,22323157,-36
32-17,22327063,-14
32-18,22330969,19
32-19,22334875,18
32-20,22338781,-4
32-21,22342687,-12
32-22,22346593,19
32-23,22350499,49
32-24,22354405,10
32-25,22358311,-64
32-26,22362217,-63
32-27,22366123,-34
32-28,22370029,-67
32-29,22373935,-96
32-30,22377841,-68
32-31,22381747,-12
32-32,22385653,21
32-1,22389565,-13
32-2,22393471,-32
32-3,22397377,5
32-4,22401283,22
32-5,22405189,9
32-6,22409095,13
32-7,22413001,42
32-8,22416907,74
32-9,22420813,62
32-10,22424719,4
32-11,22428625,-22
32-12,22432531,27
32-13,22436437,45
32-14,22440343,-20
32-15,22444249,-48
32-16,22448155,-6
32-17,22452061,6
32-18,22455967,-27
32-19,22459873,-49
32-20,22463779,-26
32-21,22467685,7
32-22,22471591,-13
32-23,22475497,-45
32-24,22479403,-23
32-25,22483309,6
32-26,22487215,-18
32-27,22491121,-62
32-28,22495027,-51
32-29,22498933,-5
32-30,22502839,-14
32-31,22506745,-73
32-32,22510651,-84
32-1,22514563,-23
32-2,22518469,16
32-3,22522375,-37
32-4,22526281,-92
32-5,22530187,-41
32-6,22534093,19
32-7,22537999,-35
32-8,22541905,-101
32-9,22545811,-68
32-10,22549717,-18
32-11,22553623,-37
32-12,22557529,-74
32-13,22561435,-49
32-14,22565341,6
32-15,22569247,14
32-16,22573153,-23
32-17,22577059,-58
32-18,22580965,-41
32-19,22584871,-5
32-20,22588777,-37
32-21,22592683,-73
32-22,22596589,-38
32-23,22600495,-5
32-24,22604401,-16
32-25,22608307,-35
32-26,22612213,-19
32-27,22616119,18
32-28,22620025,11
32-29,22623931,-40
32-30,22627837,-49
32-31,22631743,16
32-32,22635649,52
32-1,22639560,15
32-2,22643466,-6
32-3,22647372,4
32-4,22651278,-9
32-5,22655184,-47
32-6,22659090,-88
32-7,22662996,-88
32-8,22666902,-55
32-9,22670808,-63
32-10,22674714,-87
32-11,22678620,-55
32-12,22682526,-2
32-13,22686432,-10
32-14,22690338,-50
32-15,22694244,-36
32-16,22698150,12
32-17,22702056,3
32-18,22705962,-67
32-19,22709868,-97
32-20,22713774,-50
32-21,22717680,-16
32-22,22721586,-58
32-23,22725492,-108
32-24,22729398,-91
32-25,22733304,-71
32-26,22737210,-100
32-27,22741116,-124
32-28,22745022,-84
32-29,22748928,-3
32-30,22752834,12
32-31,22756740,-34
32-32,22760646,-34
32-1,22764558,-10
32-2,22768464,-16
32-3,22772370,-46
32-4,22776276,-72
32-5,22780182,-43
32-6,22784088,7
32-7,22787994,-5
32-8,22791900,-42
32-9,22795806,-26
32-10,22799712,5
32-11,22803618,-10
32-12,22807524,-44
32-13,22811430,-58
32-14,22815336,-29
32-15,22819242,-4
32-16,22823148,-37
32-17,22827054,-66
32-18,22830960,-33
32-19,22834866,-19
32-20,22838772,-78
32-21,22842678,-114
32-22,22846584,-89
32-23,22850490,-71
32-24,22854396,-74
32-25,22858302,-78
32-26,22862208,-67
32-27,22866114,-29
32-28,22870020,-1
32-29,22873926,-9
32-30,22877832,-18
32-31,22881738,3
32-32,22885644,11
32-1,22889555,-30
32-2,22893461,-46
32-3,22897367,10
32-4,22901273,55
32-5,22905179,19
32-6,22909085,-31
32-7,22912991,0
32-8,22916897,51
32-9,22920803,6
32-10,22924709,-58
32-11,22928615,-35
32-12,22932521,-2
32-13,22936427,-23
32-14,22940333,-57
32-15,22944239,-53
32-16,22948145,-24
32-17,22952051,-36
32-18,22955957,-92
32-19,22959863,-96
32-20,22963769,-29
32-21,22967675,-18
32-22,22971581,-85
32-23,22975487,-89
32-24,22979393,-38
32-25,22983299,-22
32-26,22987205,-32
32-27,22991111,-58
32-28,22995017,-50
32-29,22998923,-6
32-30,23002829,-18
32-31,23006735,-66
32-32,23010641,-68
32-1,23014553,-18
32-2,23018459,3
32-3,23022365,-60
32-4,23026271,-98
32-5,23030177,-35
32-6,23034083,15
32-7,23037989,-10
32-8,23041895,-42
32-9,23045801,-15
32-10,23049707,31
32-11,23053613,12
32-12,23057519,-31
32-13,23061425,-25
32-14,23065331,4
32-15,23069237,30
32-16,23073143,24
32-17,23077049,-2
32-18,23080955,41
32-19,23084861,81
32-20,23088767,19
32-21,23092673,-22
32-22,23096579,41
32-23,23100485,89
32-24,23104391,45
32-25,23108297,-15
32-26,23112203,8
32-27,23116109,59
32-28,23120015,27
32-29,23123921,-25
32-30,23127827,-12
32-31,23131733,9
32-32,23135639,2
32-1,23139551,-17
32-2,23143457,-17
32-3,23147363,20
32-4,23151269,35
32-5,23155175,-9
32-6,23159081,-44
32-7,23162987,-28
32-8,23166893,-18
32-9,23170799,-62
32-10,23174705,-108
32-11,23178611,-105
32-12,23182517,-61
32-13,23186423,-37
32-14,23190329,-64
32-15,23194235,-70
32-16,23198141,-34
32-17,23202047,-33
32-18,23205953,-66
32-19,23209859,-67
32-20,23213765,-41
32-21,23217671,-31
32-22,23221577,-66
32-23,23225483,-94
32-24,23229389,-54
32-25,23233295,-23
32-26,23237201,-83
32-27,23241107,-138
32-28,23245013,-90
32-29,23248919,-30
32-30,23252825,-52
32-31,23256731,-77
32-32,23260637,-38
32-1,23264548,9
32-2,23268454,-4
32-3,23272360,-60
32-4,23276266,-68
32-5,23280172,-4
32-6,23284078,38
32-7,23287984,19
32-8,23291890,-15
32-9,23295796,-17
32-10,23299702,2
32-11,23303608,-22
32-12,23307514,-71
32-13,23311420,-69
32-14,23315326,-40
32-15,23319232,-49
32-16,23323138,-78
32-17,23327044,-77
32-18,23330950,-42
32-19,23334856,-37
32-20,23338762,-87
32-21,23342668,-118
32-22,23346574,-84
32-23,23350480,-50
32-24,23354386,-58
32-25,23358292,-72
32-26,23362198,-51
32-27,23366104,-17
32-28,23370010,-35
32-29,23373916,-75
32-30,23377822,-51
32-31,23381728,12
32-32,23385634,20
32-1,23389546,-37
32-2,23393452,-87
32-3,23397358,-71
32-4,23401264,-48
32-5,23405170,-73
32-6,23409076,-92
32-7,23412982,-61
32-8,23416888,-33
32-9,23420794,-62
32-10,23424700,-105
32-11,23428606,-84
32-12,23432512,-31
32-13,23436418,-39
32-14,23440324,-91
32-15,23444230,-96
32-16,23448136,-49
32-17,23452042,-28
32-18,23455948,-51
32-19,23459854,-44
32-20,23463760,-3
32-21,23467666,0
32-22,23471572,-59
32-23,23475478,-107
32-24,23479384,-63
32-25,23483290,-1
32-26,23487196,-20
32-27,23491102,-70
32-28,23495008,-63
32-29,23498914,1
32-30,23502820,19
32-31,23506726,-49
32-32,23510632,-81
32-1,23514544,-48
32-2,23518450,-47
32-3,23522356,-71
32-4,23526262,-80
32-5,23530168,-65
32-6,23534074,-32
32-7,23537980,-40
32-8,23541886,-94
32-9,23545792,-98
32-10,23549698,-48
32-11,23553604,-31
32-12,23557510,-55
32-13,23561416,-65
32-14,23565322,-27
32-15,23569228,-19
32-16,23573134,-85
32-17,23577040,-108
32-18,23580946,-43
32-19,23584852,0
32-20,23588758,-30
32-21,23592664,-55
32-22,23596570,-17
32-23,23600476,12
32-24,23604382,-12
32-25,23608288,-29
32-26,23612194,8
32-27,23616100,48
32-28,23620006,25
32-29,23623912,-39
32-30,23627818,-68
32-31,23631724,-31
32-32,23635630,6
32-1,23639541,-26
32-2,23643447,-58
32-3,23647353,-31
32-4,23651259,-2
32-5,23655165,-22
32-6,23659071,-33
32-7,23662977,7
32-8,23666883,23
32-9,23670789,-21
32-10,23674695,-64
32-11,23678601,-56
32-12,23682507,-18
32-13,23686413,-36
32-14,23690319,-97
32-15,23694225,-81
32-16,23698131,-29
32-17,23702037,-29
32-18,23705943,-42
32-19,23709849,-53
32-20,23713755,-49
32-21,23717661,-35
32-22,23721567,-45
32-23,23725473,-32
32-24,23729379,20
32-25,23733285,36
32-26,23737191,5
32-27,23741097,-34
32-28,23745003,-16
32-29,23748909,54
32-30,23752815,63
32-31,23756721,-2
32-32,23760627,-15
32-1,23764539,46
32-2,23768445,44
32-3,23772351,-44
32-4,23776257,-89
32-5,23780163,-72
32-6,23784069,-57
32-7,23787975,-74
32-8,23791881,-98
32-9,23795787,-70
32-10,23799693,-26
32-11,23803599,-38
32-12,23807505,-80
32-13,23811411,-71
32-14,23815317,3
32-15,23819223,20
32-16,23823129,-58
32-17,23827035,-82
32-18,23830941,-21
32-19,23834847,1
32-20,23838753,-49
32-21,23842659,-82
32-22,23846565,-37
32-23,23850471,6
32-24,23854377,-19
32-25,23858283,-38
32-26,23862189,-3
32-27,23866095,32
32-28,23870001,25
32-29,23873907,-18
32-30,23877813,-39
32-31,23881719,4
32-32,23885625,39
32-1,23889537,7
32-2,23893443,-28
32-3,23897349,-17
32-4,23901255,-8
32-5,23905161,-42
32-6,23909067,-73
32-7,23912973,-39
32-8,23916879,-2
32-9,23920785,-18
32-10,23924691,-44
32-11,23928597,-28
32-12,23932503,13
32-13,23936409,-3
32-14,23940315,-68
32-15,23944221,-62
32-16,23948127,10
32-17,23952033,38
32-18,23955939,-13
32-19,23959845,-61
32-20,23963751,-30
32-21,23967657,1
32-22,23971563,-48
32-23,23975469,-84
32-24,23979375,-46
32-25,23983281,-17
32-26,23987187,-53
32-27,23991093,-106
32-28,23994999,-93
32-29,23998905,-33
32-30,24002811,-35
32-31,24006717,-113
32-32,24010623,-148
32-1,24014534,-92
32-2,24018440,-35
32-3,24022346,-55
32-4,24026252,-94
32-5,24030158,-82
32-6,24034064,-79
32-7,24037970,-118
32-8,24041876,-118
32-9,24045782,-76
32-10,24049688,-44
32-11,24053594,-57
32-12,24057500,-86
32-13,24061406,-46
32-14,24065312,10
32-15,24069218,2
32-16,24073124,-32
32-17,24077030,-15
32-18,24080936,57
32-19,24084842,65
32-20,24088748,-9
32-21,24092654,-17
32-22,24096560,40
32-23,24100466,59
32-24,24104372,22
32-25,24108278,-37
32-26,24112184,-41
32-27,24116090,-4
32-28,24119996,-3
32-29,24123902,-22
32-30,24127808,-25
32-31,24131714,12
32-32,24135620,48
32-1,24139532,19
32-2,24143438,-6
32-3,24147344,34
32-4,24151250,46
32-5,24155156,-10
32-6,24159062,-37
32-7,24162968,-10
32-8,24166874,-12
32-9,24170780,-61
32-10,24174686,-105
32-11,24178592,-98
32-12,24182498,-59
32-13,24186404,-46
32-14,24190310,-66
32-15,24194216,-73
32-16,24198122,-25
32-17,24202028,19
32-18,24205934,-11
32-19,24209840,-27
32-20,24213746,32
32-21,24217652,65
32-22,24221558,7
32-23,24225464,-38
32-24,24229370,-6
32-25,24233276,14
32-26,24237182,-37
32-27,24241088,-109
32-28,24244994,-103
32-29,24248900,-32
32-30,24252806,-38
32-31,24256712,-100
32-32,24260618,-86
32-1,24264529,-35
32-2,24268435,-35
32-3,24272341,-72
32-4,24276247,-77
32-5,24280153,-39
32-6,24284059,-29
32-7,24287965,-72
32-8,24291871,-100
32-9,24295777,-63
32-10,24299683,2
32-11,24303589,12
32-12,24307495,-33
32-13,24311401,-34
32-14,24315307,2
32-15,24319213,-16
32-16,24323119,-59
32-17,24327025,-55
32-18,24330931,-18
32-19,24334837,0
32-20,24338743,-30
32-21,24342649,-58
32-22,24346555,-32
32-23,24350461,-5
32-24,24354367,-30
32-25,24358273,-74
32-26,24362179,-65
32-27,24366085,-33
32-28,24369991,-42
32-29,24373897,-52
32-30,24377803,-46
32-31,24381709,-42
32-32,24385615,-40
32-1,24389527,-63
32-2,24393433,-68
32-3,24397339,-33
32-4,24401245,-31
32-5,24405151,-92
32-6,24409057,-134
32-7,24412963,-88
32-8,24416869,-42
32-9,24420775,-76
32-10,24424681,-115
32-11,24428587,-92
32-12,24432493,-36
32-13,24436399,-28
32-14,24440305,-77
32-15,24444211,-79
32-16,24448117,-25
32-17,24452023,-19
32-18,24455929,-73
32-19,24459835,-95
32-20,24463741,-33
32-21,24467647,21
32-22,24471553,-12
32-23,24475459,-59
32-24,24479365,-40
32-25,24483271,10
32-26,24487177,15
32-27,24491083,-33
32-28,24494989,-7
32-29,24498895,68
32-30,24502801,34
32-31,24506707,-46
32-32,24510613,-35
32-1,24514525,7
32-2,24518431,7
32-3,24522337,-19
32-4,24526243,-45
32-5,24530149,-34
32-6,24534055,-6
32-7,24537961,-28
32-8,24541867,-59
32-9,24545773,-32
32-10,24549679,-1
32-11,24553585,-30
32-12,24557491,-70
32-13,24561397,-44
32-14,24565303,3
32-15,24569209,2
32-16,24573115,-26
32-17,24577021,-34
32-18,24580927,-4
32-19,24584833,6
32-20,24588739,-58
32-21,24592645,-109
32-22,24596551,-70
32-23,24600457,-30
32-24,24604363,-61
32-25,24608269,-98
32-26,24612175,-49
32-27,24616081,18
32-28,24619987,-25
32-29,24623893,-89
32-30,24627799,-62
32-31,24631705,-17
32-32,24635611,-12
32-1,24639522,-38
32-2,24643428,-60
32-3,24647334,-52
32-4,24651240,-67
32-5,24655146,-129
32-6,24659052,-144
32-7,24662958,-78
32-8,24666864,-44
32-9,24670770,-76
32-10,24674676,-96
32-11,24678582,-75
32-12,24682488,-51
32-13,24686394,-72
32-14,24690300,-113
32-15,24694206,-96
32-16,24698112,-53
32-17,24702018,-43
32-18,24705924,-66
32-19,24709830,-94
32-20,24713736,-77
32-21,24717642,-50
32-22,24721548,-81
32-23,24725454,-102
32-24,24729360,-58
32-25,24733266,-9
32-26,24737172,-27
32-27,24741078,-86
32-28,24744984,-57
32-29,24748890,34
32-30,24752796,20
32-31,24756702,-63
32-32,24760608,-45
32-1,24764520,20
32-2,24768426,21
32-3,24772332,-6
32-4,24776238,-6
32-5,24780144,23
32-6,24784050,54
32-7,24787956,28
32-8,24791862,-17
32-9,24795768,-2
32-10,24799674,44
32-11,24803580,48
32-12,24807486,17
32-13,24811392,4
32-14,24815298,14
32-15,24819204,16
32-16,24823110,-5
32-17,24827016,-23
32-18,24830922,-9
32-19,24834828,2
32-20,24838734,-24
32-21,24842640,-37
32-22,24846546,-13
32-23,24850452,10
32-24,24854358,-10
32-25,24858264,-55
32-26,24862170,-49
32-27,24866076,-9
32-28,24869982,-4
32-29,24873888,-31
32-30,24877794,-35
32-31,24881700,0
32-32,24885606,7
32-1,24889609,-38
32-2,24893515,-35
32-3,24897421,21
32-4,24901327,31
32-5,24905233,-4
32-6,24909139,-36
32-7,24913045,-41
32-8,24916951,-34
32-9,24920857,-57
32-10,24924763,-68
32-11,24928669,-32
32-12,24932575,-2
32-13,24936481,-33
32-14,24940387,-88
32-15,24944293,-81
32-16,24948199,-28
32-17,24952105,-11
32-18,24956011,-41
32-19,24959917,-58
32-20,24963823,-10
32-21,24967729,26
32-22,24971635,-24
32-23,24975541,-50
32-24,24979447,-29
32-25,24983353,-30
32-26,24987259,-54
32-27,24991165,-99
32-28,24995071,-96
32-29,24998977,-2
32-30,25002883,40
32-31,25006789,-5
32-32,25010695,-14
32-1,25014515,36
32-2,25018421,49
32-3,25022327,-7
32-4,25026233,-42
32-5,25030139,-6
32-6,25034045,33
32-7,25037951,-3
32-8,25041857,-51
32-9,25045763,-31
32-10,25049669,-7
32-11,25053575,-31
32-12,25057481,-60
32-13,25061387,-62
32-14,25065293,-52
32-15,25069199,-51
32-16,25073105,-76
32-17,25077011,-95
32-18,25080917,-65
32-19,25084823,-44
32-20,25088729,-77
32-21,25092635,-73
32-22,25096541,-24
32-23,25100447,5
32-24,25104353,-14
32-25,25108259,-53
32-26,25112165,-28
32-27,25116071,18
32-28,25119977,-2
32-29,25123883,-28
32-30,25127789,-28
32-31,25131695,-15
32-32,25135601,-15
32-1,25139513,-44
32-2,25143419,-56
32-3,25147325,-17
32-4,25151231,26
32-5,25155137,4
32-6,25159043,-24
32-7,25162949,23
32-8,25166855,50
32-9,25170761,7
32-10,25174667,-36
32-11,25178573,-33
32-12,25182479,3
32-13,25186385,-3
32-14,25190291,-50
32-15,25194197,-37
32-16,25198103,1
32-17,25202009,-13
32-18,25205915,-55
32-19,25209821,-60
32-20,25213727,-22
32-21,25217633,-9
32-22,25221539,-33
32-23,25225445,-14
32-24,25229351,39
32-25,25233257,63
32-26,25237163,36
32-27,25241069,-22
32-28,25244975,-26
32-29,25248881,9
32-30,25252787,-24
32-31,25256693,-88
32-32,25260599,-87
32-1,25264510,-23
32-2,25268416,5
32-3,25272322,-56
32-4,25276228,-95
32-5,25280134,-49
32-6,25284040,-14
32-7,25287946,-50
32-8,25291852,-89
32-9,25295758,-73
32-10,25299664,-51
32-11,25303570,-69
32-12,25307476,-106
32-13,25311382,-106
32-14,25315288,-42
32-15,25319194,-18
32-16,25323100,-69
32-17,25327006,-77
32-18,25330912,-24
32-19,25334818,-19
32-20,25338724,-74
32-21,25342630,-81
32-22,25346536,-25
32-23,25350442,11
32-24,25354348,-6
32-25,25358254,-31
32-26,25362160,-2
32-27,25366066,34
32-28,25369972,21
32-29,25373878,-9
32-30,25377784,-33
32-31,25381690,-19
32-32,25385596,2
32-1,25389508,-41
32-2,25393414,-68
32-3,25397320,-32
32-4,25401226,-13
32-5,25405132,-36
32-6,25409038,-45
32-7,25412944,-10
32-8,25416850,2
32-9,25420756,-28
32-10,25424662,-44
32-11,25428568,-24
32-12,25432474,9
32-13,25436380,-3
32-14,25440286,-41
32-15,25444192,-11
32-16,25448098,53
32-17,25452004,50
32-18,25455910,-5
32-19,25459816,-32
32-20,25463722,-19
32-21,25467628,-27
32-22,25471534,-82
32-23,25475440,-105
32-24,25479346,-72
32-25,25483252,-51
32-26,25487158,-60
32-27,25491064,-78
32-28,25494970,-38
32-29,25498876,43
32-30,25502782,33
32-31,25506688,-23
32-32,25510594,-1
32-1,25514506,42
32-2,25518412,18
32-3,25522318,-33
32-4,25526224,-31
32-5,25530130,13
32-6,25534036,26
32-7,25537942,-1
32-8,25541848,-10
32-9,25545754,30
32-10,25549660,57
32-11,25553566,4
32-12,25557472,-45
32-13,25561378,-3
32-14,25565284,52
32-15,25569190,29
32-16,25573096,-7
32-17,25577002,7
32-18,25580908,23
32-19,25584814,0
32-20,25588720,-25
32-21,25592626,-22
32-22,25596532,7
32-23,25600438,32
32-24,25604344,14
32-25,25608250,-2
32-26,25612156,38
32-27,25616062,64
32-28,25619968,28
32-29,25623874,-18
32-30,25627780,-30
32-31,25631686,-6
32-32,25635592,0
32-1,25639564,-55
32-2,25643470,-92
32-3,25647376,-58
32-4,25651282,-33
32-5,25655188,-75
32-6,25659094,-106
32-7,25663000,-65
32-8,25666906,-30
32-9,25670812,-47
32-10,25674718,-50
32-11,25678624,13
32-12,25682530,64
32-13,25686436,26
32-14,25690342,-23
32-15,25694248,3
32-16,25698154,57
32-17,25702060,72
32-18,25705966,42
32-19,25709872,11
32-20,25713778,21
32-21,25717684,35
32-22,25721590,13
32-23,25725496,-22
32-24,25729402,-26
32-25,25733308,-7
32-26,25737214,6
32-27,25741120,1
32-28,25745026,16
32-29,25748932,60
32-30,25752838,53
32-31,25756744,17
32-32,25760650,34
32-1,25764501,81
32-2,25768407,77
32-3,25772313,3
32-4,25776219,-53
32-5,25780125,-23
32-6,25784031,-2
32-7,25787937,-56
32-8,25791843,-90
32-9,25795749,-45
32-10,25799655,0
32-11,25803561,-2
32-12,25807467,-34
32-13,25811373,-32
32-14,25815279,5
32-15,25819185,-22
32-16,25823091,-88
32-17,25826997,-89
32-18,25830903,-35
32-19,25834809,-8
32-20,25838715,-45
32-21,25842621,-72
32-22,25846527,-19
32-23,25850433,26
32-24,25854339,-19
32-25,25858245,-65
32-26,25862151,-33
32-27,25866057,1
32-28,25869963,1
32-29,25873869,-2
32-30,25877775,-26
32-31,25881681,-40
32-32,25885587,-18
32-1,25889499,-43
32-2,25893405,-86
32-3,25897311,-51
32-4,25901217,-23
32-5,25905123,-68
32-6,25909029,-97
32-7,25912935,-36
32-8,25916841,34
32-9,25920747,10
32-10,25924653,-37
32-11,25928559,4
32-12,25932465,63
32-13,25936371,30
32-14,25940277,-48
32-15,25944183,-61
32-16,25948089,-25
32-17,25951995,-14
32-18,25955901,-42
32-19,25959807,-67
32-20,25963713,-34
32-21,25967619,-11
32-22,25971525,-68
32-23,25975431,-108
32-24,25979337,-66
32-25,25983243,-25
32-26,25987149,-62
32-27,25991055,-125
32-28,25994961,-94
32-29,25998867,-22
32-30,26002773,-30
32-31,26006679,-75
32-32,26010585,-67
32-1,26014496,-22
32-2,26018402,-22
32-3,26022308,-81
32-4,26026214,-101
32-5,26030120,-45
32-6,26034026,1
32-7,26037932,-25
32-8,26041838,-73
32-9,26045744,-54
32-10,26049650,-3
32-11,26053556,-24
32-12,26057462,-66
32-13,26061368,-41
32-14,26065274,17
32-15,26069180,25
32-16,26073086,-28
32-17,26076992,-55
32-18,26080898,-17
32-19,26084804,-3
32-20,26088710,-57
32-21,26092616,-88
32-22,26096522,-53
32-23,26100428,-27
32-24,26104334,-54
32-25,26108240,-83
32-26,26112146,-47
32-27,26116052,-5
32-28,26119958,-52
32-29,26123864,-104
32-30,26127770,-71
32-31,26131676,-13
32-32,26135582,-23
32-1,26139555,-54
32-2,26143461,-24
32-3,26147367,10
32-4,26151273,11
32-5,26155179,0
32-6,26159085,-22
32-7,26162991,-29
32-8,26166897,-28
32-9,26170803,-48
32-10,26174709,-57
32-11,26178615,-27
32-12,26182521,3
32-13,26186427,-7
32-14,26190333,-34
32-15,26194239,-22
32-16,26198145,23
32-17,26202051,21
32-18,26205957,-34
32-19,26209863,-48
32-20,26213769,7
32-21,26217675,39
32-22,26221581,-11
32-23,26225487,-52
32-24,26229393,3
32-25,26233299,65
32-26,26237205,29
32-27,26241111,-56
32-28,26245017,-55
32-29,26248923,10
32-30,26252829,-12
32-31,26256735,-78
32-32,26260641,-62
32-1,26264492,-12
32-2,26268398,-33
32-3,26272304,-92
32-4,26276210,-86
32-5,26280116,-18
32-6,26284022,9
32-7,26287928,-39
32-8,26291834,-86
32-9,26295740,-64
32-10,26299646,-34
32-11,26303552,-63
32-12,26307458,-110
32-13,26311364,-102
32-14,26315270,-45
32-15,26319176,-44
32-16,26323082,-109
32-17,26326988,-129
32-18,26330894,-78
32-19,26334800,-37
32-20,26338706,-69
32-21,26342612,-80
32-22,26346518,-5
32-23,26350424,39
32-24,26354330,-1
32-25,26358236,-55
32-26,26362142,-52
32-27,26366048,4
32-28,26369954,8
32-29,26373860,-57
32-30,26377766,-96
32-31,26381672,-67
32-32,26385578,-46
32-1,26389489,-96
32-2,26393395,-125
32-3,26397301,-51
32-4,26401207,15
32-5,26405113,-12
32-6,26409019,-49
32-7,26412925,-31
32-8,26416831,-5
32-9,26420737,-16
32-10,26424643,-36
32-11,26428549,-20
32-12,26432455,13
32-13,26436361,-3
32-14,26440267,-21
32-15,26444173,-2
32-16,26448079,11
32-17,26451985,17
32-18,26455891,-6
32-19,26459797,-42
32-20,26463703,7
32-21,26467609,40
32-22,26471515,-16
32-23,26475421,-28
32-24,26479327,21
32-25,26483233,42
32-26,26487139,0
32-27,26491045,-55
32-28,26494951,-46
32-29,26498857,-18
32-30,26502763,-43
32-31,26506669,-83
32-32,26510575,-64
32-1,26514487,4
32-2,26518393,16
32-3,26522299,-57
32-4,26526205,-98
32-5,26530111,-56
32-6,26534017,-33
32-7,26537923,-64
32-8,26541829,-65
32-9,26545735,-23
32-10,26549641,2
32-11,26553547,-18
32-12,26557453,-48
32-13,26561359,-28
32-14,26565265,9
32-15,26569171,-22
32-16,26573077,-92
32-17,26576983,-95
32-18,26580889,-35
32-19,26584795,-30
32-20,26588701,-89
32-21,26592607,-96
32-22,26596513,-33
32-23,26600419,-2
32-24,26604325,-50
32-25,26608231,-86
32-26,26612137,-32
32-27,26616043,3
32-28,26619949,-25
32-29,26623855,-27
32-30,26627761,-18
32-31,26631667,-14
32-32,26635573,-14
32-1,26639484,-60
32-2,26643390,-74
32-3,26647296,-36
32-4,26651202,-44
32-5,26655108,-92
32-6,26659014,-102
32-7,26662920,-39
32-8,26666826,31
32-9,26670732,0
32-10,26674638,-75
32-11,26678544,-41
32-12,26682450,39
32-13,26686356,17
32-14,26690262,-34
32-15,26694168,-11
32-16,26698074,36
32-17,26701980,26
32-18,26705886,-23
32-19,26709792,-27
32-20,26713698,33
32-21,26717604,48
32-22,26721510,-17
32-23,26725416,-50
32-24,26729322,-9
32-25,26733228,30
32-26,26737134,22
32-27,26741040,-23
32-28,26744946,-5
32-29,26748852,55
32-30,26752758,19
32-31,26756664,-66
32-32,26760570,-81
32-1,26764574,-44
32-2,26768480,-19
32-3,26772386,-40
32-4,26776292,-49
32-5,26780198,-1
32-6,26784104,26
32-7,26788010,-23
32-8,26791916,-51
32-9,26795822,-10
32-10,26799728,27
32-11,26803634,18
32-12,26807540,-35
32-13,26811446,-62
32-14,26815352,-15
32-15,26819258,9
32-16,26823164,-35
32-17,26827070,-42
32-18,26830976,7
32-19,26834882,3
32-20,26838788,-59
32-21,26842694,-59
32-22,26846600,-7
32-23,26850506,22
32-24,26854412,6
32-25,26858318,-39
32-26,26862224,-48
32-27,26866130,-19
32-28,26870036,-29
32-29,26873942,-47
32-30,26877848,-17
32-31,26881754,28
32-32,26885660,18
32-1,26889480,-44
32-2,26893386,-56
32-3,26897292,-3
32-4,26901198,13
32-5,26905104,-45
32-6,26909010,-101
32-7,26912916,-62
32-8,26916822,19
32-9,26920728,0
32-10,26924634,-68
32-11,26928540,-62
32-12,26932446,-19
32-13,26936352,-14
32-14,26940258,-50
32-15,26944164,-61
32-16,26948070,-31
32-17,26951976,-39
32-18,26955882,-69
32-19,26959788,-47
32-20,26963694,10
32-21,26967600,38
32-22,26971506,-2
32-23,26975412,-54
32-24,26979318,-54
32-25,26983224,-39
32-26,26987130,-65
32-27,26991036,-110
32-28,26994942,-94
32-29,26998848,-44
32-30,27002754,-62
32-31,27006660,-101
32-32,27010566,-75
32-1,27014477,-15
32-2,27018383,-7
32-3,27022289,-55
32-4,27026195,-66
32-5,27030101,-29
32-6,27034007,-12
32-7,27037913,-44
32-8,27041819,-76
32-9,27045725,-54
32-10,27049631,-35
32-11,27053537,-77
32-12,27057443,-114
32-13,27061349,-90
32-14,27065255,-42
32-15,27069161,-40
32-16,27073067,-78
32-17,27076973,-89
32-18,27080879,-59
32-19,27084785,-38
32-20,27088691,-71
32-21,27092597,-121
32-22,27096503,-94
32-23,27100409,-45
32-24,27104315,-69
32-25,27108221,-80
32-26,27112127,-13
32-27,27116033,38
32-28,27119939,19
32-29,27123845,-23
32-30,27127751,-33
32-31,27131657,-2
32-32,27135563,0
32-1,27139505,-59
32-2,27143411,-83
32-3,27147317,-38
32-4,27151223,-27
32-5,27155129,-83
32-6,27159035,-112
32-7,27162941,-75
32-8,27166847,-46
32-9,27170753,-60
32-10,27174659,-67
32-11,27178565,-34
32-12,27182471,2
32-13,27186377,-18
32-14,27190283,-55
32-15,27194189,-14
32-16,27198095,46
32-17,27202001,16
32-18,27205907,-30
32-19,27209813,-14
32-20,27213719,11
32-21,27217625,11
32-22,27221531,-9
32-23,27225437,-28
32-24,27229343,-7
32-25,27233249,18
32-26,27237155,-16
32-27,27241061,-59
32-28,27244967,-45
32-29,27248873,-13
32-30,27252779,-32
32-31,27256685,-75
32-32,27260591,-62
32-1,27264473,-13
32-2,27268379,-18
32-3,27272285,-70
32-4,27276191,-78
32-5,27280097,-32
32-6,27284003,-9
32-7,27287909,-57
32-8,27291815,-103
32-9,27295721,-68
32-10,27299627,-16
32-11,27303533,-19
32-12,27307439,-46
32-13,27311345,-44
32-14,27315251,-21
32-15,27319157,-38
32-16,27323063,-84
32-17,27326969,-71
32-18,27330875,-16
32-19,27334781,-2
32-20,27338687,-30
32-21,27342593,-29
32-22,27346499,2
32-23,27350405,28
32-24,27354311,16
32-25,27358217,-35
32-26,27362123,-30
32-27,27366029,4
32-28,27369935,-18
32-29,27373841,-26
32-30,27377747,-14
32-31,27381653,-21
32-32,27385559,-21
32-1,27389623,-64
32-2,27393529,-112
32-3,27397435,-74
32-4,27401341,-45
32-5,27405247,-95
32-6,27409153,-130
32-7,27413059,-82
32-8,27416965,-16
32-9,27420871,-27
32-10,27424777,-69
32-11,27428683,-56
32-12,27432589,-36
32-13,27436495,-55
32-14,27440401,-68
32-15,27444307,-35
32-16,27448213,8
32-17,27452119,-8
32-18,27456025,-65
32-19,27459931,-76
32-20,27463837,-46
32-21,27467743,-75
32-22,27471649,-136
32-23,27475555,-130
32-24,27479461,-80
32-25,27483367,-58
32-26,27487273,-74
32-27,27491179,-97
32-28,27495085,-70
32-29,27498991,-10
32-30,27502897,-17
32-31,27506803,-89
32-32,27510709,-86
32-1,27514468,-3
32-2,27518374,1
32-3,27522280,-53
32-4,27526186,-45
32-5,27530092,-4
32-6,27533998,20
32-7,27537904,7
32-8,27541810,-11
32-9,27545716,7
32-10,27549622,31
32-11,27553528,8
32-12,27557434,-43
32-13,27561340,-36
32-14,27565246,-7
32-15,27569152,-44
32-16,27573058,-85
32-17,27576964,-63
32-18,27580870,-21
32-19,27584776,-22
32-20,27588682,-46
32-21,27592588,-28
32-22,27596494,9
32-23,27600400,0
32-24,27604306,-42
32-25,27608212,-53
32-26,27612118,-28
32-27,27616024,-11
32-28,27619930,-20
32-29,27623836,-51
32-30,27627742,-69
32-31,27631648,-46
32-32,27635554,-45
32-1,27639465,-84
32-2,27643371,-69
32-3,27647277,-22
32-4,27651183,-40
32-5,27655089,-105
32-6,27658995,-127
32-7,27662901,-79
32-8,27666807,-59
32-9,27670713,-119
32-10,27674619,-142
32-11,27678525,-96
32-12,27682431,-42
32-13,27686337,-32
32-14,27690243,-68
32-15,27694149,-71
32-16,27698055,-36
32-17,27701961,-46
32-18,27705867,-93
32-19,27709773,-100
32-20,27713679,-49
32-21,27717585,-37
32-22,27721491,-100
32-23,27725397,-123
32-24,27729303,-65
32-25,27733209,-15
32-26,27737115,-32
32-27,27741021,-77
32-28,27744927,-57
32-29,27748833,1
32-30,27752739,-5
32-31,27756645,-60
32-32,27760551,-59
32-1,27764463,-1
32-2,27768369,16
32-3,27772275,-32
32-4,27776181,-57
32-5,27780087,-25
32-6,27783993,-18
32-7,27787899,-91
32-8,27791805,-130
32-9,27795711,-77
32-10,27799617,-28
32-11,27803523,-37
32-12,27807429,-63
32-13,27811335,-33
32-14,27815241,37
32-15,27819147,35
32-16,27823053,-20
32-17,27826959,-18
32-18,27830865,26
32-19,27834771,24
32-20,27838677,-14
32-21,27842583,-13
32-22,27846489,20
32-23,27850395,28
32-24,27854301,-6
32-25,27858207,-40
32-26,27862113,-14
32-27,27866019,8
32-28,27869925,-46
32-29,27873831,-105
32-30,27877737,-121
32-31,27881643,-99
32-32,27885549,-78
32-1,27889491,-116
32-2,27893397,-134
32-3,27897303,-78
32-4,27901209,-54
32-5,27905115,-89
32-6,27909021,-89
32-7,27912927,-19
32-8,27916833,44
32-9,27920739,21
32-10,27924645,-35
32-11,27928551,-15
32-12,27932457,43
32-13,27936363,10
32-14,27940269,-70
32-15,27944175,-54
32-16,27948081,17
32-17,27951987,29
32-18,27955893,-4
32-19,27959799,-18
32-20,27963705,4
32-21,27967611,23
32-22,27971517,7
32-23,27975423,12
32-24,27979329,47
32-25,27983235,58
32-26,27987141,27
32-27,27991047,-25
32-28,27994953,-13
32-29,27998859,53
32-30,28002765,48
32-31,28006671,1
32-32,28010577,16
32-1,28014611,54
32-2,28018517,34
32-3,28022423,-8
32-4,28026329,-9
32-5,28030235,14
32-6,28034141,13
32-7,28038047,-37
32-8,28041953,-70
32-9,28045859,-27
32-10,28049765,-2
32-11,28053671,-41
32-12,28057577,-66
32-13,28061483,-44
32-14,28065389,-1
32-15,28069295,-4
32-16,28073201,-53
32-17,28077107,-39
32-18,28081013,14
32-19,28084919,-3
32-20,28088825,-53
32-21,28092731,-58
32-22,28096637,-19
32-23,28100543,18
32-24,28104449,5
32-25,28108355,-33
32-26,28112261,-14
32-27,28116167,16
32-28,28120073,-22
32-29,28123979,-37
32-30,28127885,8
32-31,28131791,15
32-32,28135697,-20
32-1,28139456,-53
32-2,28143362,-58
32-3,28147268,-46
32-4,28151174,-50
32-5,28155080,-67
32-6,28158986,-64
32-7,28162892,-13
32-8,28166798,34
32-9,28170704,-1
32-10,28174610,-44
32-11,28178516,-20
32-12,28182422,5
32-13,28186328,-17
32-14,28190234,-54
32-15,28194140,-37
32-16,28198046,8
32-17,28201952,1
32-18,28205858,-31
32-19,28209764,-28
32-20,28213670,5
32-21,28217576,27
32-22,28221482,-5
32-23,28225388,-30
32-24,28229294,9
32-25,28233200,39
32-26,28237106,4
32-27,28241012,-35
32-28,28244918,-6
32-29,28248824,41
32-30,28252730,22
32-31,28256636,-13
32-32,28260542,-2
32-1,28264454,26
32-2,28268360,33
32-3,28272266,10
32-4,28276172,-14
32-5,28280078,-3
32-6,28283984,4
32-7,28287890,-27
32-8,28291796,-50
32-9,28295702,-11
32-10,28299608,41
32-11,28303514,13
32-12,28307420,-43
32-13,28311326,-26
32-14,28315232,23
32-15,28319138,37
32-16,28323044,8
32-17,28326950,-5
32-18,28330856,44
32-19,28334762,51
32-20,28338668,-32
32-21,28342574,-97
32-22,28346480,-86
32-23,28350386,-66
32-24,28354292,-83
32-25,28358198,-103
32-26,28362104,-80
32-27,28366010,-59
32-28,28369916,-89
32-29,28373822,-117
32-30,28377728,-91
32-31,28381634,-51
32-32,28385540,-40
32-1,28389451,-55
32-2,28393357,-58
32-3,28397263,-35
32-4,28401169,-37
32-5,28405075,-89
32-6,28408981,-97
32-7,28412887,-15
32-8,28416793,27
32-9,28420699,-14
32-10,28424605,-28
32-11,28428511,5
32-12,28432417,45
32-13,28436323,32
32-14,28440229,-39
32-15,28444135,-36
32-16,28448041,16
32-17,28451947,-11
32-18,28455853,-63
32-19,28459759,-72
32-20,28463665,-48
32-21,28467571,-32
32-22,28471477,-59
32-23,28475383,-69
32-24,28479289,-30
32-25,28483195,2
32-26,28487101,-23
32-27,28491007,-79
32-28,28494913,-51
32-29,28498819,44
32-30,28502725,49
32-31,28506631,-9
32-32,28510537,6
32-1,28514449,66
32-2,28518355,64
32-3,28522261,-1
32-4,28526167,-25
32-5,28530073,12
32-6,28533979,-1
32-7,28537885,-63
32-8,28541791,-80
32-9,28545697,-45
32-10,28549603,-12
32-11,28553509,-20
32-12,28557415,-46
32-13,28561321,-9
32-14,28565227,35
32-15,28569133,-8
32-16,28573039,-77
32-17,28576945,-90
32-18,28580851,-51
32-19,28584757,-35
32-20,28588663,-87
32-21,28592569,-115
32-22,28596475,-77
32-23,28600381,-53
32-24,28604287,-70
32-25,28608193,-84
32-26,28612099,-66
32-27,28616005,-40
32-28,28619911,-63
32-29,28623817,-101
32-30,28627723,-82
32-31,28631629,-51
32-32,28635535,-64
32-1,28639691,-79
32-2,28643597,-52
32-3,28647503,0
32-4,28651409,14
32-5,28655315,-51
32-6,28659221,-87
32-7,28663127,-30
32-8,28667033,-11
32-9,28670939,-63
32-10,28674845,-61
32-11,28678751,12
32-12,28682657,41
32-13,28686563,-10
32-14,28690469,-52
32-15,28694375,-25
32-16,28698281,9
32-17,28702187,-30
32-18,28706093,-96
32-19,28709999,-78
32-20,28713905,-25
32-21,28717811,-36
32-22,28721717,-69
32-23,28725623,-63
32-24,28729529,-36
32-25,28733435,-24
32-26,28737341,-54
32-27,28741247,-81
32-28,28745153,-47
32-29,28749059,-5
32-30,28752965,-10
32-31,28756871,-48
32-32,28760777,-80
32-1,28764444,-70
32-2,28768350,-58
32-3,28772256,-91
32-4,28776162,-115
32-5,28780068,-80
32-6,28783974,-55
32-7,28787880,-89
32-8,28791786,-88
32-9,28795692,-22
32-10,28799598,11
32-11,28803504,-17
32-12,28807410,-54
32-13,28811316,-33
32-14,28815222,20
32-15,28819128,-9
32-16,28823034,-84
32-17,28826940,-77
32-18,28830846,-27
32-19,28834752,-20
32-20,28838658,-69
32-21,28842564,-99
32-22,28846470,-65
32-23,28850376,-51
32-24,28854282,-110
32-25,28858188,-138
32-26,28862094,-62
32-27,28866000,5
32-28,28869906,-20
32-29,28873812,-20
32-30,28877718,13
32-31,28881624,-3
32-32,28885530,-26
32-1,28889442,-47
32-2,28893348,-57
32-3,28897254,-25
32-4,28901160,-9
32-5,28905066,-42
32-6,28908972,-83
32-7,28912878,-80
32-8,28916784,-36
32-9,28920690,-21
32-10,28924596,-33
32-11,28928502,-12
32-12,28932408,14
32-13,28936314,-13
32-14,28940220,-34
32-15,28944126,-4
32-16,28948032,12
32-17,28951938,-8
32-18,28955844,-40
32-19,28959750,-38
32-20,28963656,6
32-21,28967562,7
32-22,28971468,-27
32-23,28975374,-39
32-24,28979280,-38
32-25,28983186,6
32-26,28987092,47
32-27,28990998,9
32-28,28994904,10
32-29,28998810,67
32-30,29002716,28
32-31,29006622,-39
32-32,29010528,-5
32-1,29014439,43
32-2,29018345,18
32-3,29022251,-25
32-4,29026157,-29
32-5,29030063,-11
32-6,29033969,-8
32-7,29037875,-32
32-8,29041781,-53
32-9,29045687,-27
32-10,29049593,4
32-11,29053499,-23
32-12,29057405,-89
32-13,29061311,-108
32-14,29065217,-78
32-15,29069123,-87
32-16,29073029,-112
32-17,29076935,-81
32-18,29080841,-14
32-19,29084747,14
32-20,29088653,-38
32-21,29092559,-77
32-22,29096465,-46
32-23,29100371,-42
32-24,29104277,-95
32-25,29108183,-116
32-26,29112089,-66
32-27,29115995,-27
32-28,29119901,-52
32-29,29123807,-91
32-30,29127713,-71
32-31,29131619,-15
32-32,29135525,-16
32-1,29139437,-59
32-2,29143343,-52
32-3,29147249,-15
32-4,29151155,-37
32-5,29155061,-111
32-6,29158967,-127
32-7,29162873,-70
32-8,29166779,-31
32-9,29170685,-37
32-10,29174591,-53
32-11,29178497,-28
32-12,29182403,8
32-13,29186309,-23
32-14,29190215,-64
32-15,29194121,-35
32-16,29198027,14
32-17,29201933,10
32-18,29205839,-52
32-19,29209745,-86
32-20,29213651,-33
32-21,29217557,7
32-22,29221463,-44
32-23,29225369,-79
32-24,29229275,-46
32-25,29233181,-20
32-26,29237087,-41
32-27,29240993,-70
32-28,29244899,-35
32-29,29248805,10
32-30,29252711,-48
32-31,29256617,-133
32-32,29260523,-116
32-1,29264435,-53
32-2,29268341,-52
32-3,29272247,-80
32-4,29276153,-43
32-5,29280059,31
32-6,29283965,47
32-7,29287871,-11
32-8,29291777,-63
32-9,29295683,-54
32-10,29299589,-32
32-11,29303495,-41
32-12,29307401,-52
32-13,29311307,-41
32-14,29315213,-25
32-15,29319119,-29
32-16,29323025,-53
32-17,29326931,-56
32-18,29330837,-25
32-19,29334743,-16
32-20,29338649,-44
32-21,29342555,-53
32-22,29346461,-7
32-23,29350367,31
32-24,29354273,-8
32-25,29358179,-57
32-26,29362085,-39
32-27,29365991,-8
32-28,29369897,-17
32-29,29373803,-31
32-30,29377709,-27
32-31,29381615,-10
32-32,29385521,6
32-1,29389524,-13
32-2,29393430,-18
32-3,29397336,22
32-4,29401242,39
32-5,29405148,25
32-6,29409054,18
32-7,29412960,40
32-8,29416866,66
32-9,29420772,27
32-10,29424678,-34
32-11,29428584,-25
32-12,29432490,7
32-13,29436396,-29
32-14,29440302,-78
32-15,29444208,-58
32-16,29448114,-6
32-17,29452020,8
32-18,29455926,-40
32-19,29459832,-79
32-20,29463738,-57
32-21,29467644,-56
32-22,29471550,-75
32-23,29475456,-42
32-24,29479362,1
32-25,29483268,16
32-26,29487174,3
32-27,29491080,-36
32-28,29494986,-40
32-29,29498892,2
32-30,29502798,6
32-31,29506704,-38
32-32,29510610,-54
32-1,29514430,-11
32-2,29518336,23
32-3,29522242,-25
32-4,29526148,-62
32-5,29530054,-12
32-6,29533960,6
32-7,29537866,-62
32-8,29541772,-107
32-9,29545678,-56
32-10,29549584,5
32-11,29553490,-33
32-12,29557396,-81
32-13,29561302,-30
32-14,29565208,43
32-15,29569114,19
32-16,29573020,-60
32-17,29576926,-66
32-18,29580832,-9
32-19,29584738,-3
32-20,29588644,-45
32-21,29592550,-57
32-22,29596456,-17
32-23,29600362,14
32-24,29604268,-12
32-25,29608174,-34
32-26,29612080,1
32-27,29615986,27
32-28,29619892,4
32-29,29623798,-8
32-30,29627704,12
32-31,29631610,30
32-32,29635516,14
32-1,29639428,-24
32-2,29643334,-40
32-3,29647240,-30
32-4,29651146,-26
32-5,29655052,-44
32-6,29658958,-74
32-7,29662864,-43
32-8,29666770,0
32-9,29670676,-29
32-10,29674582,-54
32-11,29678488,-20
32-12,29682394,31
32-13,29686300,21
32-14,29690206,-37
32-15,29694112,-21
32-16,29698018,42
32-17,29701924,32
32-18,29705830,-23
32-19,29709736,-20
32-20,29713642,38
32-21,29717548,55
32-22,29721454,8
32-23,29725360,-33
32-24,29729266,-22
32-25,29733172,14
32-26,29737078,-2
32-27,29740984,-35
32-28,29744890,7
32-29,29748796,49
32-30,29752702,8
32-31,29756608,-60
32-32,29760514,-73
32-1,29764425,-19
32-2,29768331,4
32-3,29772237,-38
32-4,29776143,-57
32-5,29780049,-40
32-6,29783955,-35
32-7,29787861,-61
32-8,29791767,-82
32-9,29795673,-55
32-10,29799579,-14
32-11,29803485,-15
32-12,29807391,-35
32-13,29811297,-5
32-14,29815203,37
32-15,29819109,0
32-16,29823015,-34
32-17,29826921,-5
32-18,29830827,8
32-19,29834733,-18
32-20,29838639,-56
32-21,29842545,-56
32-22,29846451,1
32-23,29850357,21
32-24,29854263,-45
32-25,29858169,-91
32-26,29862075,-51
32-27,29865981,-17
32-28,29869887,-40
32-29,29873793,-61
32-30,29877699,-52
32-31,29881605,-23
32-32,29885511,-29
32-1,29889423,-76
32-2,29893329,-68
32-3,29897235,-8
32-4,29901141,-18
32-5,29905047,-92
32-6,29908953,-109
32-7,29912859,-56
32-8,29916765,-12
32-9,29920671,-20
32-10,29924577,-68
32-11,29928483,-69
32-12,29932389,-22
32-13,29936295,-36
32-14,29940201,-67
32-15,29944107,-35
32-16,29948013,10
32-17,29951919,3
32-18,29955825,-48
32-19,29959731,-75
32-20,29963637,-41
32-21,29967543,-16
32-22,29971449,-54
32-23,29975355,-93
32-24,29979261,-58
32-25,29983167,2
32-26,29987073,-1
32-27,29990979,-40
32-28,29994885,-36
32-29,29998791,8
32-30,30002697,-1
32-31,30006603,-52
32-32,30010509,-38
32-1,30014420,21
32-2,30018326,19
32-3,30022232,-34
32-4,30026138,-44
32-5,30030044,-12
32-6,30033950,-3
32-7,30037856,-33
32-8,30041762,-53
32-9,30045668,-28
32-10,30049574,-15
32-11,30053480,-40
32-12,30057386,-41
32-13,30061292,3
32-14,30065198,43
32-15,30069104,22
32-16,30073010,-45
32-17,30076916,-63
32-18,30080822,-31
32-19,30084728,-32
32-20,30088634,-71
32-21,30092540,-65
32-22,30096446,-13
32-23,30100352,-7
32-24,30104258,-46
32-25,30108164,-75
32-26,30112070,-67
32-27,30115976,-47
32-28,30119882,-62
32-29,30123788,-67
32-30,30127694,-47
32-31,30131600,-24
32-32,30135506,4
32-1,30139540,-10
32-2,30143446,-44
32-3,30147352,-28
32-4,30151258,-15
32-5,30155164,-38
32-6,30159070,-59
32-7,30162976,-33
32-8,30166882,5
32-9,30170788,-14
32-10,30174694,-35
32-11,30178600,-6
32-12,30182506,6
32-13,30186412,-29
32-14,30190318,-56
32-15,30194224,-41
32-16,30198130,-22
32-17,30202036,-43
32-18,30205942,-63
32-19,30209848,-25
32-20,30213754,30
32-21,30217660,41
32-22,30221566,11
32-23,30225472,-13
32-24,30229378,6
32-25,30233284,20
32-26,30237190,-47
32-27,30241096,-118
32-28,30245002,-81
32-29,30248908,-12
32-30,30252814,-39
32-31,30256720,-103
32-32,30260626,-90
32-1,30264416,-39
32-2,30268322,-19
32-3,30272228,-51
32-4,30276134,-104
32-5,30280040,-91
32-6,30283946,-53
32-7,30287852,-71
32-8,30291758,-77
32-9,30295664,-44
32-10,30299570,-35
32-11,30303476,-63
32-12,30307382,-86
32-13,30311288,-72
32-14,30315194,-49
32-15,30319100,-62
32-16,30323006,-85
32-17,30326912,-60
32-18,30330818,-4
32-19,30334724,-16
32-20,30338630,-80
32-21,30342536,-67
32-22,30346442,11
32-23,30350348,59
32-24,30354254,35
32-25,30358160,-12
32-26,30362066,7
32-27,30365972,31
32-28,30369878,-37
32-29,30373784,-89
32-30,30377690,-59
32-31,30381596,-16
32-32,30385502,-6
32-1,30389413,-28
32-2,30393319,-43
32-3,30397225,-14
32-4,30401131,-3
32-5,30405037,-40
32-6,30408943,-52
32-7,30412849,-4
32-8,30416755,24
32-9,30420661,-22
32-10,30424567,-59
32-11,30428473,-32
32-12,30432379,-11
32-13,30436285,-46
32-14,30440191,-87
32-15,30444097,-79
32-16,30448003,-37
32-17,30451909,-31
32-18,30455815,-69
32-19,30459721,-91
32-20,30463627,-78
32-21,30467533,-73
32-22,30471439,-112
32-23,30475345,-121
32-24,30479251,-49
32-25,30483157,5
32-26,30487063,-29
32-27,30490969,-86
32-28,30494875,-69
32-29,30498781,-17
32-30,30502687,-32
32-31,30506593,-84
32-32,30510499,-86
32-1,30514411,-48
32-2,30518317,-46
32-3,30522223,-83
32-4,30526129,-90
32-5,30530035,-61
32-6,30533941,-50
32-7,30537847,-80
32-8,30541753,-106
32-9,30545659,-67
32-10,30549565,-23
32-11,30553471,-58
32-12,30557377,-115
32-13,30561283,-100
32-14,30565189,-46
32-15,30569095,-53
32-16,30573001,-95
32-17,30576907,-64
32-18,30580813,5
32-19,30584719,11
32-20,30588625,-27
32-21,30592531,-43
32-22,30596437,-17
32-23,30600343,-1
32-24,30604249,-47
32-25,30608155,-79
32-26,30612061,-54
32-27,30615967,-34
32-28,30619873,-24
32-29,30623779,-33
32-30,30627685,-60
32-31,30631591,-64
32-32,30635497,-76
32-1,30639409,-102
32-2,30643315,-72
32-3,30647221,-13
32-4,30651127,0
32-5,30655033,-30
32-6,30658939,-51
32-7,30662845,-4
32-8,30666751,36
32-9,30670657,-14
32-10,30674563,-35
32-11,30678469,16
32-12,30682375,25
32-13,30686281,-13
32-14,30690187,-28
32-15,30694093,19
32-16,30697999,94
32-17,30701905,97
32-18,30705811,28
32-19,30709717,-21
32-20,30713623,-6
32-21,30717529,16
32-22,30721435,-29
32-23,30725341,-73
32-24,30729247,-50
32-25,30733153,-31
32-26,30737059,-51
32-27,30740965,-82
32-28,30744871,-61
32-29,30748777,-7
32-30,30752683,-23
32-31,30756589,-53
32-32,30760495,-12
32-1,30764406,29
32-2,30768312,24
32-3,30772218,-14
32-4,30776124,-29
32-5,30780030,48
32-6,30783936,99
32-7,30787842,39
32-8,30791748,15
32-9,30795654,70
32-10,30799560,86
32-11,30803466,52
32-12,30807372,12
32-13,30811278,-4
32-14,30815184,15
32-15,30819090,-5
32-16,30822996,-71
32-17,30826902,-94
32-18,30830808,-72
32-19,30834714,-82
32-20,30838620,-128
32-21,30842526,-126
32-22,30846432,-64
32-23,30850338,-43
32-24,30854244,-89
32-25,30858150,-115
32-26,30862056,-75
32-27,30865962,-46
32-28,30869868,-86
32-29,30873774,-107
32-30,30877680,-64
32-31,30881586,-19
32-32,30885492,-11
32-1,30889556,-41
32-2,30893462,-47
32-3,30897368,4
32-4,30901274,16
32-5,30905180,-41
32-6,30909086,-51
32-7,30912992,-4
32-8,30916898,-9
32-9,30920804,-71
32-10,30924710,-100
32-11,30928616,-77
32-12,30932522,-52
32-13,30936428,-97
32-14,30940334,-159
32-15,30944240,-126
32-16,30948146,-52
32-17,30952052,-41
32-18,30955958,-77
32-19,30959864,-88
32-20,30963770,-56
32-21,30967676,-41
32-22,30971582,-60
32-23,30975488,-54
32-24,30979394,-12
32-25,30983300,5
32-26,30987206,-30
32-27,30991112,-74
32-28,30995018,-47
32-29,30998924,22
32-30,31002830,23
32-31,31006736,-30
32-32,31010642,-37
32-1,31014402,10
32-2,31018308,39
32-3,31022214,0
32-4,31026120,-49
32-5,31030026,-29
32-6,31033932,-16
32-7,31037838,-79
32-8,31041744,-110
32-9,31045650,-58
32-10,31049556,0
32-11,31053462,7
32-12,31057368,-15
32-13,31061274,3
32-14,31065180,65
32-15,31069086,62
32-16,31072992,-16
32-17,31076898,-38
32-18,31080804,12
32-19,31084710,26
32-20,31088616,-6
32-21,31092522,-9
32-22,31096428,30
32-23,31100334,44
32-24,31104240,1
32-25,31108146,-17
32-26,31112052,22
32-27,31115958,25
32-28,31119864,-21
32-29,31123770,-21
32-30,31127676,17
32-31,31131582,21
32-32,31135488,-8
32-1,31139399,-43
32-2,31143305,-26
32-3,31147211,55
32-4,31151117,69
32-5,31155023,-10
32-6,31158929,-32
32-7,31162835,12
32-8,31166741,26
32-9,31170647,10
32-10,31174553,-2
32-11,31178459,15
32-12,31182365,40
32-13,31186271,27
32-14,31190177,0
32-15,31194083,4
32-16,31197989,23
32-17,31201895,6
32-18,31205801,-36
32-19,31209707,-39
32-20,31213613,1
32-21,31217519,-5
32-22,31221425,-63
32-23,31225331,-79
32-24,31229237,-50
32-25,31233143,-54
32-26,31237049,-89
32-27,31240955,-111
32-28,31244861,-61
32-29,31248767,27
32-30,31252673,32
32-31,31256579,-21
32-32,31260485,-23
32-1,31264397,16
32-2,31268303,24
32-3,31272209,-16
32-4,31276115,-33
32-5,31280021,-9
32-6,31283927,-2
32-7,31287833,-15
32-8,31291739,-35
32-9,31295645,-30
32-10,31299551,7
32-11,31303457,-4
32-12,31307363,-60
32-13,31311269,-57
32-14,31315175,-14
32-15,31319081,-20
32-16,31322987,-64
32-17,31326893,-62
32-18,31330799,4
32-19,31334705,32
32-20,31338611,-21
32-21,31342517,-33
32-22,31346423,34
32-23,31350329,62
32-24,31354235,17
32-25,31358141,-20
32-26,31362047,4
32-27,31365953,35
32-28,31369859,2
32-29,31373765,-47
32-30,31377671,-56
32-31,31381577,-53
32-32,31385483,-77
32-1,31389394,-109
32-2,31393300,-79
32-3,31397206,-14
32-4,31401112,-2
32-5,31405018,-35
32-6,31408924,-45
32-7,31412830,4
32-8,31416736,31
32-9,31420642,-39
32-10,31424548,-87
32-11,31428454,-51
32-12,31432360,-26
32-13,31436266,-45
32-14,31440172,-78
32-15,31444078,-82
32-16,31447984,-53
32-17,31451890,-40
32-18,31455796,-32
32-19,31459702,-6
32-20,31463608,14
32-21,31467514,-4
32-22,31471420,-41
32-23,31475326,-30
32-24,31479232,-8
32-25,31483138,-31
32-26,31487044,-81
32-27,31490950,-103
32-28,31494856,-44
32-29,31498762,31
32-30,31502668,19
32-31,31506574,-24
32-32,31510480,-31
32-1,31514392,-23
32-2,31518298,-49
32-3,31522204,-123
32-4,31526110,-143
32-5,31530016,-72
32-6,31533922,-38
32-7,31537828,-80
32-8,31541734,-111
32-9,31545640,-77
32-10,31549546,-38
32-11,31553452,-54
32-12,31557358,-88
32-13,31561264,-89
32-14,31565170,-60
32-15,31569076,-64
32-16,31572982,-111
32-17,31576888,-89
32-18,31580794,-21
32-19,31584700,-32
32-20,31588606,-94
32-21,31592512,-101
32-22,31596418,-49
32-23,31600324,-21
32-24,31604230,-37
32-25,31608136,-36
32-26,31612042,4
32-27,31615948,38
32-28,31619854,10
32-29,31623760,-30
32-30,31627666,-17
32-31,31631572,16
32-32,31635478,17
32-1,31639573,-16
32-2,31643479,-20
32-3,31647385,17
32-4,31651291,18
32-5,31655197,-22
32-6,31659103,-22
32-7,31663009,22
32-8,31666915,34
32-9,31670821,-1
32-10,31674727,-11
32-11,31678633,15
32-12,31682539,32
32-13,31686445,27
32-14,31690351,9
32-15,31694257,12
32-16,31698163,35
32-17,31702069,19
32-18,31705975,-25
32-19,31709881,-15
32-20,31713787,47
32-21,31717693,75
32-22,31721599,32
32-23,31725505,-12
32-24,31729411,0
32-25,31733317,20
32-26,31737223,-5
32-27,31741129,-29
32-28,31745035,2
32-29,31748941,34
32-30,31752847,20
32-31,31756753,-14
32-32,31760659,-9
32-1,31764387,51
32-2,31768293,66
32-3,31772199,-2
32-4,31776105,-46
32-5,31780011,-26
32-6,31783917,-23
32-7,31787823,-51
32-8,31791729,-44
32-9,31795635,-10
32-10,31799541,1
32-11,31803447,-18
32-12,31807353,-50
32-13,31811259,-41
32-14,31815165,9
32-15,31819071,-10
32-16,31822977,-69
32-17,31826883,-57
32-18,31830789,-6
32-19,31834695,-15
32-20,31838601,-66
32-21,31842507,-74
32-22,31846413,-34
32-23,31850319,-21
32-24,31854225,-31
32-25,31858131,-27
32-26,31862037,4
32-27,31865943,35
32-28,31869849,4
32-29,31873755,-42
32-30,31877661,-39
32-31,31881567,-15
32-32,31885473,-35
32-1,31889385,-89
32-2,31893291,-82
32-3,31897197,-17
32-4,31901103,-6
32-5,31905009,-57
32-6,31908915,-78
32-7,31912821,-29
32-8,31916727,-3
32-9,31920633,-54
32-10,31924539,-85
32-11,31928445,-50
32-12,31932351,-30
32-13,31936257,-81
32-14,31940163,-146
32-15,31944069,-105
32-16,31947975,-22
32-17,31951881,-22
32-18,31955787,-41
32-19,31959693,-35
32-20,31963599,-24
32-21,31967505,-29
32-22,31971411,-82
32-23,31975317,-99
32-24,31979223,-43
32-25,31983129,-29
32-26,31987035,-61
32-27,31990941,-72
32-28,31994847,-48
32-29,31998753,-30
32-30,32002659,-78
32-31,32006565,-143
32-32,32010471,-119
32-1,32014383,-35
32-2,32018289,-34
32-3,32022195,-110
32-4,32026101,-113
32-5,32030007,-36
32-6,32033913,-6
32-7,32037819,-44
32-8,32041725,-58
32-9,32045631,-11
32-10,32049537,2
32-11,32053443,-49
32-12,32057349,-72
32-13,32061255,-47
32-14,32065161,-17
32-15,32069067,-14
32-16,32072973,-33
32-17,32076879,-19
32-18,32080785,28
32-19,32084691,29
32-20,32088597,-30
32-21,32092503,-64
32-22,32096409,-48
32-23,32100315,-38
32-24,32104221,-70
32-25,32108127,-114
32-26,32112033,-99
32-27,32115939,-65
32-28,32119845,-72
32-29,32123751,-75
32-30,32127657,-58
32-31,32131563,-44
32-32,32135469,-46
32-1,32139380,-67
32-2,32143286,-67
32-3,32147192,-36
32-4,32151098,-17
32-5,32155004,-41
32-6,32158910,-68
32-7,32162816,-42
32-8,32166722,-12
32-9,32170628,-57
32-10,32174534,-100
32-11,32178440,-61
32-12,32182346,-22
32-13,32186252,-47
32-14,32190158,-68
32-15,32194064,-44
32-16,32197970,-19
32-17,32201876,-40
32-18,32205782,-74
32-19,32209688,-57
32-20,32213594,-3
32-21,32217500,0
32-22,32221406,-52
32-23,32225312,-73
32-24,32229218,-37
32-25,32233124,-8
32-26,32237030,-35
32-27,32240936,-64
32-28,32244842,-31
32-29,32248748,8
32-30,32252654,-35
32-31,32256560,-93
32-32,32260466,-72
32-1,32264408,-23
32-2,32268314,-17
32-3,32272220,-30
32-4,32276126,-18
32-5,32280032,24
32-6,32283938,38
32-7,32287844,-3
32-8,32291750,-27
32-9,32295656,-6
32-10,32299562,5
32-11,32303468,-44
32-12,32307374,-101
32-13,32311280,-96
32-14,32315186,-75
32-15,32319092,-83
32-16,32322998,-70
32-17,32326904,-19
32-18,32330810,14
32-19,32334716,-1
32-20,32338622,-45
32-21,32342528,-63
32-22,32346434,-31
32-23,32350340,-7
32-24,32354246,-33
32-25,32358152,-50
32-26,32362058,-22
32-27,32365964,-20
32-28,32369870,-74
32-29,32373776,-112
32-30,32377682,-119
32-31,32381588,-104
32-32,32385494,-94
32-1,32389589,-118
32-2,32393495,-109
32-3,32397401,-52
32-4,32401307,-45
32-5,32405213,-97
32-6,32409119,-112
32-7,32413025,-71
32-8,32416931,-47
32-9,32420837,-77
32-10,32424743,-96
32-11,32428649,-45
32-12,32432555,8
32-13,32436461,-16
32-14,32440367,-79
32-15,32444273,-78
32-16,32448179,-3
32-17,32452085,42
32-18,32455991,22
32-19,32459897,21
32-20,32463803,55
32-21,32467709,37
32-22,32471615,-18
32-23,32475521,-6
32-24,32479427,40
32-25,32483333,40
32-26,32487239,-7
32-27,32491145,-49
32-28,32495051,-8
32-29,32498957,58
32-30,32502863,28
32-31,32506769,-38
32-32,32510675,-42
32-1,32514373,-27
32-2,32518279,-49
32-3,32522185,-86
32-4,32526091,-67
32-5,32529997,6
32-6,32533903,24
32-7,32537809,-24
32-8,32541715,-18
32-9,32545621,55
32-10,32549527,78
32-11,32553433,19
32-12,32557339,-31
32-13,32561245,-4
32-14,32565151,30
32-15,32569057,-11
32-16,32572963,-55
32-17,32576869,-31
32-18,32580775,5
32-19,32584681,-5
32-20,32588587,-32
32-21,32592493,-31
32-22,32596399,-12
32-23,32600305,-15
32-24,32604211,-57
32-25,32608117,-97
32-26,32612023,-63
32-27,32615929,-18
32-28,32619835,-50
32-29,32623741,-71
32-30,32627647,-34
32-31,32631553,-3
32-32,32635459,-19
32-1,32639371,-45
32-2,32643277,-15
32-3,32647183,26
32-4,32651089,13
32-5,32654995,-16
32-6,32658901,-27
32-7,32662807,-17
32-8,32666713,3
32-9,32670619,5
32-10,32674525,-9
32-11,32678431,8
32-12,32682337,46
32-13,32686243,23
32-14,32690149,-25
32-15,32694055,-8
32-16,32697961,18
32-17,32701867,-26
32-18,32705773,-87
32-19,32709679,-71
32-20,32713585,5
32-21,32717491,19
32-22,32721397,-41
32-23,32725303,-56
32-24,32729209,-22
32-25,32733115,-11
32-26,32737021,-45
32-27,32740927,-76
32-28,32744833,-20
32-29,32748739,44
32-30,32752645,-13
32-31,32756551,-85
32-32,32760457,-57
32-1,32764368,-10
32-2,32768274,-24
32-3,32772180,-68
32-4,32776086,-82
32-5,32779992,-70
32-6,32783898,-70
32-7,32787804,-85
32-8,32791710,-75
32-9,32795616,-29
32-10,32799522,-21
32-11,32803428,-72
32-12,32807334,-106
32-13,32811240,-76
32-14,32815146,-32
32-15,32819052,-43
32-16,32822958,-66
32-17,32826864,-41
32-18,32830770,0
32-19,32834676,-3
32-20,32838582,-52
32-21,32842488,-84
32-22,32846394,-64
32-23,32850300,-41
32-24,32854206,-58
32-25,32858112,-78
32-26,32862018,-38
32-27,32865924,24
32-28,32869830,15
32-29,32873736,-28
32-30,32877642,-22
32-31,32881548,9
32-32,32885454,-8
32-1,32889458,-56
32-2,32893364,-56
32-3,32897270,-48
32-4,32901176,-102
32-5,32905082,-155
32-6,32908988,-162
32-7,32912894,-131
32-8,32916800,-86
32-9,32920706,-72
32-10,32924612,-78
32-11,32928518,-46
32-12,32932424,3
32-13,32936330,-18
32-14,32940236,-80
32-15,32944142,-52
32-16,32948048,25
32-17,32951954,23
32-18,32955860,-21
32-19,32959766,-37
32-20,32963672,-24
32-21,32967578,-10
32-22,32971484,-27
32-23,32975390,-28
32-24,32979296,23
32-25,32983202,34
32-26,32987108,-38
32-27,32991014,-92
32-28,32994920,-60
32-29,32998826,-15
32-30,33002732,-36
32-31,33006638,-78
32-32,33010544,-60
32-1,33014364,5
32-2,33018270,25
32-3,33022176,-25
32-4,33026082,-33
32-5,33029988,36
32-6,33033894,56
32-7,33037800,1
32-8,33041706,-26
32-9,33045612,2
32-10,33049518,32
32-11,33053424,5
32-12,33057330,-61
32-13,33061236,-77
32-14,33065142,-55
32-15,33069048,-87
32-16,33072954,-129
32-17,33076860,-109
32-18,33080766,-63
32-19,33084672,-59
32-20,33088578,-94
32-21,33092484,-95
32-22,33096390,-41
32-23,33100296,-27
32-24,33104202,-68
32-25,33108108,-81
32-26,33112014,-44
32-27,33115920,-25
32-28,33119826,-55
32-29,33123732,-64
32-30,33127638,-22
32-31,33131544,25
32-32,33135450,28
32-1,33139575,-12
32-2,33143481,3
32-3,33147387,58
32-4,33151293,52
32-5,33155199,8
32-6,33159105,2
32-7,33163011,51
32-8,33166917,73
32-9,33170823,31
32-10,33174729,24
32-11,33178635,53
32-12,33182541,61
32-13,33186447,28
32-14,33190353,-23
32-15,33194259,-12
32-16,33198165,14
32-17,33202071,-17
32-18,33205977,-43
32-19,33209883,-45
32-20,33213789,-23
32-21,33217695,-22
32-22,33221601,-97
32-23,33225507,-139
32-24,33229413,-90
32-25,33233319,-55
32-26,33237225,-70
32-27,33241131,-88
32-28,33245037,-53
32-29,33248943,17
32-30,33252849,2
32-31,33256755,-70
32-32,33260661,-53
32-1,33264359,-11
32-2,33268265,-40
32-3,33272171,-61
32-4,33276077,-37
32-5,33279983,-16
32-6,33283889,-28
32-7,33287795,-68
32-8,33291701,-92
32-9,33295607,-65
32-10,33299513,-29
32-11,33303419,-40
32-12,33307325,-53
32-13,33311231,-11
32-14,33315137,29
32-15,33319043,0
32-16,33322949,-45
32-17,33326855,-31
32-18,33330761,11
32-19,33334667,14
32-20,33338573,-19
32-21,33342479,-29
32-22,33346385,-2
32-23,33350291,13
32-24,33354197,-30
32-25,33358103,-75
32-26,33362009,-25
32-27,33365915,8
32-28,33369821,-51
32-29,33373727,-70
32-30,33377633,-57
32-31,33381539,-62
32-32,33385445,-56
32-1,33389357,-80
32-2,33393263,-88
32-3,33397169,-17
32-4,33401075,3
32-5,33404981,-67
32-6,33408887,-88
32-7,33412793,-40
32-8,33416699,-34
32-9,33420605,-76
32-10,33424511,-84
32-11,33428417,-62
32-12,33432323,-41
32-13,33436229,-50
32-14,33440135,-92
32-15,33444041,-71
32-16,33447947,9
32-17,33451853,-3
32-18,33455759,-75
32-19,33459665,-84
32-20,33463571,-43
32-21,33467477,-20
32-22,33471383,-53
32-23,33475289,-54
32-24,33479195,30
32-25,33483101,59
32-26,33487007,-3
32-27,33490913,-26
32-28,33494819,27
32-29,33498725,61
32-30,33502631,16
32-31,33506537,-36
32-32,33510443,-17
32-1,33514507,34
32-2,33518413,40
32-3,33522319,-4
32-4,33526225,-13
32-5,33530131,23
32-6,33534037,27
32-7,33537943,8
32-8,33541849,5
32-9,33545755,23
32-10,33549661,35
32-11,33553567,2
32-12,33557473,-23
32-13,33561379,18
32-14,33565285,51
32-15,33569191,12
32-16,33573097,-16
32-17,33577003,29
32-18,33580909,74
32-19,33584815,56
32-20,33588721,18
32-21,33592627,6
32-22,33596533,19
32-23,33600439,36
32-24,33604345,12
32-25,33608251,-36
32-26,33612157,-32
32-27,33616063,2
32-28,33619969,-18
32-29,33623875,-49
32-30,33627781,-44
32-31,33631687,-20
32-32,33635593,-11
32-1,33639352,-46
32-2,33643258,-58
32-3,33647164,-5
32-4,33651070,7
32-5,33654976,-44
32-6,33658882,-45
32-7,33662788,21
32-8,33666694,53
32-9,33670600,14
32-10,33674506,-16
32-11,33678412,-16
32-12,33682318,-22
32-13,33686224,-36
32-14,33690130,-53
32-15,33694036,-35
32-16,33697942,7
32-17,33701848,-17
32-18,33705754,-87
32-19,33709660,-102
32-20,33713566,-67
32-21,33717472,-75
32-22,33721378,-122
32-23,33725284,-115
32-24,33729190,-66
32-25,33733096,-51
32-26,33737002,-77
32-27,33740908,-93
32-28,33744814,-59
32-29,33748720,-24
32-30,33752626,-44
32-31,33756532,-44
32-32,33760438,20
32-1,33764349,57
32-2,33768255,18
32-3,33772161,-29
32-4,33776067,-39
32-5,33779973,-16
32-6,33783879,1
32-7,33787785,-47
32-8,33791691,-89
32-9,33795597,-33
32-10,33799503,21
32-11,33803409,-20
32-12,33807315,-58
32-13,33811221,-16
32-14,33815127,19
32-15,33819033,-20
32-16,33822939,-74
32-17,33826845,-76
32-18,33830751,-47
32-19,33834657,-45
32-20,33838563,-83
32-21,33842469,-92
32-22,33846375,-55
32-23,33850281,-53
32-24,33854187,-90
32-25,33858093,-99
32-26,33861999,-59
32-27,33865905,-25
32-28,33869811,-40
32-29,33873717,-55
32-30,33877623,-47
32-31,33881529,-38
32-32,33885435,-52
32-1,33889530,-91
32-2,33893436,-77
32-3,33897342,4
32-4,33901248,37
32-5,33905154,-7
32-6,33909060,-9
32-7,33912966,77
32-8,33916872,103
32-9,33920778,18
32-10,33924684,-34
32-11,33928590,9
32-12,33932496,37
32-13,33936402,-18
32-14,33940308,-56
32-15,33944214,-2
32-16,33948120,37
32-17,33952026,-20
32-18,33955932,-81
32-19,33959838,-47
32-20,33963744,-1
32-21,33967650,-40
32-22,33971556,-108
32-23,33975462,-125
32-24,33979368,-98
32-25,33983274,-81
32-26,33987180,-98
32-27,33991086,-111
32-28,33994992,-65
32-29,33998898,-5
32-30,34002804,-18
32-31,34006710,-47
32-32,34010616,-25
32-1,34014345,4
32-2,34018251,-8
32-3,34022157,-45
32-4,34026063,-39
32-5,34029969,8
32-6,34033875,8
32-7,34037781,-33
32-8,34041687,-41
32-9,34045593,-4
32-10,34049499,15
32-11,34053405,-34
32-12,34057311,-68
32-13,34061217,-18
32-14,34065123,21
32-15,34069029,-26
32-16,34072935,-86
32-17,34076841,-88
32-18,34080747,-72
32-19,34084653,-76
32-20,34088559,-100
32-21,34092465,-96
32-22,34096371,-31
32-23,34100277,-4
32-24,34104183,-54
32-25,34108089,-82
32-26,34111995,-36
32-27,34115901,14
32-28,34119807,1
32-29,34123713,-15
32-30,34127619,9
32-31,34131525,3
32-32,34135431,-35
32-1,34139495,-55
32-2,34143401,-29
32-3,34147307,9
32-4,34151213,-22
32-5,34155119,-88
32-6,34159025,-78
32-7,34162931,-19
32-8,34166837,-20
32-9,34170743,-58
32-10,34174649,-44
32-11,34178555,-1
32-12,34182461,6
32-13,34186367,-22
32-14,34190273,-61
32-15,34194179,-54
32-16,34198085,-6
32-17,34201991,-13
32-18,34205897,-57
32-19,34209803,-53
32-20,34213709,-19
32-21,34217615,-19
32-22,34221521,-44
32-23,34225427,-48
32-24,34229333,-10
32-25,34233239,-5
32-26,34237145,-68
32-27,34241051,-102
32-28,34244957,-51
32-29,34248863,3
32-30,34252769,-13
32-31,34256675,-62
32-32,34260581,-42
32-1,34264340,17
32-2,34268246,8
32-3,34272152,-37
32-4,34276058,-40
32-5,34279964,-24
32-6,34283870,-32
32-7,34287776,-66
32-8,34291682,-69
32-9,34295588,-21
32-10,34299494,-9
32-11,34303400,-50
32-12,34307306,-62
32-13,34311212,-33
32-14,34315118,1
32-15,34319024,-12
32-16,34322930,-58
32-17,34326836,-36
32-18,34330742,24
32-19,34334648,30
32-20,34338554,-28
32-21,34342460,-80
32-22,34346366,-62
32-23,34350272,-49
32-24,34354178,-100
32-25,34358084,-137
32-26,34361990,-107
32-27,34365896,-71
32-28,34369802,-86
32-29,34373708,-100
32-30,34377614,-60
32-31,34381520,-17
32-32,34385426,-20
32-1,34389338,-61
32-2,34393244,-64
32-3,34397150,-10
32-4,34401056,-9
32-5,34404962,-54
32-6,34408868,-54
32-7,34412774,-2
32-8,34416680,25
32-9,34420586,-25
32-10,34424492,-68
32-11,34428398,-20
32-12,34432304,24
32-13,34436210,-32
32-14,34440116,-92
32-15,34444022,-63
32-16,34447928,-11
32-17,34451834,-3
32-18,34455740,-20
32-19,34459646,6
32-20,34463552,68
32-21,34467458,70
32-22,34471364,36
32-23,34475270,55
32-24,34479176,88
32-25,34483082,93
32-26,34486988,49
32-27,34490894,-2
32-28,34494800,35
32-29,34498706,73
32-30,34502612,19
32-31,34506518,-45
32-32,34510424,-53
32-1,34514335,-11
32-2,34518241,-10
32-3,34522147,-73
32-4,34526053,-63
32-5,34529959,3
32-6,34533865,-1
32-7,34537771,-49
32-8,34541677,-68
32-9,34545583,-37
32-10,34549489,-8
32-11,34553395,-29
32-12,34557301,-59
32-13,34561207,-28
32-14,34565113,26
32-15,34569019,-17
32-16,34572925,-100
32-17,34576831,-84
32-18,34580737,-6
32-19,34584643,12
32-20,34588549,-21
32-21,34592455,-9
32-22,34596361,54
32-23,34600267,76
32-24,34604173,24
32-25,34608079,5
32-26,34611985,59
32-27,34615891,80
32-28,34619797,36
32-29,34623703,15
32-30,34627609,24
32-31,34631515,30
32-32,34635421,1
32-1,34639333,-63
32-2,34643239,-70
32-3,34647145,-14
32-4,34651051,-10
32-5,34654957,-49
32-6,34658863,-39
32-7,34662769,7
32-8,34666675,15
32-9,34670581,-5
32-10,34674487,5
32-11,34678393,19
32-12,34682299,24
32-13,34686205,19
32-14,34690111,-13
32-15,34694017,-22
32-16,34697923,9
32-17,34701829,-4
32-18,34705735,-45
32-19,34709641,-10
32-20,34713547,59
32-21,34717453,45
32-22,34721359,-3
32-23,34725265,-3
32-24,34729171,13
32-25,34733077,12
32-26,34736983,-28
32-27,34740889,-76
32-28,34744795,-36
32-29,34748701,25
32-30,34752607,-18
32-31,34756513,-78
32-32,34760419,-63
32-1,34764330,-37
32-2,34768236,-58
32-3,34772142,-98
32-4,34776048,-92
32-5,34779954,-30
32-6,34783860,-3
32-7,34787766,-51
32-8,34791672,-98
32-9,34795578,-74
32-10,34799484,-30
32-11,34803390,-41
32-12,34807296,-73
32-13,34811202,-61
32-14,34815108,-31
32-15,34819014,-49
32-16,34822920,-92
32-17,34826826,-76
32-18,34830732,-20
32-19,34834638,-15
32-20,34838544,-34
32-21,34842450,-9
32-22,34846356,14
32-23,34850262,-5
32-24,34854168,-42
32-25,34858074,-81
32-26,34861980,-66
32-27,34865886,-34
32-28,34869792,-75
32-29,34873698,-94
32-30,34877604,-66
32-31,34881510,-65
32-32,34885416,-98
32-1,34889328,-155
32-2,34893234,-145
32-3,34897140,-69
32-4,34901046,-45
32-5,34904952,-75
32-6,34908858,-79
32-7,34912764,-35
32-8,34916670,-16
32-9,34920576,-63
32-10,34924482,-83
32-11,34928388,-40
32-12,34932294,-4
32-13,34936200,-35
32-14,34940106,-91
32-15,34944012,-90
32-16,34947918,-55
32-17,34951824,-54
32-18,34955730,-75
32-19,34959636,-53
32-20,34963542,-8
32-21,34967448,-32
32-22,34971354,-81
32-23,34975260,-65
32-24,34979166,-26
32-25,34983072,2
32-26,34986978,3
32-27,34990884,-32
32-28,34994790,-11
32-29,34998696,41
32-30,35002602,1
32-31,35006508,-36
32-32,35010414,9
32-1,35014326,44
32-2,35018232,34
32-3,35022138,14
32-4,35026044,17
32-5,35029950,46
32-6,35033856,39
32-7,35037762,-11
32-8,35041668,-25
32-9,35045574,21
32-10,35049480,32
32-11,35053386,-31
32-12,35057292,-75
32-13,35061198,-62
32-14,35065104,-53
32-15,35069010,-91
32-16,35072916,-116
32-17,35076822,-67
32-18,35080728,-3
32-19,35084634,11
32-20,35088540,-7
32-21,35092446,5
32-22,35096352,52
32-23,35100258,60
32-24,35104164,16
32-25,35108070,-21
32-26,35111976,6
32-27,35115882,47
32-28,35119788,17
32-29,35123694,-27
32-30,35127600,-17
32-31,35131506,15
32-32,35135412,-3
32-1,35139323,-81
32-2,35143229,-77
32-3,35147135,-6
32-4,35151041,-30
32-5,35154947,-90
32-6,35158853,-85
32-7,35162759,-51
32-8,35166665,-48
32-9,35170571,-74
32-10,35174477,-76
32-11,35178383,-39
32-12,35182289,-10
32-13,35186195,-21
32-14,35190101,-44
32-15,35194007,-16
32-16,35197913,35
32-17,35201819,21
32-18,35205725,-36
32-19,35209631,-46
32-20,35213537,-22
32-21,35217443,-37
32-22,35221349,-89
32-23,35225255,-94
32-24,35229161,-41
32-25,35233067,-30
32-26,35236973,-66
32-27,35240879,-65
32-28,35244785,-26
32-29,35248691,13
32-30,35252597,-18
32-31,35256503,-95
32-32,35260409,-74
32-1,35264321,4
32-2,35268227,-4
32-3,35272133,-58
32-4,35276039,-55
32-5,35279945,-5
32-6,35283851,20
32-7,35287757,-27
32-8,35291663,-78
32-9,35295569,-59
32-10,35299475,-30
32-11,35303381,-78
32-12,35307287,-127
32-13,35311193,-105
32-14,35315099,-66
32-15,35319005,-58
32-16,35322911,-69
32-17,35326817,-53
32-18,35330723,5
32-19,35334629,10
32-20,35338535,-63
32-21,35342441,-88
32-22,35346347,-36
32-23,35350253,-13
32-24,35354159,-65
32-25,35358065,-119
32-26,35361971,-95
32-27,35365877,-49
32-28,35369783,-54
32-29,35373689,-71
32-30,35377595,-58
32-31,35381501,-19
32-32,35385407,-22
32-1,35389319,-58
32-2,35393225,-34
32-3,35397131,18
32-4,35401037,24
32-5,35404943,8
32-6,35408849,0
32-7,35412755,19
32-8,35416661,23
32-9,35420567,-33
32-10,35424473,-59
32-11,35428379,0
32-12,35432285,24
32-13,35436191,-29
32-14,35440097,-63
32-15,35444003,-46
32-16,35447909,-23
32-17,35451815,-33
32-18,35455721,-46
32-19,35459627,-7
32-20,35463533,37
32-21,35467439,11
32-22,35471345,-55
32-23,35475251,-75
32-24,35479157,-26
32-25,35483063,12
32-26,35486969,6
32-27,35490875,4
32-28,35494781,41
32-29,35498687,81
32-30,35502593,65
32-31,35506499,16
32-32,35510405,7
32-1,35514316,11
32-2,35518222,-16
32-3,35522128,-45
32-4,35526034,-37
32-5,35529940,-2
32-6,35533846,4
32-7,35537752,-41
32-8,35541658,-63
32-9,35545564,-27
32-10,35549470,-5
32-11,35553376,-35
32-12,35557282,-66
32-13,35561188,-31
32-14,35565094,28
32-15,35569000,8
32-16,35572906,-68
32-17,35576812,-81
32-18,35580718,-29
32-19,35584624,-14
32-20,35588530,-69
32-21,35592436,-102
32-22,35596342,-60
32-23,35600248,-24
32-24,35604154,-65
32-25,35608060,-96
32-26,35611966,-47
32-27,35615872,-39
32-28,35619778,-100
32-29,35623684,-110
32-30,35627590,-67
32-31,35631496,-39
32-32,35635402,-58
32-1,35639314,-96
32-2,35643220,-75
32-3,35647126,-17
32-4,35651032,-20
32-5,35654938,-72
32-6,35658844,-85
32-7,35662750,-58
32-8,35666656,-56
32-9,35670562,-80
32-10,35674468,-81
32-11,35678374,-48
32-12,35682280,-16
32-13,35686186,-50
32-14,35690092,-119
32-15,35693998,-106
32-16,35697904,-40
32-17,35701810,-57
32-18,35705716,-122
32-19,35709622,-106
32-20,35713528,-50
32-21,35717434,-58
32-22,35721340,-92
32-23,35725246,-80
32-24,35729152,-31
32-25,35733058,15
32-26,35736964,9
32-27,35740870,-16
32-28,35744776,27
32-29,35748682,68
32-30,35752588,17
32-31,35756494,-17
32-32,35760400,6
32-1,35764312,13
32-2,35768218,-22
32-3,35772124,-75
32-4,35776030,-81
32-5,35779936,-40
32-6,35783842,-18
32-7,35787748,-37
32-8,35791654,-67
32-9,35795560,-42
32-10,35799466,-6
32-11,35803372,-34
32-12,35807278,-51
32-13,35811184,-21
32-14,35815090,-8
32-15,35818996,-43
32-16,35822902,-85
32-17,35826808,-78
32-18,35830714,-27
32-19,35834620,-14
32-20,35838526,-59
32-21,35842432,-66
32-22,35846338,6
32-23,35850244,47
32-24,35854150,-2
32-25,35858056,-35
32-26,35861962,4
32-27,35865868,-3
32-28,35869774,-89
32-29,35873680,-111
32-30,35877586,-51
32-31,35881492,-27
32-32,35885398,-54
32-1,35889309,-56
32-2,35893215,1
32-3,35897121,56
32-4,35901027,48
32-5,35904933,3
32-6,35908839,-19
32-7,35912745,-4
32-8,35916651,2
32-9,35920557,-39
32-10,35924463,-61
32-11,35928369,-36
32-12,35932275,-17
32-13,35936181,-24
32-14,35940087,-33
32-15,35943993,-17
32-16,35947899,11
32-17,35951805,-8
32-18,35955711,-40
32-19,35959617,-23
32-20,35963523,6
32-21,35967429,-5
32-22,35971335,-51
32-23,35975241,-70
32-24,35979147,-42
32-25,35983053,-32
32-26,35986959,-67
32-27,35990865,-90
32-28,35994771,-65
32-29,35998677,-44
32-30,36002583,-92
32-31,36006489,-136
32-32,36010395,-93
32-1,36014307,-37
32-2,36018213,-48
32-3,36022119,-74
32-4,36026025,-59
32-5,36029931,-15
32-6,36033837,-11
32-7,36037743,-59
32-8,36041649,-72
32-9,36045555,-28
32-10,36049461,-7
32-11,36053367,-34
32-12,36057273,-54
32-13,36061179,-31
32-14,36065085,-7
32-15,36068991,-37
32-16,36072897,-86
32-17,36076803,-58
32-18,36080709,11
32-19,36084615,-8
32-20,36088521,-72
32-21,36092427,-61
32-22,36096333,-18
32-23,36100239,-8
32-24,36104145,-56
32-25,36108051,-87
32-26,36111957,-15
32-27,36115863,29
32-28,36119769,-6
32-29,36123675,-3
32-30,36127581,34
32-31,36131487,52
32-32,36135393,33
32-1,36139304,-13
32-2,36143210,-18
32-3,36147116,5
32-4,36151022,-1
32-5,36154928,-47
32-6,36158834,-66
32-7,36162740,-23
32-8,36166646,3
32-9,36170552,-35
32-10,36174458,-57
32-11,36178364,-17
32-12,36182270,29
32-13,36186176,19
32-14,36190082,-12
32-15,36193988,-6
32-16,36197894,-3
32-17,36201800,-46
32-18,36205706,-82
32-19,36209612,-85
32-20,36213518,-77
32-21,36217424,-83
32-22,36221330,-98
32-23,36225236,-68
32-24,36229142,-6
32-25,36233048,32
32-26,36236954,26
32-27,36240860,-4
32-28,36244766,22
32-29,36248672,56
32-30,36252578,-1
32-31,36256484,-63
32-32,36260390,-51
32-1,36264302,-14
32-2,36268208,-36
32-3,36272114,-96
32-4,36276020,-84
32-5,36279926,-21
32-6,36283832,-15
32-7,36287738,-55
32-8,36291644,-65
32-9,36295550,-23
32-10,36299456,-14
32-11,36303362,-49
32-12,36307268,-31
32-13,36311174,24
32-14,36315080,53
32-15,36318986,32
32-16,36322892,-5
32-17,36326798,24
32-18,36330704,67
32-19,36334610,47
32-20,36338516,5
32-21,36342422,4
32-22,36346328,61
32-23,36350234,84
32-24,36354140,19
32-25,36358046,-3
32-26,36361952,54
32-27,36365858,65
32-28,36369764,14
32-29,36373670,-12
32-30,36377576,6
32-31,36381482,23
32-32,36385388,15
32-1,36389300,-20
32-2,36393206,-32
32-3,36397112,-13
32-4,36401018,-22
32-5,36404924,-52
32-6,36408830,-40
32-7,36412736,-3
32-8,36416642,-8
32-9,36420548,-37
32-10,36424454,-25
32-11,36428360,30
32-12,36432266,70
32-13,36436172,34
32-14,36440078,-25
32-15,36443984,-5
32-16,36447890,28
32-17,36451796,-21
32-18,36455702,-75
32-19,36459608,-64
32-20,36463514,-27
32-21,36467420,-19
32-22,36471326,-39
32-23,36475232,-40
32-24,36479138,-3
32-25,36483044,1
32-26,36486950,-56
32-27,36490856,-69
32-28,36494762,-12
32-29,36498668,25
32-30,36502574,-17
32-31,36506480,-61
32-32,36510386,-27
32-1,36514297,18
32-2,36518203,7
32-3,36522109,-14
32-4,36526015,0
32-5,36529921,32
32-6,36533827,26
32-7,36537733,-14
32-8,36541639,-2
32-9,36545545,62
32-10,36549451,65
32-11,36553357,-25
32-12,36557263,-91
32-13,36561169,-65
32-14,36565075,-41
32-15,36568981,-107
32-16,36572887,-168
32-17,36576793,-130
32-18,36580699,-60
32-19,36584605,-40
32-20,36588511,-69
32-21,36592417,-84
32-22,36596323,-45
32-23,36600229,-40
32-24,36604135,-113
32-25,36608041,-132
32-26,36611947,-71
32-27,36615853,-41
32-28,36619759,-73
32-29,36623665,-111
32-30,36627571,-98
32-31,36631477,-63
32-32,36635383,-75
32-1,36639295,-102
32-2,36643201,-75
32-3,36647107,-33
32-4,36651013,-46
32-5,36654919,-103
32-6,36658825,-121
32-7,36662731,-82
32-8,36666637,-65
32-9,36670543,-123
32-10,36674449,-164
32-11,36678355,-114
32-12,36682261,-56
32-13,36686167,-58
32-14,36690073,-70
32-15,36693979,-41
32-16,36697885,8
32-17,36701791,8
32-18,36705697,-37
32-19,36709603,-50
32-20,36713509,-17
32-21,36717415,-16
32-22,36721321,-61
32-23,36725227,-65
32-24,36729133,-18
32-25,36733039,-21
32-26,36736945,-95
32-27,36740851,-132
32-28,36744757,-57
32-29,36748663,26
32-30,36752569,-12
32-31,36756475,-79
32-32,36760381,-60
32-1,36764293,-31
32-2,36768199,-55
32-3,36772105,-83
32-4,36776011,-87
32-5,36779917,-78
32-6,36783823,-76
32-7,36787729,-108
32-8,36791635,-129
32-9,36795541,-96
32-10,36799447,-69
32-11,36803353,-88
32-12,36807259,-85
32-13,36811165,-22
32-14,36815071,20
32-15,36818977,-8
32-16,36822883,-41
32-17,36826789,-23
32-18,36830695,13
32-19,36834601,-1
32-20,36838507,-53
32-21,36842413,-66
32-22,36846319,-31
32-23,36850225,-12
32-24,36854131,-49
32-25,36858037,-92
32-26,36861943,-55
32-27,36865849,-3
32-28,36869755,-25
32-29,36873661,-31
32-30,36877567,15
32-31,36881473,17
32-32,36885379,-23
32-1,36889321,-50
32-2,36893227,-29
32-3,36897133,17
32-4,36901039,4
32-5,36904945,-50
32-6,36908851,-55
32-7,36912757,-14
32-8,36916663,5
32-9,36920569,-35
32-10,36924475,-56
32-11,36928381,-22
32-12,36932287,-8
32-13,36936193,-16
32-14,36940099,0
32-15,36944005,40
32-16,36947911,67
32-17,36951817,33
32-18,36955723,-19
32-19,36959629,-20
32-20,36963535,-14
32-21,36967441,-47
32-22,36971347,-73
32-23,36975253,-64
32-24,36979159,-30
32-25,36983065,-17
32-26,36986971,-67
32-27,36990877,-89
32-28,36994783,-29
32-29,36998689,1
32-30,37002595,-35
32-31,37006501,-70
32-32,37010407,-73
32-1,37014288,-56
32-2,37018194,-61
32-3,37022100,-68
32-4,37026006,-33
32-5,37029912,6
32-6,37033818,-4
32-7,37037724,-46
32-8,37041630,-59
32-9,37045536,-32
32-10,37049442,-21
32-11,37053348,-56
32-12,37057254,-74
32-13,37061160,-25
32-14,37065066,9
32-15,37068972,-28
32-16,37072878,-73
32-17,37076784,-62
32-18,37080690,-13
32-19,37084596,-12
32-20,37088502,-60
32-21,37092408,-56
32-22,37096314,-33
32-23,37100220,-43
32-24,37104126,-68
32-25,37108032,-95
32-26,37111938,-79
32-27,37115844,-48
32-28,37119750,-79
32-29,37123656,-102
32-30,37127562,-71
32-31,37131468,-43
32-32,37135374,-60
32-1,37139286,-103
32-2,37143192,-95
32-3,37147098,-43
32-4,37151004,-39
32-5,37154910,-67
32-6,37158816,-56
32-7,37162722,-14
32-8,37166628,-7
32-9,37170534,-39
32-10,37174440,-62
32-11,37178346,-50
32-12,37182252,-31
32-13,37186158,-55
32-14,37190064,-86
32-15,37193970,-56
32-16,37197876,-22
32-17,37201782,-52
32-18,37205688,-76
32-19,37209594,-31
32-20,37213500,20
32-21,37217406,8
32-22,37221312,-42
32-23,37225218,-67
32-24,37229124,-46
32-25,37233030,-20
32-26,37236936,-45
32-27,37240842,-66
32-28,37244748,-13
32-29,37248654,23
32-30,37252560,-20
32-31,37256466,-54
32-32,37260372,-27
32-1,37264283,9
32-2,37268189,-18
32-3,37272095,-70
32-4,37276001,-52
32-5,37279907,4
32-6,37283813,10
32-7,37287719,-20
32-8,37291625,-19
32-9,37295531,32
32-10,37299437,47
32-11,37303343,-10
32-12,37307249,-50
32-13,37311155,-22
32-14,37315061,2
32-15,37318967,-38
32-16,37322873,-77
32-17,37326779,-42
32-18,37330685,15
32-19,37334591,4
32-20,37338497,-69
32-21,37342403,-91
32-22,37346309,-37
32-23,37350215,-19
32-24,37354121,-45
32-25,37358027,-54
32-26,37361933,-42
32-27,37365839,-39
32-28,37369745,-62
32-29,37373651,-70
32-30,37377557,-33
32-31,37381463,15
32-32,37385369,4
32-1,37389281,-61
32-2,37393187,-62
32-3,37397093,-2
32-4,37400999,-19
32-5,37404905,-84
32-6,37408811,-73
32-7,37412717,-20
32-8,37416623,-26
32-9,37420529,-72
32-10,37424435,-82
32-11,37428341,-39
32-12,37432247,7
32-13,37436153,-7
32-14,37440059,-58
32-15,37443965,-44
32-16,37447871,26
32-17,37451777,28
32-18,37455683,-41
32-19,37459589,-58
32-20,37463495,-14
32-21,37467401,-9
32-22,37471307,-57
32-23,37475213,-90
32-24,37479119,-66
32-25,37483025,-24
32-26,37486931,-40
32-27,37490837,-76
32-28,37494743,-38
32-29,37498649,6
32-30,37502555,-27
32-31,37506461,-68
32-32,37510367,-60
32-1,37514278,-41
32-2,37518184,-57
32-3,37522090,-102
32-4,37525996,-107
32-5,37529902,-40
32-6,37533808,-6
32-7,37537714,-45
32-8,37541620,-61
32-9,37545526,-27
32-10,37549432,-3
32-11,37553338,-16
32-12,37557244,-25
32-13,37561150,13
32-14,37565056,34
32-15,37568962,-33
32-16,37572868,-90
32-17,37576774,-54
32-18,37580680,-3
32-19,37584586,-9
32-20,37588492,-34
32-21,37592398,-20
32-22,37596304,23
32-23,37600210,29
32-24,37604116,1
32-25,37608022,18
32-26,37611928,75
32-27,37615834,83
32-28,37619740,34
32-29,37623646,0
32-30,37627552,5
32-31,37631458,28
32-32,37635364,15
32-1,37639337,-48
32-2,37643243,-66
32-3,37647149,-24
32-4,37651055,-17
32-5,37654961,-41
32-6,37658867,-40
32-7,37662773,-13
32-8,37666679,-8
32-9,37670585,-51
32-10,37674491,-72
32-11,37678397,-40
32-12,37682303,-20
32-13,37686209,-34
32-14,37690115,-39
32-15,37694021,5
32-16,37697927,35
32-17,37701833,-13
32-18,37705739,-51
32-19,37709645,-32
32-20,37713551,-35
32-21,37717457,-56
32-22,37721363,-47
32-23,37725269,-29
32-24,37729175,-21
32-25,37733081,-32
32-26,37736987,-60
32-27,37740893,-59
32-28,37744799,-25
32-29,37748705,-17
32-30,37752611,-66
32-31,37756517,-89
32-32,37760423,-29
32-1,37764274,32
32-2,37768180,28
32-3,37772086,4
32-4,37775992,14
32-5,37779898,44
32-6,37783804,15
32-7,37787710,-64
32-8,37791616,-91
32-9,37795522,-48
32-10,37799428,-19
32-11,37803334,-44
32-12,37807240,-50
32-13,37811146,5
32-14,37815052,10
32-15,37818958,-75
32-16,37822864,-119
32-17,37826770,-71
32-18,37830676,-26
32-19,37834582,-39
32-20,37838488,-72
32-21,37842394,-61
32-22,37846300,-9
32-23,37850206,14
32-24,37854112,-14
32-25,37858018,-29
32-26,37861924,34
32-27,37865830,69
32-28,37869736,4
32-29,37873642,-10
32-30,37877548,51
32-31,37881454,62
32-32,37885360,35
32-1,37889271,11
32-2,37893177,8
32-3,37897083,40
32-4,37900989,40
32-5,37904895,-22
32-6,37908801,-58
32-7,37912707,-30
32-8,37916613,-30
32-9,37920519,-65
32-10,37924425,-50
32-11,37928331,12
32-12,37932237,54
32-13,37936143,39
32-14,37940049,-4
32-15,37943955,-14
32-16,37947861,16
32-17,37951767,17
32-18,37955673,-30
32-19,37959579,-12
32-20,37963485,61
32-21,37967391,75
32-22,37971297,45
32-23,37975203,37
32-24,37979109,62
32-25,37983015,79
32-26,37986921,34
32-27,37990827,-9
32-28,37994733,20
32-29,37998639,41
32-30,38002545,-21
32-31,38006451,-71
32-32,38010357,-36
32-1,38014269,0
32-2,38018175,3
32-3,38022081,3
32-4,38025987,6
32-5,38029893,13
32-6,38033799,2
32-7,38037705,-34
32-8,38041611,-33
32-9,38045517,17
32-10,38049423,42
32-11,38053329,7
32-12,38057235,-31
32-13,38061141,-25
32-14,38065047,-15
32-15,38068953,-47
32-16,38072859,-82
32-17,38076765,-71
32-18,38080671,-33
32-19,38084577,-23
32-20,38088483,-50
32-21,38092389,-65
32-22,38096295,-25
32-23,38100201,10
32-24,38104107,-54
32-25,38108013,-108
32-26,38111919,-39
32-27,38115825,9
32-28,38119731,-48
32-29,38123637,-102
32-30,38127543,-86
32-31,38131449,-52
32-32,38135355,-76
32-1,38139267,-113
32-2,38143173,-67
32-3,38147079,-1
32-4,38150985,-16
32-5,38154891,-70
32-6,38158797,-60
32-7,38162703,-9
32-8,38166609,-10
32-9,38170515,-53
32-10,38174421,-77
32-11,38178327,-56
32-12,38182233,-38
32-13,38186139,-80
32-14,38190045,-128
32-15,38193951,-96
32-16,38197857,-36
32-17,38201763,-64
32-18,38205669,-152
32-19,38209575,-149
32-20,38213481,-64
32-21,38217387,-46
32-22,38221293,-80
32-23,38225199,-49
32-24,38229105,4
32-25,38233011,-12
32-26,38236917,-65
32-27,38240823,-103
32-28,38244729,-80
32-29,38248635,-44
32-30,38252541,-88
32-31,38256447,-142
32-32,38260353,-115
32-1,38264264,-53
32-2,38268170,-41
32-3,38272076,-82
32-4,38275982,-91
32-5,38279888,-47
32-6,38283794,-21
32-7,38287700,-41
32-8,38291606,-57
32-9,38295512,-39
32-10,38299418,-26
32-11,38303324,-40
32-12,38307230,-50
32-13,38311136,-33
32-14,38315042,2
32-15,38318948,-6
32-16,38322854,-37
32-17,38326760,-2
32-18,38330666,49
32-19,38334572,21
32-20,38338478,-36
32-21,38342384,-31
32-22,38346290,5
32-23,38350196,-14
32-24,38354102,-63
32-25,38358008,-62
32-26,38361914,-10
32-27,38365820,16
32-28,38369726,-17
32-29,38373632,-26
32-30,38377538,12
32-31,38381444,24
32-32,38385350,6
32-1,38389384,-17
32-2,38393290,-24
32-3,38397196,10
32-4,38401102,13
32-5,38405008,-48
32-6,38408914,-74
32-7,38412820,-37
32-8,38416726,-14
32-9,38420632,-40
32-10,38424538,-62
32-11,38428444,-40
32-12,38432350,-34
32-13,38436256,-92
32-14,38440162,-128
32-15,38444068,-71
32-16,38447974,-15
32-17,38451880,-35
32-18,38455786,-53
32-19,38459692,-14
32-20,38463598,41
32-21,38467504,51
32-22,38471410,10
32-23,38475316,-12
32-24,38479222,25
32-25,38483128,61
32-26,38487034,48
32-27,38490940,6
32-28,38494846,8
32-29,38498752,47
32-30,38502658,34
32-31,38506564,-3
32-32,38510470,12
32-1,38514259,38
32-2,38518165,21
32-3,38522071,-12
32-4,38525977,-11
32-5,38529883,19
32-6,38533789,14
32-7,38537695,-18
32-8,38541601,-4
32-9,38545507,29
32-10,38549413,25
32-11,38553319,18
32-12,38557225,21
32-13,38561131,38
32-14,38565037,72
32-15,38568943,44
32-16,38572849,-28
32-17,38576755,-22
32-18,38580661,30
32-19,38584567,17
32-20,38588473,-44
32-21,38592379,-47
32-22,38596285,17
32-23,38600191,27
32-24,38604097,-54
32-25,38608003,-108
32-26,38611909,-60
32-27,38615815,-25
32-28,38619721,-70
32-29,38623627,-61
32-30,38627533,11
32-31,38631439,14
32-32,38635345,-48
32-1,38639257,-75
32-2,38643163,-23
32-3,38647069,24
32-4,38650975,-24
32-5,38654881,-74
32-6,38658787,-65
32-7,38662693,-33
32-8,38666599,-21
32-9,38670505,-54
32-10,38674411,-78
32-11,38678317,-42
32-12,38682223,-25
32-13,38686129,-64
32-14,38690035,-86
32-15,38693941,-40
32-16,38697847,-2
32-17,38701753,-42
32-18,38705659,-98
32-19,38709565,-89
32-20,38713471,-36
32-21,38717377,-32
32-22,38721283,-86
32-23,38725189,-108
32-24,38729095,-74
32-25,38733001,-38
32-26,38736907,-52
32-27,38740813,-76
32-28,38744719,-38
32-29,38748625,-13
32-30,38752531,-50
32-31,38756437,-65
32-32,38760343,-29
32-1,38764255,10
32-2,38768161,10
32-3,38772067,-11
32-4,38775973,11
32-5,38779879,24
32-6,38783785,-22
32-7,38787691,-61
32-8,38791597,-60
32-9,38795503,-49
32-10,38799409,-52
32-11,38803315,-85
32-12,38807221,-118
32-13,38811127,-95
32-14,38815033,-36
32-15,38818939,-31
32-16,38822845,-82
32-17,38826751,-86
32-18,38830657,-46
32-19,38834563,-62
32-20,38838469,-108
32-21,38842375,-83
32-22,38846281,-7
32-23,38850187,24
32-24,38854093,-12
32-25,38857999,-38
32-26,38861905,-5
32-27,38865811,31
32-28,38869717,1
32-29,38873623,-40
32-30,38877529,-22
32-31,38881435,8
32-32,38885341,-13
32-1,38889252,-49
32-2,38893158,-27
32-3,38897064,13
32-4,38900970,-13
32-5,38904876,-69
32-6,38908782,-76
32-7,38912688,-52
32-8,38916594,-52
32-9,38920500,-67
32-10,38924406,-62
32-11,38928312,-42
32-12,38932218,-26
32-13,38936124,-47
32-14,38940030,-75
32-15,38943936,-48
32-16,38947842,-15
32-17,38951748,-45
32-18,38955654,-97
32-19,38959560,-94
32-20,38963466,-43
32-21,38967372,-36
32-22,38971278,-65
32-23,38975184,-52
32-24,38979090,-24
32-25,38982996,-42
32-26,38986902,-79
32-27,38990808,-84
32-28,38994714,-34
32-29,38998620,-10
32-30,39002526,-56
32-31,39006432,-55
32-32,39010338,10
32-1,39014342,29
32-2,39018248,-18
32-3,39022154,-75
32-4,39026060,-69
32-5,39029966,-2
32-6,39033872,30
32-7,39037778,-10
32-8,39041684,-23
32-9,39045590,9
32-10,39049496,0
32-11,39053402,-34
32-12,39057308,-34
32-13,39061214,-8
32-14,39065120,14
32-15,39069026,7
32-16,39072932,4
32-17,39076838,14
32-18,39080744,6
32-19,39084650,-26
32-20,39088556,-80
32-21,39092462,-87
32-22,39096368,-17
32-23,39100274,7
32-24,39104180,-47
32-25,39108086,-62
32-26,39111992,-11
32-27,39115898,8
32-28,39119804,-42
32-29,39123710,-67
32-30,39127616,-39
32-31,39131522,-8
32-32,39135428,-25
32-1,39139278,-86
32-2,39143184,-86
32-3,39147090,-24
32-4,39150996,-33
32-5,39154902,-85
32-6,39158808,-65
32-7,39162714,-20
32-8,39166620,-32
32-9,39170526,-61
32-10,39174432,-65
32-11,39178338,-40
32-12,39182244,-3
32-13,39186150,-17
32-14,39190056,-58
32-15,39193962,-24
32-16,39197868,16
32-17,39201774,-29
32-18,39205680,-70
32-19,39209586,-27
32-20,39213492,39
32-21,39217398,33
32-22,39221304,-23
32-23,39225210,-30
32-24,39229116,-2
32-25,39233022,-6
32-26,39236928,-27
32-27,39240834,-21
32-28,39244740,6
32-29,39248646,3
32-30,39252552,-30
32-31,39256458,-63
32-32,39260364,-76
32-1,39264245,-55
32-2,39268151,-43
32-3,39272057,-72
32-4,39275963,-72
32-5,39279869,-21
32-6,39283775,-4
32-7,39287681,-39
32-8,39291587,-23
32-9,39295493,43
32-10,39299399,54
32-11,39303305,9
32-12,39307211,9
32-13,39311117,56
32-14,39315023,71
32-15,39318929,30
32-16,39322835,6
32-17,39326741,30
32-18,39330647,42
32-19,39334553,-8
32-20,39338459,-63
32-21,39342365,-39
32-22,39346271,2
32-23,39350177,-22
32-24,39354083,-64
32-25,39357989,-65
32-26,39361895,-20
32-27,39365801,-6
32-28,39369707,-68
32-29,39373613,-79
32-30,39377519,-25
32-31,39381425,-24
32-32,39385331,-72
32-1,39389243,-97
32-2,39393149,-65
32-3,39397055,-11
32-4,39400961,-17
32-5,39404867,-49
32-6,39408773,-23
32-7,39412679,13
32-8,39416585,14
32-9,39420491,-11
32-10,39424397,-47
32-11,39428303,-47
32-12,39432209,-34
32-13,39436115,-60
32-14,39440021,-86
32-15,39443927,-64
32-16,39447833,-29
32-17,39451739,-31
32-18,39455645,-52
32-19,39459551,-26
32-20,39463457,23
32-21,39467363,16
32-22,39471269,-18
32-23,39475175,-6
32-24,39479081,35
32-25,39482987,35
32-26,39486893,-20
32-27,39490799,-65
32-28,39494705,-37
32-29,39498611,1
32-30,39502517,-46
32-31,39506423,-102
32-32,39510329,-73
32-1,39514241,-35
32-2,39518147,-61
