32-1,30261700,58
32-2,30265606,-814
32-3,30269512,-424
32-4,30273418,793
32-5,30277324,749
32-6,30281230,-474
32-7,30285136,-426
32-8,30289042,629
32-9,30292948,284
32-10,30296854,-491
32-11,30300760,-420
32-12,30304666,-129
32-13,30308572,168
32-14,30312478,-296
32-15,30316384,-724
32-16,30320290,-35
32-17,30324196,182
32-18,30328102,-259
32-19,30332008,-396
32-20,30335914,-198
32-21,30339820,115
32-22,30343726,-66
32-23,30347632,-552
32-24,30351538,-480
32-25,30355444,88
32-26,30359350,176
32-27,30363256,-361
32-28,30367162,-298
32-29,30371068,409
32-30,30374974,446
32-31,30378880,-281
32-32,30382786,-835
32-1,30386697,-326
32-2,30390603,716
32-3,30394509,394
32-4,30398415,-684
32-5,30402321,-323
32-6,30406227,643
32-7,30410133,509
32-8,30414039,-313
32-9,30417945,-511
32-10,30421851,156
32-11,30425757,250
32-12,30429663,-361
32-13,30433569,-268
32-14,30437475,450
32-15,30441381,632
32-16,30445287,-13
32-17,30449193,-623
32-18,30453099,-106
32-19,30457005,858
32-20,30460911,520
32-21,30464817,-334
32-22,30468723,-318
32-23,30472629,297
32-24,30476535,588
32-25,30480441,8
32-26,30484347,-190
32-27,30488253,153
32-28,30492159,-102
32-29,30496065,-553
32-30,30499971,-797
32-31,30503877,-206
32-32,30507783,660
32-1,30511848,122
32-2,30515754,-764
32-3,30519660,-145
32-4,30523566,1202
32-5,30527472,768
32-6,30531378,-800
32-7,30535284,-533
32-8,30539190,519
32-9,30543096,127
32-10,30547002,-495
32-11,30550908,-68
32-12,30554814,552
32-13,30558720,506
32-14,30562626,-94
32-15,30566532,-513
32-16,30570438,-112
32-17,30574344,172
32-18,30578250,-248
32-19,30582156,-394
32-20,30586062,35
32-21,30589968,383
32-22,30593874,-31
32-23,30597780,-646
32-24,30601686,-505
32-25,30605592,242
32-26,30609498,813
32-27,30613404,50
32-28,30617310,-944
32-29,30621216,57
32-30,30625122,1035
32-31,30629028,4
32-32,30632934,-659
32-1,30636693,183
32-2,30640599,490
32-3,30644505,-132
32-4,30648411,-276
32-5,30652317,133
32-6,30656223,412
32-7,30660129,116
32-8,30664035,-364
32-9,30667941,-128
32-10,30671847,637
32-11,30675753,799
32-12,30679659,-178
32-13,30683565,-846
32-14,30687471,121
32-15,30691377,815
32-16,30695283,-162
32-17,30699189,-655
32-18,30703095,257
32-19,30707001,832
32-20,30710907,301
32-21,30714813,-609
32-22,30718719,-614
32-23,30722625,310
32-24,30726531,398
32-25,30730437,-276
32-26,30734343,-339
32-27,30738249,-35
32-28,30742155,197
32-29,30746061,112
32-30,30749967,-456
32-31,30753873,-284
32-32,30757779,546
32-1,30761873,36
32-2,30765779,-716
32-3,30769685,11
32-4,30773591,462
32-5,30777497,29
32-6,30781403,-296
32-7,30785309,-297
32-8,30789215,454
32-9,30793121,907
32-10,30797027,-50
32-11,30800933,-665
32-12,30804839,24
32-13,30808745,356
32-14,30812651,-329
32-15,30816557,-728
32-16,30820463,49
32-17,30824369,765
32-18,30828275,238
32-19,30832181,-342
32-20,30836087,-91
32-21,30839993,432
32-22,30843899,555
32-23,30847805,-72
32-24,30851711,-361
32-25,30855617,392
32-26,30859523,644
32-27,30863429,-113
32-28,30867335,-594
32-29,30871241,-37
32-30,30875147,535
32-31,30879053,-233
32-32,30882959,-887
32-1,30886688,116
32-2,30890594,596
32-3,30894500,-703
32-4,30898406,-1226
32-5,30902312,-188
32-6,30906218,298
32-7,30910124,-252
32-8,30914030,-522
32-9,30917936,-129
32-10,30921842,405
32-11,30925748,509
32-12,30929654,-91
32-13,30933560,-317
32-14,30937466,332
32-15,30941372,570
32-16,30945278,22
32-17,30949184,-378
32-18,30953090,-1
32-19,30956996,377
32-20,30960902,-61
32-21,30964808,-556
32-22,30968714,-518
32-23,30972620,91
32-24,30976526,279
32-25,30980432,-576
32-26,30984338,-731
32-27,30988244,109
32-28,30992150,417
32-29,30996056,-217
32-30,30999962,-661
32-31,31003868,108
32-32,31007774,710
32-1,31011686,9
32-2,31015592,-761
32-3,31019498,-193
32-4,31023404,848
32-5,31027310,252
32-6,31031216,-998
32-7,31035122,-735
32-8,31039028,341
32-9,31042934,434
32-10,31046840,-418
32-11,31050746,-410
32-12,31054652,404
32-13,31058558,431
32-14,31062464,-428
32-15,31066370,-1127
32-16,31070276,-462
32-17,31074182,532
32-18,31078088,220
32-19,31081994,-401
32-20,31085900,-356
32-21,31089806,108
32-22,31093712,-144
32-23,31097618,-1173
32-24,31101524,-648
32-25,31105430,994
32-26,31109336,980
32-27,31113242,-163
32-28,31117148,-304
32-29,31121054,482
32-30,31124960,585
32-31,31128866,-134
32-32,31132772,-616
32-1,31136683,-262
32-2,31140589,581
32-3,31144495,387
32-4,31148401,-930
32-5,31152307,-1112
32-6,31156213,381
32-7,31160119,1072
32-8,31164025,120
32-9,31167931,-307
32-10,31171837,501
32-11,31175743,573
32-12,31179649,-632
32-13,31183555,-896
32-14,31187461,155
32-15,31191367,401
32-16,31195273,-338
32-17,31199179,-914
32-18,31203085,-546
32-19,31206991,380
32-20,31210897,11
32-21,31214803,-997
32-22,31218709,-627
32-23,31222615,646
32-24,31226521,965
32-25,31230427,-209
32-26,31234333,-484
32-27,31238239,999
32-28,31242145,1153
32-29,31246051,-277
32-30,31249957,-477
32-31,31253863,372
32-32,31257769,651
32-1,31261681,-42
32-2,31265587,-832
32-3,31269493,-243
32-4,31273399,836
32-5,31277305,423
32-6,31281211,-572
32-7,31285117,-402
32-8,31289023,377
32-9,31292929,414
32-10,31296835,-113
32-11,31300741,-556
32-12,31304647,-377
32-13,31308553,392
32-14,31312459,99
32-15,31316365,-860
32-16,31320271,-308
32-17,31324177,830
32-18,31328083,602
32-19,31331989,-234
32-20,31335895,41
32-21,31339801,960
32-22,31343707,741
32-23,31347613,-280
32-24,31351519,-351
32-25,31355425,391
32-26,31359331,399
32-27,31363237,-175
32-28,31367143,-136
32-29,31371049,435
32-30,31374955,642
32-31,31378861,129
32-32,31382767,-319
32-1,31386678,-93
32-2,31390584,303
32-3,31394490,143
32-4,31398396,-440
32-5,31402302,-263
32-6,31406208,540
32-7,31410114,390
32-8,31414020,-306
32-9,31417926,-490
32-10,31421832,0
32-11,31425738,495
32-12,31429644,-120
32-13,31433550,-510
32-14,31437456,417
32-15,31441362,774
32-16,31445268,-82
32-17,31449174,-735
32-18,31453080,-284
32-19,31456986,768
32-20,31460892,752
32-21,31464798,-234
32-22,31468704,-225
32-23,31472610,686
32-24,31476516,377
32-25,31480422,-910
32-26,31484328,-649
32-27,31488234,733
32-28,31492140,510
32-29,31496046,-659
32-30,31499952,-647
32-31,31503858,128
32-32,31507764,685
32-1,31511859,-84
32-2,31515765,-1242
32-3,31519671,-173
32-4,31523577,1176
32-5,31527483,363
32-6,31531389,-588
32-7,31535295,-11
32-8,31539201,974
32-9,31543107,747
32-10,31547013,-402
32-11,31550919,-910
32-12,31554825,-226
32-13,31558731,573
32-14,31562637,96
32-15,31566543,-728
32-16,31570449,-117
32-17,31574355,924
32-18,31578261,428
32-19,31582167,-696
32-20,31586073,-287
32-21,31589979,747
32-22,31593885,447
32-23,31597791,-640
32-24,31601697,-647
32-25,31605603,413
32-26,31609509,491
32-27,31613415,-393
32-28,31617321,-611
32-29,31621227,296
32-30,31625133,1122
32-31,31629039,159
32-32,31632945,-1108
32-1,31636674,-323
32-2,31640580,934
32-3,31644486,487
32-4,31648392,-496
32-5,31652298,-336
32-6,31656204,379
32-7,31660110,581
32-8,31664016,-191
32-9,31667922,-784
32-10,31671828,89
32-11,31675734,555
32-12,31679640,-140
32-13,31683546,-457
32-14,31687452,-30
32-15,31691358,697
32-16,31695264,405
32-17,31699170,-342
32-18,31703076,244
32-19,31706982,828
32-20,31710888,297
32-21,31714794,-260
32-22,31718700,-145
32-23,31722606,682
32-24,31726512,955
32-25,31730418,-1
32-26,31734324,-375
32-27,31738230,438
32-28,31742136,724
32-29,31746042,-209
32-30,31749948,-868
32-31,31753854,-287
32-32,31757760,498
32-1,31761671,263
32-2,31765577,-610
32-3,31769483,-421
32-4,31773389,688
32-5,31777295,641
32-6,31781201,-193
32-7,31785107,-448
32-8,31789013,-381
32-9,31792919,-93
32-10,31796825,-240
32-11,31800731,-894
32-12,31804637,-653
32-13,31808543,-249
32-14,31812449,-736
32-15,31816355,-681
32-16,31820261,399
32-17,31824167,813
32-18,31828073,-95
32-19,31831979,-1012
32-20,31835885,-677
32-21,31839791,667
32-22,31843697,810
32-23,31847603,-667
32-24,31851509,-813
32-25,31855415,325
32-26,31859321,499
32-27,31863227,-114
32-28,31867133,-606
32-29,31871039,-224
32-30,31874945,576
32-31,31878851,385
32-32,31882757,-355
32-1,31886669,-51
32-2,31890575,620
32-3,31894481,4
32-4,31898387,-849
32-5,31902293,-713
32-6,31906199,-56
32-7,31910105,71
32-8,31914011,-835
32-9,31917917,-1066
32-10,31921823,259
32-11,31925729,1082
32-12,31929635,44
32-13,31933541,-906
32-14,31937447,65
32-15,31941353,886
32-16,31945259,130
32-17,31949165,-498
32-18,31953071,-108
32-19,31956977,423
32-20,31960883,255
32-21,31964789,-413
32-22,31968695,-474
32-23,31972601,530
32-24,31976507,698
32-25,31980413,-357
32-26,31984319,-383
32-27,31988225,323
32-28,31992131,289
32-29,31996037,-323
32-30,31999943,-572
32-31,32003849,-117
32-32,32007755,299
32-1,32011667,311
32-2,32015573,-542
32-3,32019479,-976
32-4,32023385,491
32-5,32027291,1025
32-6,32031197,-197
32-7,32035103,-417
32-8,32039009,206
32-9,32042915,7
32-10,32046821,-791
32-11,32050727,-665
32-12,32054633,710
32-13,32058539,1509
32-14,32062445,540
32-15,32066351,-619
32-16,32070257,-323
32-17,32074163,447
32-18,32078069,196
32-19,32081975,-772
32-20,32085881,-757
32-21,32089787,423
32-22,32093693,452
32-23,32097599,-644
32-24,32101505,-459
32-25,32105411,431
32-26,32109317,159
32-27,32113223,-580
32-28,32117129,-551
32-29,32121035,-48
32-30,32124941,415
32-31,32128847,201
32-32,32132753,-596
32-1,32136664,-129
32-2,32140570,872
32-3,32144476,152
32-4,32148382,-935
32-5,32152288,-854
32-6,32156194,-247
32-7,32160100,247
32-8,32164006,-60
32-9,32167912,-835
32-10,32171818,-416
32-11,32175724,391
32-12,32179630,-379
32-13,32183536,-889
32-14,32187442,227
32-15,32191348,624
32-16,32195254,21
32-17,32199160,-489
32-18,32203066,-546
32-19,32206972,336
32-20,32210878,348
32-21,32214784,-587
32-22,32218690,-259
32-23,32222596,320
32-24,32226502,185
32-25,32230408,-116
32-26,32234314,-596
32-27,32238220,-199
32-28,32242126,642
32-29,32246032,109
32-30,32249938,-461
32-31,32253844,205
32-32,32257750,665
32-1,32261662,202
32-2,32265568,-516
32-3,32269474,-308
32-4,32273380,821
32-5,32277286,552
32-6,32281192,-842
32-7,32285098,-500
32-8,32289004,913
32-9,32292910,884
32-10,32296816,-461
32-11,32300722,-969
32-12,32304628,185
32-13,32308534,806
32-14,32312440,-157
32-15,32316346,-866
32-16,32320252,-359
32-17,32324158,463
32-18,32328064,386
32-19,32331970,-217
32-20,32335876,-291
32-21,32339782,-188
32-22,32343688,-366
32-23,32347594,-908
32-24,32351500,-955
32-25,32355406,213
32-26,32359312,632
32-27,32363218,-391
32-28,32367124,-728
32-29,32371030,387
32-30,32374936,805
32-31,32378842,-579
32-32,32382748,-1106
32-1,32386659,-65
32-2,32390565,325
32-3,32394471,5
32-4,32398377,-100
32-5,32402283,43
32-6,32406189,242
32-7,32410095,157
32-8,32414001,-657
32-9,32417907,-1509
32-10,32421813,-338
32-11,32425719,1072
32-12,32429625,-188
32-13,32433531,-981
32-14,32437437,211
32-15,32441343,567
32-16,32445249,-85
32-17,32449155,-712
32-18,32453061,-571
32-19,32456967,197
32-20,32460873,-32
32-21,32464779,-618
32-22,32468685,-131
32-23,32472591,666
32-24,32476497,407
32-25,32480403,-781
32-26,32484309,-987
32-27,32488215,119
32-28,32492121,717
32-29,32496027,-206
32-30,32499933,-1177
32-31,32503839,-245
32-32,32507745,734
32-1,32511657,11
32-2,32515563,-664
32-3,32519469,-309
32-4,32523375,394
32-5,32527281,365
32-6,32531187,-381
32-7,32535093,-688
32-8,32538999,-71
32-9,32542905,604
32-10,32546811,-230
32-11,32550717,-1075
32-12,32554623,51
32-13,32558529,786
32-14,32562435,214
32-15,32566341,-292
32-16,32570247,-251
32-17,32574153,679
32-18,32578059,669
32-19,32581965,-828
32-20,32585871,-775
32-21,32589777,639
32-22,32593683,595
32-23,32597589,-534
32-24,32601495,-654
32-25,32605401,563
32-26,32609307,1063
32-27,32613213,-77
32-28,32617119,-710
32-29,32621025,240
32-30,32624931,1177
32-31,32628837,583
32-32,32632743,-699
32-1,32636655,-293
32-2,32640561,1013
32-3,32644467,612
32-4,32648373,-369
32-5,32652279,-200
32-6,32656185,410
32-7,32660091,369
32-8,32663997,-214
32-9,32667903,-409
32-10,32671809,-130
32-11,32675715,251
32-12,32679621,55
32-13,32683527,-619
32-14,32687433,-45
32-15,32691339,970
32-16,32695245,431
32-17,32699151,-389
32-18,32703057,-50
32-19,32706963,637
32-20,32710869,499
32-21,32714775,-345
32-22,32718681,-320
32-23,32722587,916
32-24,32726493,1100
32-25,32730399,-47
32-26,32734305,-325
32-27,32738211,344
32-28,32742117,720
32-29,32746023,316
32-30,32749929,-301
32-31,32753835,41
32-32,32757741,651
32-1,32761652,92
32-2,32765558,-698
32-3,32769464,-71
32-4,32773370,904
32-5,32777276,488
32-6,32781182,-334
32-7,32785088,-315
32-8,32788994,275
32-9,32792900,312
32-10,32796806,-611
32-11,32800712,-806
32-12,32804618,260
32-13,32808524,690
32-14,32812430,-26
32-15,32816336,-706
32-16,32820242,-325
32-17,32824148,707
32-18,32828054,480
32-19,32831960,-640
32-20,32835866,-445
32-21,32839772,695
32-22,32843678,644
32-23,32847584,-337
32-24,32851490,-72
32-25,32855396,663
32-26,32859302,168
32-27,32863208,-346
32-28,32867114,-280
32-29,32871020,134
32-30,32874926,535
32-31,32878832,82
32-32,32882738,-380
32-1,32886650,-43
32-2,32890556,557
32-3,32894462,278
32-4,32898368,-483
32-5,32902274,74
32-6,32906180,840
32-7,32910086,523
32-8,32913992,-29
32-9,32917898,-534
32-10,32921804,-157
32-11,32925710,778
32-12,32929616,264
32-13,32933522,-454
32-14,32937428,244
32-15,32941334,543
32-16,32945240,-205
32-17,32949146,-594
32-18,32953052,-175
32-19,32956958,194
32-20,32960864,-153
32-21,32964770,-458
32-22,32968676,-326
32-23,32972582,246
32-24,32976488,777
32-25,32980394,99
32-26,32984300,-416
32-27,32988206,435
32-28,32992112,676
32-29,32996018,-265
32-30,32999924,-643
32-31,33003830,-248
32-32,33007736,-53
32-1,33011648,-62
32-2,33015554,-317
32-3,33019460,-162
32-4,33023366,824
32-5,33027272,629
32-6,33031178,-663
32-7,33035084,-648
32-8,33038990,393
32-9,33042896,583
32-10,33046802,-374
32-11,33050708,-878
32-12,33054614,94
32-13,33058520,730
32-14,33062426,-310
32-15,33066332,-965
32-16,33070238,86
32-17,33074144,893
32-18,33078050,307
32-19,33081956,-399
32-20,33085862,-204
32-21,33089768,454
32-22,33093674,325
32-23,33097580,-553
32-24,33101486,-580
32-25,33105392,325
32-26,33109298,365
32-27,33113204,-536
32-28,33117110,-610
32-29,33121016,453
32-30,33124922,943
32-31,33128828,345
32-32,33132734,-164
32-1,33136645,158
32-2,33140551,850
32-3,33144457,212
32-4,33148363,-1053
32-5,33152269,-659
32-6,33156175,522
32-7,33160081,557
32-8,33163987,-563
32-9,33167893,-764
32-10,33171799,703
32-11,33175705,985
32-12,33179611,-367
32-13,33183517,-984
32-14,33187423,-316
32-15,33191329,573
32-16,33195235,30
32-17,33199141,-974
32-18,33203047,-494
32-19,33206953,423
32-20,33210859,477
32-21,33214765,-143
32-22,33218671,-303
32-23,33222577,493
32-24,33226483,833
32-25,33230389,131
32-26,33234295,-365
32-27,33238201,191
32-28,33242107,582
32-29,33246013,-360
32-30,33249919,-925
32-31,33253825,-132
32-32,33257731,472
32-1,33261643,299
32-2,33265549,-77
32-3,33269455,38
32-4,33273361,498
32-5,33277267,50
32-6,33281173,-657
32-7,33285079,-93
32-8,33288985,887
32-9,33292891,695
32-10,33296797,-185
32-11,33300703,-357
32-12,33304609,264
32-13,33308515,617
32-14,33312421,-39
32-15,33316327,-613
32-16,33320233,-197
32-17,33324139,243
32-18,33328045,287
32-19,33331951,-10
32-20,33335857,-364
32-21,33339763,34
32-22,33343669,307
32-23,33347575,-469
32-24,33351481,-844
32-25,33355387,215
32-26,33359293,912
32-27,33363199,-18
32-28,33367105,-596
32-29,33371011,-21
32-30,33374917,368
32-31,33378823,75
32-32,33382729,-750
32-1,33386641,-650
32-2,33390547,553
32-3,33394453,576
32-4,33398359,-98
32-5,33402265,235
32-6,33406171,695
32-7,33410077,590
32-8,33413983,-75
32-9,33417889,-884
32-10,33421795,-352
32-11,33425701,707
32-12,33429607,78
32-13,33433513,-861
32-14,33437419,-392
32-15,33441325,158
32-16,33445231,-205
32-17,33449137,-848
32-18,33453043,-452
32-19,33456949,510
32-20,33460855,222
32-21,33464761,-657
32-22,33468667,-603
32-23,33472573,210
32-24,33476479,391
32-25,33480385,-201
32-26,33484291,-26
32-27,33488197,529
32-28,33492103,457
32-29,33496009,220
32-30,33499915,-343
32-31,33503821,-706
32-32,33507727,109
32-1,33511638,606
32-2,33515544,-231
32-3,33519450,-499
32-4,33523356,338
32-5,33527262,439
32-6,33531168,-364
32-7,33535074,-562
32-8,33538980,405
32-9,33542886,767
32-10,33546792,-229
32-11,33550698,-378
32-12,33554604,335
32-13,33558510,332
32-14,33562416,-7
32-15,33566322,-223
32-16,33570228,-9
32-17,33574134,376
32-18,33578040,-107
32-19,33581946,-834
32-20,33585852,-712
32-21,33589758,-99
32-22,33593664,116
32-23,33597570,-366
32-24,33601476,-776
32-25,33605382,-14
32-26,33609288,671
32-27,33613194,-359
32-28,33617100,-963
32-29,33621006,132
32-30,33624912,907
32-31,33628818,335
32-32,33632724,-725
32-1,33636636,-529
32-2,33640542,550
32-3,33644448,155
32-4,33648354,-879
32-5,33652260,-610
32-6,33656166,408
32-7,33660072,614
32-8,33663978,-461
32-9,33667884,-810
32-10,33671790,182
32-11,33675696,632
32-12,33679602,188
32-13,33683508,-386
32-14,33687414,-66
32-15,33691320,743
32-16,33695226,305
32-17,33699132,-701
32-18,33703038,-800
32-19,33706944,154
32-20,33710850,584
32-21,33714756,-365
32-22,33718662,-460
32-23,33722568,270
32-24,33726474,198
32-25,33730380,-87
32-26,33734286,-334
32-27,33738192,-31
32-28,33742098,564
32-29,33746004,-341
32-30,33749910,-1356
32-31,33753816,-443
32-32,33757722,795
32-1,33761633,680
32-2,33765539,-308
32-3,33769445,-519
32-4,33773351,451
32-5,33777257,597
32-6,33781163,-200
32-7,33785069,-113
32-8,33788975,604
32-9,33792881,583
32-10,33796787,-338
32-11,33800693,-852
32-12,33804599,-187
32-13,33808505,513
32-14,33812411,-58
32-15,33816317,-904
32-16,33820223,-236
32-17,33824129,688
32-18,33828035,194
32-19,33831941,-689
32-20,33835847,-637
32-21,33839753,190
32-22,33843659,325
32-23,33847565,-555
32-24,33851471,-760
32-25,33855377,179
32-26,33859283,695
32-27,33863189,-46
32-28,33867095,-830
32-29,33871001,32
32-30,33874907,971
32-31,33878813,-251
32-32,33882719,-1117
32-1,33886631,-271
32-2,33890537,87
32-3,33894443,-95
32-4,33898349,-138
32-5,33902255,-226
32-6,33906161,125
32-7,33910067,503
32-8,33913973,-7
32-9,33917879,-598
32-10,33921785,-51
32-11,33925691,524
32-12,33929597,-235
32-13,33933503,-1118
32-14,33937409,-557
32-15,33941315,499
32-16,33945221,-91
32-17,33949127,-1119
32-18,33953033,-481
32-19,33956939,538
32-20,33960845,289
32-21,33964751,-564
32-22,33968657,-665
32-23,33972563,-173
32-24,33976469,89
32-25,33980375,-179
32-26,33984281,-549
32-27,33988187,100
32-28,33992093,869
32-29,33995999,130
32-30,33999905,-758
32-31,34003811,-710
32-32,34007717,-94
32-1,34011629,132
32-2,34015535,-707
32-3,34019441,-576
32-4,34023347,580
32-5,34027253,407
32-6,34031159,-393
32-7,34035065,-678
32-8,34038971,-161
32-9,34042877,525
32-10,34046783,-93
32-11,34050689,-540
32-12,34054595,26
32-13,34058501,110
32-14,34062407,-148
32-15,34066313,-521
32-16,34070219,-505
32-17,34074125,216
32-18,34078031,109
32-19,34081937,-744
32-20,34085843,-766
32-21,34089749,310
32-22,34093655,777
32-23,34097561,-460
32-24,34101467,-1170
32-25,34105373,-162
32-26,34109279,311
32-27,34113185,-404
32-28,34117091,-565
32-29,34120997,-240
32-30,34124903,-125
32-31,34128809,111
32-32,34132715,-272
32-1,34136596,-570
32-2,34140502,126
32-3,34144408,-211
32-4,34148314,-1049
32-5,34152220,-252
32-6,34156126,783
32-7,34160032,548
32-8,34163938,-41
32-9,34167844,-145
32-10,34171750,372
32-11,34175656,857
32-12,34179562,-58
32-13,34183468,-953
32-14,34187374,-150
32-15,34191280,561
32-16,34195186,363
32-17,34199092,-199
32-18,34202998,-440
32-19,34206904,380
32-20,34210810,780
32-21,34214716,-63
32-22,34218622,-582
32-23,34222528,-158
32-24,34226434,209
32-25,34230340,-83
32-26,34234246,-412
32-27,34238152,174
32-28,34242058,952
32-29,34245964,351
32-30,34249870,-761
32-31,34253776,-434
32-32,34257682,568
32-1,34261624,159
32-2,34265530,-720
32-3,34269436,-141
32-4,34273342,724
32-5,34277248,606
32-6,34281154,-254
32-7,34285060,-1052
32-8,34288966,-291
32-9,34292872,896
32-10,34296778,293
32-11,34300684,-740
32-12,34304590,-279
32-13,34308496,792
32-14,34312402,577
32-15,34316308,-524
32-16,34320214,-178
32-17,34324120,1037
32-18,34328026,440
32-19,34331932,-689
32-20,34335838,99
32-21,34339744,952
32-22,34343650,211
32-23,34347556,-579
32-24,34351462,-416
32-25,34355368,616
32-26,34359274,1275
32-27,34363180,-58
32-28,34367086,-1095
32-29,34370992,124
32-30,34374898,812
32-31,34378804,-35
32-32,34382710,-738
32-1,34386622,-499
32-2,34390528,449
32-3,34394434,355
32-4,34398340,-697
32-5,34402246,-682
32-6,34406152,215
32-7,34410058,484
32-8,34413964,-550
32-9,34417870,-1200
32-10,34421776,-97
32-11,34425682,655
32-12,34429588,158
32-13,34433494,-318
32-14,34437400,-262
32-15,34441306,360
32-16,34445212,61
32-17,34449118,-1187
32-18,34453024,-720
32-19,34456930,699
32-20,34460836,487
32-21,34464742,-533
32-22,34468648,-574
32-23,34472554,483
32-24,34476460,1054
32-25,34480366,-54
32-26,34484272,-937
32-27,34488178,-89
32-28,34492084,573
32-29,34495990,-10
32-30,34499896,-748
32-31,34503802,-513
32-32,34507708,564
32-1,34511619,369
32-2,34515525,-799
32-3,34519431,-783
32-4,34523337,14
32-5,34527243,406
32-6,34531149,-172
32-7,34535055,-430
32-8,34538961,315
32-9,34542867,96
32-10,34546773,-484
32-11,34550679,-145
32-12,34554585,359
32-13,34558491,809
32-14,34562397,389
32-15,34566303,-591
32-16,34570209,-282
32-17,34574115,582
32-18,34578021,473
32-19,34581927,-105
32-20,34585833,-259
32-21,34589739,205
32-22,34593645,539
32-23,34597551,11
32-24,34601457,-551
32-25,34605363,-371
32-26,34609269,-128
32-27,34613175,-383
32-28,34617081,-560
32-29,34620987,43
32-30,34624893,696
32-31,34628799,335
32-32,34632705,-254
32-1,34636617,-39
32-2,34640523,592
32-3,34644429,710
32-4,34648335,-109
32-5,34652241,-478
32-6,34656147,434
32-7,34660053,575
32-8,34663959,-497
32-9,34667865,-841
32-10,34671771,-171
32-11,34675677,489
32-12,34679583,236
32-13,34683489,-368
32-14,34687395,68
32-15,34691301,520
32-16,34695207,-49
32-17,34699113,-606
32-18,34703019,-463
32-19,34706925,125
32-20,34710831,414
32-21,34714737,-188
32-22,34718643,-873
32-23,34722549,-105
32-24,34726455,803
32-25,34730361,-42
32-26,34734267,-486
32-27,34738173,283
32-28,34742079,365
32-29,34745985,-29
32-30,34749891,-454
32-31,34753797,-313
32-32,34757703,724
32-1,34761645,770
32-2,34765551,-280
32-3,34769457,-607
32-4,34773363,43
32-5,34777269,542
32-6,34781175,-153
32-7,34785081,-717
32-8,34788987,203
32-9,34792893,334
32-10,34796799,-700
32-11,34800705,-551
32-12,34804611,327
32-13,34808517,676
32-14,34812423,-46
32-15,34816329,-1091
32-16,34820235,-511
32-17,34824141,708
32-18,34828047,529
32-19,34831953,-481
32-20,34835859,-740
32-21,34839765,46
32-22,34843671,449
32-23,34847577,-398
32-24,34851483,-1151
32-25,34855389,-389
32-26,34859295,731
32-27,34863201,573
32-28,34867107,-37
32-29,34871013,215
32-30,34874919,708
32-31,34878825,258
32-32,34882731,-321
32-1,34886612,-113
32-2,34890518,31
32-3,34894424,-87
32-4,34898330,-334
32-5,34902236,-372
32-6,34906142,547
32-7,34910048,727
32-8,34913954,-739
32-9,34917860,-1053
32-10,34921766,289
32-11,34925672,665
32-12,34929578,-271
32-13,34933484,-830
32-14,34937390,-325
32-15,34941296,168
32-16,34945202,-256
32-17,34949108,-730
32-18,34953014,-258
32-19,34956920,645
32-20,34960826,625
32-21,34964732,-180
32-22,34968638,-459
32-23,34972544,426
32-24,34976450,1062
32-25,34980356,-25
32-26,34984262,-681
32-27,34988168,180
32-28,34992074,407
32-29,34995980,-248
32-30,34999886,-561
32-31,35003792,7
32-32,35007698,842
32-1,35011610,486
32-2,35015516,-652
32-3,35019422,-607
32-4,35023328,478
32-5,35027234,472
32-6,35031140,-255
32-7,35035046,-167
32-8,35038952,31
32-9,35042858,71
32-10,35046764,-74
32-11,35050670,-651
32-12,35054576,-230
32-13,35058482,892
32-14,35062388,627
32-15,35066294,-510
32-16,35070200,-668
32-17,35074106,435
32-18,35078012,762
32-19,35081918,-421
32-20,35085824,-646
32-21,35089730,419
32-22,35093636,650
32-23,35097542,-266
32-24,35101448,-726
32-25,35105354,133
32-26,35109260,526
32-27,35113166,-444
32-28,35117072,-789
32-29,35120978,-5
32-30,35124884,554
32-31,35128790,395
32-32,35132696,-394
32-1,35136607,-805
32-2,35140513,-221
32-3,35144419,72
32-4,35148325,-220
32-5,35152231,-382
32-6,35156137,16
32-7,35160043,388
32-8,35163949,-372
32-9,35167855,-894
32-10,35171761,78
32-11,35175667,604
32-12,35179573,-108
32-13,35183479,-346
32-14,35187385,160
32-15,35191291,539
32-16,35195197,455
32-17,35199103,-313
32-18,35203009,-560
32-19,35206915,525
32-20,35210821,730
32-21,35214727,-295
32-22,35218633,-471
32-23,35222539,122
32-24,35226445,450
32-25,35230351,295
32-26,35234257,-175
32-27,35238163,-29
32-28,35242069,578
32-29,35245975,-34
32-30,35249881,-991
32-31,35253787,-235
32-32,35257693,615
32-1,35261636,-339
32-2,35265542,-1203
32-3,35269448,-768
32-4,35273354,-53
32-5,35277260,306
32-6,35281166,-148
32-7,35285072,-594
32-8,35288978,-75
32-9,35292884,396
32-10,35296790,98
32-11,35300696,-536
32-12,35304602,-337
32-13,35308508,423
32-14,35312414,113
32-15,35316320,-422
32-16,35320226,-260
32-17,35324132,92
32-18,35328038,413
32-19,35331944,-274
32-20,35335850,-977
32-21,35339756,238
32-22,35343662,724
32-23,35347568,-786
32-24,35351474,-1003
32-25,35355380,219
32-26,35359286,744
32-27,35363192,457
32-28,35367098,-298
32-29,35371004,-462
32-30,35374910,188
32-31,35378816,-184
32-32,35382722,-995
32-1,35386725,-426
32-2,35390631,512
32-3,35394537,219
32-4,35398443,-513
32-5,35402349,-736
32-6,35406255,-498
32-7,35410161,185
32-8,35414067,29
32-9,35417973,-781
32-10,35421879,-279
32-11,35425785,315
32-12,35429691,-192
32-13,35433597,-424
32-14,35437503,-197
32-15,35441409,-114
32-16,35445315,-143
32-17,35449221,-258
32-18,35453127,-437
32-19,35457033,-1
32-20,35460939,533
32-21,35464845,-67
32-22,35468751,-320
32-23,35472657,460
32-24,35476563,442
32-25,35480469,-209
32-26,35484375,-129
32-27,35488281,608
32-28,35492187,1136
32-29,35496093,539
32-30,35499999,-494
32-31,35503905,-251
32-32,35507811,541
32-1,35511600,211
32-2,35515506,-511
32-3,35519412,-71
32-4,35523318,1021
32-5,35527224,842
32-6,35531130,-291
32-7,35535036,-405
32-8,35538942,455
32-9,35542848,956
32-10,35546754,415
32-11,35550660,-361
32-12,35554566,-147
32-13,35558472,-18
32-14,35562378,-504
32-15,35566284,-495
32-16,35570190,-366
32-17,35574096,122
32-18,35578002,637
32-19,35581908,-282
32-20,35585814,-938
32-21,35589720,-59
32-22,35593626,425
32-23,35597532,37
32-24,35601438,-75
32-25,35605344,34
32-26,35609250,126
32-27,35613156,200
32-28,35617062,-256
32-29,35620968,-382
32-30,35624874,493
32-31,35628780,433
32-32,35632686,-624
32-1,35636598,-418
32-2,35640504,601
32-3,35644410,524
32-4,35648316,-219
32-5,35652222,-293
32-6,35656128,500
32-7,35660034,1140
32-8,35663940,251
32-9,35667846,-757
32-10,35671752,86
32-11,35675658,875
32-12,35679564,70
32-13,35683470,-605
32-14,35687376,182
32-15,35691282,1159
32-16,35695188,175
32-17,35699094,-1219
32-18,35703000,-428
32-19,35706906,547
32-20,35710812,271
32-21,35714718,-412
32-22,35718624,-702
32-23,35722530,315
32-24,35726436,646
32-25,35730342,-348
32-26,35734248,-539
32-27,35738154,-228
32-28,35742060,382
32-29,35745966,509
32-30,35749872,-711
32-31,35753778,-763
32-32,35757684,526
32-1,35761596,608
32-2,35765502,-325
32-3,35769408,-538
32-4,35773314,354
32-5,35777220,773
32-6,35781126,-127
32-7,35785032,-660
32-8,35788938,119
32-9,35792844,814
32-10,35796750,509
32-11,35800656,-166
32-12,35804562,36
32-13,35808468,665
32-14,35812374,161
32-15,35816280,-716
32-16,35820186,-484
32-17,35824092,510
32-18,35827998,549
32-19,35831904,-584
32-20,35835810,-751
32-21,35839716,314
32-22,35843622,554
32-23,35847528,-274
32-24,35851434,-647
32-25,35855340,104
32-26,35859246,756
32-27,35863152,-48
32-28,35867058,-1235
32-29,35870964,-492
32-30,35874870,1231
32-31,35878776,808
32-32,35882682,-721
32-1,35886593,-493
32-2,35890499,482
32-3,35894405,338
32-4,35898311,-283
32-5,35902217,-65
32-6,35906123,730
32-7,35910029,559
32-8,35913935,-356
32-9,35917841,-607
32-10,35921747,-218
32-11,35925653,-8
32-12,35929559,-489
32-13,35933465,-960
32-14,35937371,-492
32-15,35941277,445
32-16,35945183,264
32-17,35949089,-756
32-18,35952995,-136
32-19,35956901,1067
32-20,35960807,279
32-21,35964713,-835
32-22,35968619,-683
32-23,35972525,58
32-24,35976431,543
32-25,35980337,-132
32-26,35984243,-792
32-27,35988149,203
32-28,35992055,811
32-29,35995961,-219
32-30,35999867,-735
32-31,36003773,-268
32-32,36007679,84
32-1,36011957,-259
32-2,36015863,-982
32-3,36019769,-581
32-4,36023675,774
32-5,36027581,793
32-6,36031487,-507
32-7,36035393,-744
32-8,36039299,248
32-9,36043205,627
32-10,36047111,-114
32-11,36051017,-708
32-12,36054923,-114
32-13,36058829,740
32-14,36062735,284
32-15,36066641,-893
32-16,36070547,-900
32-17,36074453,318
32-18,36078359,570
32-19,36082265,-544
32-20,36086171,-605
32-21,36090077,579
32-22,36093983,759
32-23,36097889,-443
32-24,36101795,-1282
32-25,36105701,-367
32-26,36109607,823
32-27,36113513,202
32-28,36117419,-937
32-29,36121325,-585
32-30,36125231,409
32-31,36129137,64
32-32,36133043,-604
32-1,36136588,63
32-2,36140494,633
32-3,36144400,192
32-4,36148306,-612
32-5,36152212,-952
32-6,36156118,-248
32-7,36160024,129
32-8,36163930,-566
32-9,36167836,-824
32-10,36171742,46
32-11,36175648,718
32-12,36179554,8
32-13,36183460,-668
32-14,36187366,52
32-15,36191272,901
32-16,36195178,487
32-17,36199084,-622
32-18,36202990,-616
32-19,36206896,475
32-20,36210802,566
32-21,36214708,-389
32-22,36218614,-700
32-23,36222520,160
32-24,36226426,872
32-25,36230332,132
32-26,36234238,-631
32-27,36238144,54
32-28,36242050,599
32-29,36245956,-100
32-30,36249862,-694
32-31,36253768,-394
32-32,36257674,261
32-1,36261586,245
32-2,36265492,-421
32-3,36269398,-421
32-4,36273304,199
32-5,36277210,353
32-6,36281116,-160
32-7,36285022,-309
32-8,36288928,619
32-9,36292834,999
32-10,36296740,-15
32-11,36300646,-840
32-12,36304552,-178
32-13,36308458,1016
32-14,36312364,507
32-15,36316270,-656
32-16,36320176,-375
32-17,36324082,337
32-18,36327988,227
32-19,36331894,-453
32-20,36335800,-465
32-21,36339706,548
32-22,36343612,777
32-23,36347518,-223
32-24,36351424,-558
32-25,36355330,164
32-26,36359236,714
32-27,36363142,366
32-28,36367048,-412
32-29,36370954,-115
32-30,36374860,639
32-31,36378766,-192
32-32,36382672,-1128
32-1,36386584,-287
32-2,36390490,626
32-3,36394396,207
32-4,36398302,-358
32-5,36402208,-212
32-6,36406114,22
32-7,36410020,207
32-8,36413926,90
32-9,36417832,-637
32-10,36421738,-82
32-11,36425644,1378
32-12,36429550,596
32-13,36433456,-798
32-14,36437362,-335
32-15,36441268,129
32-16,36445174,-14
32-17,36449080,-261
32-18,36452986,-633
32-19,36456892,-22
32-20,36460798,720
32-21,36464704,186
32-22,36468610,-192
32-23,36472516,383
32-24,36476422,534
32-25,36480328,-447
32-26,36484234,-998
32-27,36488140,-115
32-28,36492046,635
32-29,36495952,233
32-30,36499858,-585
32-31,36503764,-560
32-32,36507670,165
32-1,36511581,214
32-2,36515487,-225
32-3,36519393,-186
32-4,36523299,341
32-5,36527205,356
32-6,36531111,-299
32-7,36535017,-265
32-8,36538923,233
32-9,36542829,172
32-10,36546735,-319
32-11,36550641,-791
32-12,36554547,-267
32-13,36558453,530
32-14,36562359,-80
32-15,36566265,-928
32-16,36570171,-234
32-17,36574077,1052
32-18,36577983,807
32-19,36581889,-468
32-20,36585795,-779
32-21,36589701,158
32-22,36593607,959
32-23,36597513,118
32-24,36601419,-892
32-25,36605325,-67
32-26,36609231,572
32-27,36613137,-340
32-28,36617043,-994
32-29,36620949,-300
32-30,36624855,470
32-31,36628761,-237
32-32,36632667,-1012
32-1,36636732,-548
32-2,36640638,156
32-3,36644544,466
32-4,36648450,-80
32-5,36652356,-444
32-6,36656262,426
32-7,36660168,751
32-8,36664074,-219
32-9,36667980,-1053
32-10,36671886,-568
32-11,36675792,473
32-12,36679698,349
32-13,36683604,-517
32-14,36687510,-378
32-15,36691416,756
32-16,36695322,631
32-17,36699228,-804
32-18,36703134,-631
32-19,36707040,765
32-20,36710946,801
32-21,36714852,-336
32-22,36718758,-490
32-23,36722664,595
32-24,36726570,609
32-25,36730476,-334
32-26,36734382,-655
32-27,36738288,-192
32-28,36742194,594
32-29,36746100,302
32-30,36750006,-643
32-31,36753912,-267
32-32,36757818,868
32-1,36761607,867
32-2,36765513,-163
32-3,36769419,-364
32-4,36773325,349
32-5,36777231,303
32-6,36781137,-441
32-7,36785043,-481
32-8,36788949,540
32-9,36792855,779
32-10,36796761,-345
32-11,36800667,-697
32-12,36804573,-67
32-13,36808479,394
32-14,36812385,141
32-15,36816291,-601
32-16,36820197,-606
32-17,36824103,-77
32-18,36828009,190
32-19,36831915,13
32-20,36835821,-534
32-21,36839727,-54
32-22,36843633,798
32-23,36847539,20
32-24,36851445,-897
32-25,36855351,90
32-26,36859257,1227
32-27,36863163,346
32-28,36867069,-691
32-29,36870975,-262
32-30,36874881,370
32-31,36878787,340
32-32,36882693,-467
32-1,36886574,-856
32-2,36890480,222
32-3,36894386,773
32-4,36898292,-127
32-5,36902198,-581
32-6,36906104,192
32-7,36910010,640
32-8,36913916,-45
32-9,36917822,-361
32-10,36921728,154
32-11,36925634,479
32-12,36929540,-43
32-13,36933446,-985
32-14,36937352,-460
32-15,36941258,840
32-16,36945164,262
32-17,36949070,-801
32-18,36952976,-604
32-19,36956882,208
32-20,36960788,646
32-21,36964694,-166
32-22,36968600,-755
32-23,36972506,-271
32-24,36976412,-77
32-25,36980318,-191
32-26,36984224,-476
32-27,36988130,-457
32-28,36992036,501
32-29,36995942,562
32-30,36999848,-745
32-31,37003754,-706
32-32,37007660,722
32-1,37011572,464
32-2,37015478,-1020
32-3,37019384,-882
32-4,37023290,382
32-5,37027196,888
32-6,37031102,97
32-7,37035008,-818
32-8,37038914,-176
32-9,37042820,532
32-10,37046726,-208
32-11,37050632,-750
32-12,37054538,-202
32-13,37058444,679
32-14,37062350,435
32-15,37066256,-986
32-16,37070162,-823
32-17,37074068,634
32-18,37077974,455
32-19,37081880,-498
32-20,37085786,-421
32-21,37089692,223
32-22,37093598,561
32-23,37097504,-157
32-24,37101410,-1316
32-25,37105316,-756
32-26,37109222,898
32-27,37113128,600
32-28,37117034,-1010
32-29,37120940,-721
32-30,37124846,569
32-31,37128752,203
32-32,37132658,-455
32-1,37136569,197
32-2,37140475,841
32-3,37144381,480
32-4,37148287,-339
32-5,37152193,-713
32-6,37156099,1
32-7,37160005,520
32-8,37163911,-424
32-9,37167817,-819
32-10,37171723,79
32-11,37175629,294
32-12,37179535,-28
32-13,37183441,-285
32-14,37187347,-239
32-15,37191253,742
32-16,37195159,768
32-17,37199065,-682
32-18,37202971,-649
32-19,37206877,798
32-20,37210783,849
32-21,37214689,-306
32-22,37218595,-905
32-23,37222501,-417
32-24,37226407,460
32-25,37230313,434
32-26,37234219,-424
32-27,37238125,-644
32-28,37242031,-83
32-29,37245937,-157
32-30,37249843,-892
32-31,37253749,-666
32-32,37257655,611
32-1,37261567,835
32-2,37265473,-393
32-3,37269379,-535
32-4,37273285,632
32-5,37277191,570
32-6,37281097,-515
32-7,37285003,-773
32-8,37288909,147
32-9,37292815,720
32-10,37296721,-228
32-11,37300627,-1328
32-12,37304533,-1023
32-13,37308439,374
32-14,37312345,680
32-15,37316251,-477
32-16,37320157,-391
32-17,37324063,885
32-18,37327969,895
32-19,37331875,-346
32-20,37335781,-1024
32-21,37339687,-486
32-22,37343593,123
32-23,37347499,34
32-24,37351405,-621
32-25,37355311,-395
32-26,37359217,578
32-27,37363123,-11
32-28,37367029,-820
32-29,37370935,-1
32-30,37374841,833
32-31,37378747,393
32-32,37382653,-708
32-1,37386565,-787
32-2,37390471,433
32-3,37394377,679
32-4,37398283,-665
32-5,37402189,-930
32-6,37406095,419
32-7,37410001,556
32-8,37413907,-306
32-9,37417813,-330
32-10,37421719,193
32-11,37425625,638
32-12,37429531,-48
32-13,37433437,-739
32-14,37437343,118
32-15,37441249,725
32-16,37445155,393
32-17,37449061,-112
32-18,37452967,-150
32-19,37456873,663
32-20,37460779,496
32-21,37464685,-695
32-22,37468591,-893
32-23,37472497,-298
32-24,37476403,377
32-25,37480309,661
32-26,37484215,196
32-27,37488121,-296
32-28,37492027,166
32-29,37495933,507
32-30,37499839,-427
32-31,37503745,-512
32-32,37507651,574
32-1,37511562,467
32-2,37515468,-580
32-3,37519374,-619
32-4,37523280,537
32-5,37527186,595
32-6,37531092,-614
32-7,37534998,-437
32-8,37538904,802
32-9,37542810,838
32-10,37546716,-266
32-11,37550622,-744
32-12,37554528,93
32-13,37558434,899
32-14,37562340,541
32-15,37566246,-309
32-16,37570152,-473
32-17,37574058,130
32-18,37577964,125
32-19,37581870,-659
32-20,37585776,-609
32-21,37589682,-183
32-22,37593588,-303
32-23,37597494,-325
32-24,37601400,-218
32-25,37605306,234
32-26,37609212,833
32-27,37613118,444
32-28,37617024,-438
32-29,37620930,-379
32-30,37624836,335
32-31,37628742,241
32-32,37632648,-366
32-1,37636560,-393
32-2,37640466,388
32-3,37644372,967
32-4,37648278,-25
32-5,37652184,-688
32-6,37656090,562
32-7,37659996,1114
32-8,37663902,-40
32-9,37667808,-735
32-10,37671714,-110
32-11,37675620,498
32-12,37679526,13
32-13,37683432,-809
32-14,37687338,-680
32-15,37691244,281
32-16,37695150,439
32-17,37699056,-444
32-18,37702962,-578
32-19,37706868,41
32-20,37710774,184
32-21,37714680,-208
32-22,37718586,-411
32-23,37722492,328
32-24,37726398,608
32-25,37730304,-382
32-26,37734210,-651
32-27,37738116,252
32-28,37742022,1091
32-29,37745928,583
32-30,37749834,-456
32-31,37753740,118
32-32,37757646,796
32-1,37761558,342
32-2,37765464,60
32-3,37769370,-187
32-4,37773276,57
32-5,37777182,867
32-6,37781088,119
32-7,37784994,-935
32-8,37788900,389
32-9,37792806,1554
32-10,37796712,412
32-11,37800618,-620
32-12,37804524,-313
32-13,37808430,453
32-14,37812336,312
32-15,37816242,-827
32-16,37820148,-841
32-17,37824054,-30
32-18,37827960,-221
32-19,37831866,-863
32-20,37835772,-790
32-21,37839678,165
32-22,37843584,714
32-23,37847490,-327
32-24,37851396,-1273
32-25,37855302,-270
32-26,37859208,863
32-27,37863114,331
32-28,37867020,-688
32-29,37870926,-958
32-30,37874832,-128
32-31,37878738,785
32-32,37882644,286
32-1,37886555,-340
32-2,37890461,361
32-3,37894367,878
32-4,37898273,131
32-5,37902179,-515
32-6,37906085,-20
32-7,37909991,486
32-8,37913897,-41
32-9,37917803,-572
32-10,37921709,-48
32-11,37925615,412
32-12,37929521,-14
32-13,37933427,-311
32-14,37937333,-245
32-15,37941239,25
32-16,37945145,367
32-17,37949051,-98
32-18,37952957,-572
32-19,37956863,154
32-20,37960769,607
32-21,37964675,-114
32-22,37968581,-480
32-23,37972487,246
32-24,37976393,711
32-25,37980299,-217
32-26,37984205,-1304
32-27,37988111,-537
32-28,37992017,628
32-29,37995923,128
32-30,37999829,-355
32-31,38003735,-92
32-32,38007641,103
32-1,38011553,396
32-2,38015459,-11
32-3,38019365,-665
32-4,38023271,270
32-5,38027177,1259
32-6,38031083,315
32-7,38034989,-666
32-8,38038895,-89
32-9,38042801,509
32-10,38046707,224
32-11,38050613,-241
32-12,38054519,-169
32-13,38058425,448
32-14,38062331,301
32-15,38066237,-634
32-16,38070143,-208
32-17,38074049,1091
32-18,38077955,598
32-19,38081861,-540
32-20,38085767,-187
32-21,38089673,278
32-22,38093579,-10
32-23,38097485,-407
32-24,38101391,-516
32-25,38105297,300
32-26,38109203,832
32-27,38113109,-234
32-28,38117015,-1020
32-29,38120921,-221
32-30,38124827,674
32-31,38128733,405
32-32,38132639,-171
32-1,38136551,39
32-2,38140457,574
32-3,38144363,649
32-4,38148269,77
32-5,38152175,-603
32-6,38156081,-196
32-7,38159987,569
32-8,38163893,-83
32-9,38167799,-732
32-10,38171705,16
32-11,38175611,481
32-12,38179517,66
32-13,38183423,-441
32-14,38187329,-669
32-15,38191235,-307
32-16,38195141,100
32-17,38199047,-184
32-18,38202953,-662
32-19,38206859,-182
32-20,38210765,575
32-21,38214671,61
32-22,38218577,-596
32-23,38222483,82
32-24,38226389,798
32-25,38230295,200
32-26,38234201,-337
32-27,38238107,444
32-28,38242013,704
32-29,38245919,-377
32-30,38249825,-869
32-31,38253731,-275
32-32,38257637,646
32-1,38261579,815
32-2,38265485,-207
32-3,38269391,-535
32-4,38273297,439
32-5,38277203,649
32-6,38281109,-434
32-7,38285015,-909
32-8,38288921,218
32-9,38292827,1231
32-10,38296733,723
32-11,38300639,-24
32-12,38304545,-39
32-13,38308451,201
32-14,38312357,498
32-15,38316263,80
32-16,38320169,-658
32-17,38324075,112
32-18,38327981,745
32-19,38331887,-449
32-20,38335793,-1079
32-21,38339699,-94
32-22,38343605,613
32-23,38347511,-42
32-24,38351417,-695
32-25,38355323,75
32-26,38359229,508
32-27,38363135,-371
32-28,38367041,-412
32-29,38370947,499
32-30,38374853,929
32-31,38378759,515
32-32,38382665,-500
32-1,38386546,-384
32-2,38390452,695
32-3,38394358,699
32-4,38398264,-30
32-5,38402170,-737
32-6,38406076,-173
32-7,38409982,1129
32-8,38413888,70
32-9,38417794,-1390
32-10,38421700,-295
32-11,38425606,771
32-12,38429512,221
32-13,38433418,-541
32-14,38437324,-261
32-15,38441230,803
32-16,38445136,689
32-17,38449042,-351
32-18,38452948,-541
32-19,38456854,-208
32-20,38460760,187
32-21,38464666,88
32-22,38468572,-785
32-23,38472478,-589
32-24,38476384,501
32-25,38480290,175
32-26,38484196,-674
32-27,38488102,-61
32-28,38492008,715
32-29,38495914,317
32-30,38499820,-284
32-31,38503726,-262
32-32,38507632,331
32-1,38511543,392
32-2,38515449,-574
32-3,38519355,-933
32-4,38523261,-52
32-5,38527167,546
32-6,38531073,-327
32-7,38534979,-1090
32-8,38538885,123
32-9,38542791,1175
32-10,38546697,383
32-11,38550603,-534
32-12,38554509,-299
32-13,38558415,161
32-14,38562321,-166
32-15,38566227,-260
32-16,38570133,-112
32-17,38574039,-229
32-18,38577945,-153
32-19,38581851,-785
32-20,38585757,-1104
32-21,38589663,23
32-22,38593569,321
32-23,38597475,-531
32-24,38601381,-796
32-25,38605287,-114
32-26,38609193,512
32-27,38613099,47
32-28,38617005,-848
32-29,38620911,-813
32-30,38624817,-120
32-31,38628723,-65
32-32,38632629,-375
32-1,38636541,-413
32-2,38640447,-40
32-3,38644353,538
32-4,38648259,37
32-5,38652165,-783
32-6,38656071,-271
32-7,38659977,560
32-8,38663883,458
32-9,38667789,-389
32-10,38671695,-380
32-11,38675601,411
32-12,38679507,-159
32-13,38683413,-887
32-14,38687319,-194
32-15,38691225,523
32-16,38695131,535
32-17,38699037,59
32-18,38702943,-535
32-19,38706849,-395
32-20,38710755,63
32-21,38714661,-243
32-22,38718567,-529
32-23,38722473,267
32-24,38726379,830
32-25,38730285,-228
32-26,38734191,-1186
32-27,38738097,-359
32-28,38742003,582
32-29,38745909,166
32-30,38749815,-500
32-31,38753721,-194
32-32,38757627,758
32-1,38761539,601
32-2,38765445,-676
32-3,38769351,-801
32-4,38773257,323
32-5,38777163,679
32-6,38781069,-155
32-7,38784975,-689
32-8,38788881,-178
32-9,38792787,440
32-10,38796693,22
32-11,38800599,-874
32-12,38804505,-538
32-13,38808411,523
32-14,38812317,348
32-15,38816223,-348
32-16,38820129,10
32-17,38824035,334
32-18,38827941,77
32-19,38831847,-85
32-20,38835753,-337
32-21,38839659,21
32-22,38843565,564
32-23,38847471,-249
32-24,38851377,-978
32-25,38855283,-186
32-26,38859189,591
32-27,38863095,180
32-28,38867001,-521
32-29,38870907,-371
32-30,38874813,452
32-31,38878719,366
32-32,38882625,-553
32-1,38886536,-262
32-2,38890442,811
32-3,38894348,864
32-4,38898254,-91
32-5,38902160,-779
32-6,38906066,-75
32-7,38909972,623
32-8,38913878,-112
32-9,38917784,-988
32-10,38921690,-730
32-11,38925596,82
32-12,38929502,-211
32-13,38933408,-1136
32-14,38937314,-640
32-15,38941220,426
32-16,38945126,206
32-17,38949032,-400
32-18,38952938,-234
32-19,38956844,409
32-20,38960750,349
32-21,38964656,-999
32-22,38968562,-1437
32-23,38972468,-39
32-24,38976374,751
32-25,38980280,176
32-26,38984186,-640
32-27,38988092,-535
32-28,38991998,645
32-29,38995904,707
32-30,38999810,-396
32-31,39003716,-95
32-32,39007622,942
32-1,39011595,571
32-2,39015501,-485
32-3,39019407,-681
32-4,39023313,-166
32-5,39027219,44
32-6,39031125,-425
32-7,39035031,-554
32-8,39038937,364
32-9,39042843,672
32-10,39046749,-399
32-11,39050655,-983
32-12,39054561,-244
32-13,39058467,482
32-14,39062373,173
32-15,39066279,-423
32-16,39070185,-491
32-17,39074091,-75
32-18,39077997,358
32-19,39081903,-85
32-20,39085809,-848
32-21,39089715,-460
32-22,39093621,260
32-23,39097527,-141
32-24,39101433,-717
32-25,39105339,-13
32-26,39109245,899
32-27,39113151,345
32-28,39117057,-546
32-29,39120963,-116
32-30,39124869,628
32-31,39128775,458
32-32,39132681,-63
32-1,39136532,-412
32-2,39140438,-73
32-3,39144344,668
32-4,39148250,34
32-5,39152156,-981
32-6,39156062,-94
32-7,39159968,1113
32-8,39163874,533
32-9,39167780,-452
32-10,39171686,-111
32-11,39175592,595
32-12,39179498,558
32-13,39183404,27
32-14,39187310,-216
32-15,39191216,383
32-16,39195122,403
32-17,39199028,-263
32-18,39202934,161
32-19,39206840,515
32-20,39210746,225
32-21,39214652,115
32-22,39218558,-226
32-23,39222464,37
32-24,39226370,611
32-25,39230276,79
32-26,39234182,-685
32-27,39238088,-587
32-28,39241994,249
32-29,39245900,583
32-30,39249806,-168
32-31,39253712,-302
32-32,39257618,335
32-1,39261529,167
32-2,39265435,-289
32-3,39269341,-396
32-4,39273247,-123
32-5,39277153,391
32-6,39281059,0
32-7,39284965,-324
32-8,39288871,476
32-9,39292777,455
32-10,39296683,-279
32-11,39300589,-271
32-12,39304495,-125
32-13,39308401,185
32-14,39312307,584
32-15,39316213,164
32-16,39320119,-138
32-17,39324025,433
32-18,39327931,577
32-19,39331837,-241
32-20,39335743,-681
32-21,39339649,115
32-22,39343555,639
32-23,39347461,-32
32-24,39351367,-779
32-25,39355273,-645
32-26,39359179,365
32-27,39363085,415
32-28,39366991,-837
32-29,39370897,-547
32-30,39374803,635
32-31,39378709,97
32-32,39382615,-589
32-1,39386527,-245
32-2,39390433,0
32-3,39394339,184
32-4,39398245,-153
32-5,39402151,-561
32-6,39406057,700
32-7,39409963,1339
32-8,39413869,-48
32-9,39417775,-783
32-10,39421681,-103
32-11,39425587,726
32-12,39429493,319
32-13,39433399,-598
32-14,39437305,-504
32-15,39441211,-76
32-16,39445117,115
32-17,39449023,-239
32-18,39452929,-340
32-19,39456835,707
32-20,39460741,687
32-21,39464647,-705
32-22,39468553,-878
32-23,39472459,-78
32-24,39476365,45
32-25,39480271,-588
32-26,39484177,-1011
32-27,39488083,-379
32-28,39491989,387
32-29,39495895,-21
32-30,39499801,-830
32-31,39503707,-636
32-32,39507613,463
32-1,39511525,646
32-2,39515431,-683
32-3,39519337,-1097
32-4,39523243,-30
32-5,39527149,133
32-6,39531055,-792
32-7,39534961,-1094
32-8,39538867,-310
32-9,39542773,738
32-10,39546679,378
32-11,39550585,-721
32-12,39554491,-163
32-13,39558397,687
32-14,39562303,165
32-15,39566209,-631
32-16,39570115,-549
32-17,39574021,536
32-18,39577927,724
32-19,39581833,-99
32-20,39585739,-246
32-21,39589645,127
32-22,39593551,803
32-23,39597457,505
32-24,39601363,-561
32-25,39605269,-119
32-26,39609175,567
32-27,39613081,105
32-28,39616987,-753
32-29,39620893,-956
32-30,39624799,70
32-31,39628705,270
32-32,39632611,-634
32-1,39636522,-567
32-2,39640428,12
32-3,39644334,261
32-4,39648240,-218
32-5,39652146,-857
32-6,39656052,-181
32-7,39659958,538
32-8,39663864,-100
32-9,39667770,-745
32-10,39671676,-79
32-11,39675582,813
32-12,39679488,124
32-13,39683394,-817
32-14,39687300,-203
32-15,39691206,370
32-16,39695112,-50
32-17,39699018,-491
32-18,39702924,-599
32-19,39706830,-235
32-20,39710736,111
32-21,39714642,-191
32-22,39718548,-529
32-23,39722454,-285
32-24,39726360,298
32-25,39730266,204
32-26,39734172,-704
32-27,39738078,-703
32-28,39741984,293
32-29,39745890,274
32-30,39749796,-767
32-31,39753702,-479
32-32,39757608,694
32-1,39761611,152
32-2,39765517,-972
32-3,39769423,-991
32-4,39773329,-323
32-5,39777235,300
32-6,39781141,-410
32-7,39785047,-1247
32-8,39788953,-73
32-9,39792859,963
32-10,39796765,38
32-11,39800671,-828
32-12,39804577,-361
32-13,39808483,405
32-14,39812389,527
32-15,39816295,-156
32-16,39820201,-662
32-17,39824107,267
32-18,39828013,958
32-19,39831919,25
32-20,39835825,-593
32-21,39839731,155
32-22,39843637,687
32-23,39847543,-78
32-24,39851449,-661
32-25,39855355,-67
32-26,39859261,609
32-27,39863167,609
32-28,39867073,-4
32-29,39870979,-145
32-30,39874885,632
32-31,39878791,559
32-32,39882697,-697
32-1,39886517,-1042
32-2,39890423,140
32-3,39894329,559
32-4,39898235,-250
32-5,39902141,-329
32-6,39906047,106
32-7,39909953,319
32-8,39913859,210
32-9,39917765,-419
32-10,39921671,-491
32-11,39925577,550
32-12,39929483,734
32-13,39933389,-648
32-14,39937295,-726
32-15,39941201,544
32-16,39945107,262
32-17,39949013,-804
32-18,39952919,-652
32-19,39956825,202
32-20,39960731,281
32-21,39964637,-426
32-22,39968543,-519
32-23,39972449,102
32-24,39976355,473
32-25,39980261,198
32-26,39984167,-419
32-27,39988073,-402
32-28,39991979,377
32-29,39995885,508
32-30,39999791,-304
32-31,40003697,-350
32-32,40007603,649
32-1,40011515,921
32-2,40015421,-301
32-3,40019327,-959
32-4,40023233,558
32-5,40027139,1304
32-6,40031045,-159
32-7,40034951,-1007
32-8,40038857,-243
32-9,40042763,650
32-10,40046669,200
32-11,40050575,-397
32-12,40054481,470
32-13,40058387,851
32-14,40062293,-209
32-15,40066199,-901
32-16,40070105,-305
32-17,40074011,591
32-18,40077917,503
32-19,40081823,69
32-20,40085729,-152
32-21,40089635,-169
32-22,40093541,339
32-23,40097447,72
32-24,40101353,-839
32-25,40105259,-414
32-26,40109165,555
32-27,40113071,474
32-28,40116977,-295
32-29,40120883,-412
32-30,40124789,413
32-31,40128695,401
32-32,40132601,-498
32-1,40136513,-274
32-2,40140419,602
32-3,40144325,351
32-4,40148231,-711
32-5,40152137,-696
32-6,40156043,458
32-7,40159949,868
32-8,40163855,193
32-9,40167761,-509
32-10,40171667,-135
32-11,40175573,868
32-12,40179479,493
32-13,40183385,-999
32-14,40187291,-1109
32-15,40191197,248
32-16,40195103,683
32-17,40199009,13
32-18,40202915,-127
32-19,40206821,669
32-20,40210727,938
32-21,40214633,-333
32-22,40218539,-841
32-23,40222445,285
32-24,40226351,756
32-25,40230257,387
32-26,40234163,-214
32-27,40238069,-319
32-28,40241975,476
32-29,40245881,483
32-30,40249787,-249
32-31,40253693,-312
32-32,40257599,323
32-1,40261510,698
32-2,40265416,75
32-3,40269322,-377
32-4,40273228,285
32-5,40277134,616
32-6,40281040,-88
32-7,40284946,-634
32-8,40288852,-120
32-9,40292758,702
32-10,40296664,288
32-11,40300570,-417
32-12,40304476,127
32-13,40308382,598
32-14,40312288,288
32-15,40316194,-3
32-16,40320100,-239
32-17,40324006,257
32-18,40327912,859
32-19,40331818,-440
32-20,40335724,-1266
32-21,40339630,160
32-22,40343536,544
32-23,40347442,-530
32-24,40351348,-987
32-25,40355254,-489
32-26,40359160,412
32-27,40363066,519
32-28,40366972,-122
32-29,40370878,-490
32-30,40374784,166
32-31,40378690,807
32-32,40382596,-93
32-1,40386508,-511
32-2,40390414,478
32-3,40394320,678
32-4,40398226,-31
32-5,40402132,-481
32-6,40406038,121
32-7,40409944,1163
32-8,40413850,494
32-9,40417756,-838
32-10,40421662,-295
32-11,40425568,735
32-12,40429474,441
32-13,40433380,-482
32-14,40437286,-566
32-15,40441192,395
32-16,40445098,498
32-17,40449004,-370
32-18,40452910,-561
32-19,40456816,267
32-20,40460722,734
32-21,40464628,-295
32-22,40468534,-768
32-23,40472440,70
32-24,40476346,431
32-25,40480252,124
32-26,40484158,-705
32-27,40488064,-913
32-28,40491970,487
32-29,40495876,1030
32-30,40499782,-289
32-31,40503688,-916
32-32,40507594,-188
32-1,40511628,291
32-2,40515534,-437
32-3,40519440,-1231
32-4,40523346,-47
32-5,40527252,997
32-6,40531158,-311
32-7,40535064,-840
32-8,40538970,272
32-9,40542876,635
32-10,40546782,212
32-11,40550688,-343
32-12,40554594,-596
32-13,40558500,-147
32-14,40562406,212
32-15,40566312,-318
32-16,40570218,-587
32-17,40574124,343
32-18,40578030,644
32-19,40581936,-615
32-20,40585842,-1076
32-21,40589748,186
32-22,40593654,564
32-23,40597560,-489
32-24,40601466,-925
32-25,40605372,-427
32-26,40609278,251
32-27,40613184,226
32-28,40617090,-746
32-29,40620996,-841
32-30,40624902,333
32-31,40628808,211
32-32,40632714,-857
32-1,40636503,-515
32-2,40640409,186
32-3,40644315,45
32-4,40648221,-281
32-5,40652127,-766
32-6,40656033,-552
32-7,40659939,647
32-8,40663845,261
32-9,40667751,-1342
32-10,40671657,-964
32-11,40675563,209
32-12,40679469,96
32-13,40683375,-458
32-14,40687281,-607
32-15,40691187,-31
32-16,40695093,-164
32-17,40698999,-1274
32-18,40702905,-1157
32-19,40706811,-32
32-20,40710717,507
32-21,40714623,-162
32-22,40718529,-916
32-23,40722435,-276
32-24,40726341,440
32-25,40730247,-377
32-26,40734153,-1344
32-27,40738059,-581
32-28,40741965,509
32-29,40745871,181
32-30,40749777,-679
32-31,40753683,-829
32-32,40757589,100
32-1,40761501,497
32-2,40765407,-499
32-3,40769313,-861
32-4,40773219,32
32-5,40777125,460
32-6,40781031,-366
32-7,40784937,-953
32-8,40788843,-278
32-9,40792749,551
32-10,40796655,601
32-11,40800561,-316
32-12,40804467,-638
32-13,40808373,359
32-14,40812279,355
32-15,40816185,-509
32-16,40820091,-585
32-17,40823997,128
32-18,40827903,535
32-19,40831809,-523
32-20,40835715,-1051
32-21,40839621,260
32-22,40843527,680
32-23,40847433,-308
32-24,40851339,-816
32-25,40855245,-305
32-26,40859151,695
32-27,40863057,710
32-28,40866963,-224
32-29,40870869,183
32-30,40874775,1383
32-31,40878681,645
32-32,40882587,-596
32-1,40886559,-35
32-2,40890465,830
32-3,40894371,574
32-4,40898277,-152
32-5,40902183,-494
32-6,40906089,-134
32-7,40909995,650
32-8,40913901,706
32-9,40917807,48
32-10,40921713,437
32-11,40925619,1391
32-12,40929525,769
32-13,40933431,-503
32-14,40937337,-322
32-15,40941243,667
32-16,40945149,544
32-17,40949055,-467
32-18,40952961,-332
32-19,40956867,889
32-20,40960773,1249
32-21,40964679,489
32-22,40968585,-173
32-23,40972491,110
32-24,40976397,918
32-25,40980303,731
32-26,40984209,-301
32-27,40988115,-45
32-28,40992021,1355
32-29,40995927,972
32-30,40999833,-762
32-31,41003739,-404
32-32,41007645,856
32-1,41011496,438
32-2,41015402,-522
32-3,41019308,-440
32-4,41023214,853
32-5,41027120,1191
32-6,41031026,-142
32-7,41034932,-497
32-8,41038838,407
32-9,41042744,1204
32-10,41046650,943
32-11,41050556,-571
32-12,41054462,-680
32-13,41058368,1150
32-14,41062274,1708
32-15,41066180,170
32-16,41070086,-910
32-17,41073992,241
32-18,41077898,1265
32-19,41081804,303
32-20,41085710,-565
32-21,41089616,-211
32-22,41093522,588
32-23,41097428,348
32-24,41101334,-771
32-25,41105240,2
32-26,41109146,1339
32-27,41113052,338
32-28,41116958,-1003
32-29,41120864,-517
32-30,41124770,885
32-31,41128676,730
32-32,41132582,-772
32-1,41136494,-504
32-2,41140400,944
32-3,41144306,980
32-4,41148212,40
32-5,41152118,-420
32-6,41156024,205
32-7,41159930,932
32-8,41163836,140
32-9,41167742,-948
32-10,41171648,-199
32-11,41175554,988
32-12,41179460,495
32-13,41183366,-655
32-14,41187272,-633
32-15,41191178,419
32-16,41195084,522
32-17,41198990,-987
32-18,41202896,-1220
32-19,41206802,438
32-20,41210708,477
32-21,41214614,-721
32-22,41218520,-552
32-23,41222426,167
32-24,41226332,690
32-25,41230238,390
32-26,41234144,-1003
32-27,41238050,-946
32-28,41241956,654
32-29,41245862,443
32-30,41249768,-1216
32-31,41253674,-1197
32-32,41257580,32
32-1,41261644,148
32-2,41265550,-828
32-3,41269456,-1239
32-4,41273362,-111
32-5,41277268,789
32-6,41281174,-43
32-7,41285080,-891
32-8,41288986,-505
32-9,41292892,209
32-10,41296798,-111
32-11,41300704,-1179
32-12,41304610,-1224
32-13,41308516,-181
32-14,41312422,315
32-15,41316328,-684
32-16,41320234,-1783
32-17,41324140,-1001
32-18,41328046,-150
32-19,41331952,-1342
32-20,41335858,-2331
32-21,41339764,-1071
32-22,41343670,301
32-23,41347576,-520
32-24,41351482,-1625
32-25,41355388,-887
32-26,41359294,-47
32-27,41363200,-857
32-28,41367106,-2088
32-29,41371012,-1735
32-30,41374918,-264
32-31,41378824,-236
32-32,41382730,-1414
32-1,41386489,-1545
32-2,41390395,-885
32-3,41394301,-722
32-4,41398207,-1103
32-5,41402113,-1402
32-6,41406019,-1026
32-7,41409925,-298
32-8,41413831,-312
32-9,41417737,-1260
32-10,41421643,-1379
32-11,41425549,-147
32-12,41429455,-273
32-13,41433361,-1809
32-14,41437267,-1667
32-15,41441173,-193
32-16,41445079,-109
32-17,41448985,-1107
32-18,41452891,-1285
32-19,41456797,-427
32-20,41460703,-32
32-21,41464609,-1212
32-22,41468515,-2002
32-23,41472421,-938
32-24,41476327,-190
32-25,41480233,-974
32-26,41484139,-2002
32-27,41488045,-1333
32-28,41491951,585
32-29,41495857,211
32-30,41499763,-1719
32-31,41503669,-1437
32-32,41507575,171
32-1,41511609,319
32-2,41515515,-808
32-3,41519421,-1460
32-4,41523327,-816
32-5,41527233,239
32-6,41531139,-312
32-7,41535045,-1666
32-8,41538951,-1130
32-9,41542857,-40
32-10,41546763,-530
32-11,41550669,-1372
32-12,41554575,-1080
32-13,41558481,-11
32-14,41562387,82
32-15,41566293,-928
32-16,41570199,-1233
32-17,41574105,-283
32-18,41578011,254
32-19,41581917,-830
32-20,41585823,-1478
32-21,41589729,-352
32-22,41593635,404
32-23,41597541,-305
32-24,41601447,-1135
32-25,41605353,-763
32-26,41609259,389
32-27,41613165,125
32-28,41617071,-1290
32-29,41620977,-1078
32-30,41624883,278
32-31,41628789,279
32-32,41632695,-530
32-1,41636484,-499
32-2,41640390,243
32-3,41644296,411
32-4,41648202,-401
32-5,41652108,-895
32-6,41656014,-477
32-7,41659920,68
32-8,41663826,-144
32-9,41667732,-523
32-10,41671638,-83
32-11,41675544,264
32-12,41679450,-82
32-13,41683356,-822
32-14,41687262,-1174
32-15,41691168,113
32-16,41695074,1122
32-17,41698980,-225
32-18,41702886,-1054
32-19,41706792,242
32-20,41710698,656
32-21,41714604,-499
32-22,41718510,-759
32-23,41722416,154
32-24,41726322,640
32-25,41730228,112
32-26,41734134,-610
32-27,41738040,-398
32-28,41741946,415
32-29,41745852,234
32-30,41749758,-449
32-31,41753664,-70
32-32,41757570,628
32-1,41761482,848
32-2,41765388,294
32-3,41769294,-786
32-4,41773200,-417
32-5,41777106,637
32-6,41781012,174
32-7,41784918,-512
32-8,41788824,-9
32-9,41792730,295
32-10,41796636,-376
32-11,41800542,-425
32-12,41804448,409
32-13,41808354,875
32-14,41812260,452
32-15,41816166,-493
32-16,41820072,-599
32-17,41823978,430
32-18,41827884,847
32-19,41831790,-14
32-20,41835696,-480
32-21,41839602,382
32-22,41843508,1036
32-23,41847414,-17
32-24,41851320,-1006
32-25,41855226,215
32-26,41859132,1489
32-27,41863038,866
32-28,41866944,-203
32-29,41870850,-315
32-30,41874756,798
32-31,41878662,1257
32-32,41882568,25
32-1,41886480,-291
32-2,41890386,1037
32-3,41894292,1277
32-4,41898198,-240
32-5,41902104,-956
32-6,41906010,341
32-7,41909916,1575
32-8,41913822,848
32-9,41917728,-434
32-10,41921634,96
32-11,41925540,1231
32-12,41929446,528
32-13,41933352,-714
32-14,41937258,-500
32-15,41941164,359
32-16,41945070,470
32-17,41948976,-59
32-18,41952882,-285
32-19,41956788,351
32-20,41960694,1127
32-21,41964600,507
32-22,41968506,-629
32-23,41972412,180
32-24,41976318,1412
32-25,41980224,878
32-26,41984130,173
32-27,41988036,346
32-28,41991942,898
32-29,41995848,867
32-30,41999754,-152
32-31,42003660,-344
32-32,42007566,591
32-1,42011660,626
32-2,42015566,-126
32-3,42019472,-258
32-4,42023378,364
32-5,42027284,867
32-6,42031190,407
32-7,42035096,78
32-8,42039002,900
32-9,42042908,1095
32-10,42046814,270
32-11,42050720,-193
32-12,42054626,-362
32-13,42058532,161
32-14,42062438,813
32-15,42066344,3
32-16,42070250,-534
32-17,42074156,694
32-18,42078062,1111
32-19,42081968,-292
32-20,42085874,-887
32-21,42089780,309
32-22,42093686,1138
32-23,42097592,259
32-24,42101498,-595
32-25,42105404,-285
32-26,42109310,28
32-27,42113216,-102
32-28,42117122,-562
32-29,42121028,-842
32-30,42124934,222
32-31,42128840,1008
32-32,42132746,-9
32-1,42136627,-590
32-2,42140533,251
32-3,42144439,711
32-4,42148345,253
32-5,42152251,-96
32-6,42156157,-29
32-7,42160063,332
32-8,42163969,409
32-9,42167875,-237
32-10,42171781,39
32-11,42175687,1169
32-12,42179593,972
32-13,42183499,255
32-14,42187405,180
32-15,42191311,504
32-16,42195217,802
32-17,42199123,85
32-18,42203029,-441
32-19,42206935,697
32-20,42210841,1487
32-21,42214747,600
32-22,42218653,-307
32-23,42222559,-114
32-24,42226465,430
32-25,42230371,226
32-26,42234277,-318
32-27,42238183,274
32-28,42242089,1121
32-29,42245995,648
32-30,42249901,98
32-31,42253807,424
32-32,42257713,748
32-1,42261472,446
32-2,42265378,-101
32-3,42269284,-133
32-4,42273190,443
32-5,42277096,689
32-6,42281002,61
32-7,42284908,-401
32-8,42288814,-6
32-9,42292720,572
32-10,42296626,745
32-11,42300532,155
32-12,42304438,-280
32-13,42308344,583
32-14,42312250,974
32-15,42316156,-19
32-16,42320062,-409
32-17,42323968,399
32-18,42327874,898
32-19,42331780,93
32-20,42335686,-763
32-21,42339592,16
32-22,42343498,913
32-23,42347404,14
32-24,42351310,-773
32-25,42355216,-33
32-26,42359122,717
32-27,42363028,619
32-28,42366934,-282
32-29,42370840,-1042
32-30,42374746,-116
32-31,42378652,851
32-32,42382558,-105
32-1,42386470,-606
32-2,42390376,692
32-3,42394282,1160
32-4,42398188,143
32-5,42402094,-315
32-6,42406000,318
32-7,42409906,921
32-8,42413812,364
32-9,42417718,-558
32-10,42421624,-256
32-11,42425530,351
32-12,42429436,208
32-13,42433342,48
32-14,42437248,145
32-15,42441154,424
32-16,42445060,513
32-17,42448966,-74
32-18,42452872,-307
32-19,42456778,417
32-20,42460684,983
32-21,42464590,525
32-22,42468496,-479
32-23,42472402,-100
32-24,42476308,977
32-25,42480214,219
32-26,42484120,-755
32-27,42488026,29
32-28,42491932,1188
32-29,42495838,973
32-30,42499744,-300
32-31,42503650,-408
32-32,42507556,702
32-1,42511468,830
32-2,42515374,-206
32-3,42519280,-859
32-4,42523186,74
32-5,42527092,1195
32-6,42530998,205
32-7,42534904,-1085
32-8,42538810,-240
32-9,42542716,584
32-10,42546622,-168
32-11,42550528,-603
32-12,42554434,-155
32-13,42558340,505
32-14,42562246,633
32-15,42566152,-513
32-16,42570058,-1018
32-17,42573964,161
32-18,42577870,608
32-19,42581776,-175
32-20,42585682,-459
32-21,42589588,14
32-22,42593494,215
32-23,42597400,-90
32-24,42601306,-493
32-25,42605212,-531
32-26,42609118,270
32-27,42613024,773
32-28,42616930,200
32-29,42620836,54
32-30,42624742,666
32-31,42628648,747
32-32,42632554,120
32-1,42636465,-308
32-2,42640371,136
32-3,42644277,633
32-4,42648183,-47
32-5,42652089,-741
32-6,42655995,108
32-7,42659901,799
32-8,42663807,136
32-9,42667713,-497
32-10,42671619,-268
32-11,42675525,511
32-12,42679431,304
32-13,42683337,-739
32-14,42687243,-329
32-15,42691149,600
32-16,42695055,198
32-17,42698961,-496
32-18,42702867,-273
32-19,42706773,457
32-20,42710679,123
32-21,42714585,-833
32-22,42718491,-842
32-23,42722397,-445
32-24,42726303,203
32-25,42730209,728
32-26,42734115,63
32-27,42738021,-365
32-28,42741927,413
32-29,42745833,472
32-30,42749739,-529
32-31,42753645,-501
32-32,42757551,322
32-1,42761829,166
32-2,42765735,-370
32-3,42769641,-462
32-4,42773547,-121
32-5,42777453,395
32-6,42781359,264
32-7,42785265,-221
32-8,42789171,-346
32-9,42793077,248
32-10,42796983,545
32-11,42800889,-567
32-12,42804795,-734
32-13,42808701,724
32-14,42812607,992
32-15,42816513,-106
32-16,42820419,-646
32-17,42824325,331
32-18,42828231,962
32-19,42832137,-403
32-20,42836043,-1107
32-21,42839949,-197
32-22,42843855,199
32-23,42847761,-133
32-24,42851667,-387
32-25,42855573,-87
32-26,42859479,545
32-27,42863385,455
32-28,42867291,-106
32-29,42871197,9
32-30,42875103,371
32-31,42879009,247
32-32,42882915,-239
32-1,42886461,-849
32-2,42890367,-481
32-3,42894273,598
32-4,42898179,199
32-5,42902085,-738
32-6,42905991,-176
32-7,42909897,519
32-8,42913803,185
32-9,42917709,-488
32-10,42921615,-515
32-11,42925521,581
32-12,42929427,718
32-13,42933333,-540
32-14,42937239,-294
32-15,42941145,517
32-16,42945051,135
32-17,42948957,-238
32-18,42952863,-559
32-19,42956769,-9
32-20,42960675,863
32-21,42964581,-191
32-22,42968487,-1011
32-23,42972393,133
32-24,42976299,960
32-25,42980205,151
32-26,42984111,-1021
32-27,42988017,-974
32-28,42991923,74
32-29,42995829,335
32-30,42999735,-722
32-31,43003641,-1116
32-32,43007547,-111
32-1,43011458,308
32-2,43015364,-214
32-3,43019270,-640
32-4,43023176,-274
32-5,43027082,708
32-6,43030988,424
32-7,43034894,-667
32-8,43038800,-292
32-9,43042706,744
32-10,43046612,494
32-11,43050518,-414
32-12,43054424,-197
32-13,43058330,902
32-14,43062236,1034
32-15,43066142,-62
32-16,43070048,-668
32-17,43073954,180
32-18,43077860,632
32-19,43081766,-216
32-20,43085672,-491
32-21,43089578,97
32-22,43093484,864
32-23,43097390,732
32-24,43101296,-724
32-25,43105202,-896
32-26,43109108,151
32-27,43113014,-9
32-28,43116920,-507
32-29,43120826,-388
32-30,43124732,196
32-31,43128638,699
32-32,43132544,-12
32-1,43136456,-177
32-2,43140362,1055
32-3,43144268,896
32-4,43148174,-359
32-5,43152080,-384
32-6,43155986,506
32-7,43159892,841
32-8,43163798,117
32-9,43167704,-376
32-10,43171610,105
32-11,43175516,328
32-12,43179422,82
32-13,43183328,-126
32-14,43187234,-142
32-15,43191140,457
32-16,43195046,611
32-17,43198952,-420
32-18,43202858,-677
32-19,43206764,412
32-20,43210670,889
32-21,43214576,180
32-22,43218482,-628
32-23,43222388,-188
32-24,43226294,864
32-25,43230200,412
32-26,43234106,-584
32-27,43238012,-312
32-28,43241918,381
32-29,43245824,329
32-30,43249730,-248
32-31,43253636,-442
32-32,43257542,-72
32-1,43261453,356
32-2,43265359,-68
32-3,43269265,-1293
32-4,43273171,-883
32-5,43277077,338
32-6,43280983,-347
32-7,43284889,-953
32-8,43288795,-132
32-9,43292701,608
32-10,43296607,39
32-11,43300513,-1126
32-12,43304419,-741
32-13,43308325,24
32-14,43312231,-327
32-15,43316137,-519
32-16,43320043,-452
32-17,43323949,22
32-18,43327855,621
32-19,43331761,-186
32-20,43335667,-1193
32-21,43339573,-669
32-22,43343479,313
32-23,43347385,206
32-24,43351291,-747
32-25,43355197,-698
32-26,43359103,280
32-27,43363009,-108
32-28,43366915,-1074
32-29,43370821,-501
32-30,43374727,630
32-31,43378633,482
32-32,43382539,-870
32-1,43386451,-1196
32-2,43390357,161
32-3,43394263,627
32-4,43398169,-228
32-5,43402075,-871
32-6,43405981,-634
32-7,43409887,280
32-8,43413793,183
32-9,43417699,-619
32-10,43421605,-182
32-11,43425511,518
32-12,43429417,83
32-13,43433323,-521
32-14,43437229,-250
32-15,43441135,652
32-16,43445041,652
32-17,43448947,-555
32-18,43452853,-566
32-19,43456759,629
32-20,43460665,542
32-21,43464571,-234
32-22,43468477,-214
32-23,43472383,423
32-24,43476289,944
32-25,43480195,419
32-26,43484101,-354
32-27,43488007,-129
32-28,43491913,709
32-29,43495819,818
32-30,43499725,-504
32-31,43503631,-923
32-32,43507537,758
32-1,43511601,1349
32-2,43515507,-72
32-3,43519413,-757
32-4,43523319,281
32-5,43527225,971
32-6,43531131,123
32-7,43535037,-402
32-8,43538943,290
32-9,43542849,1063
32-10,43546755,732
32-11,43550661,-641
32-12,43554567,-887
32-13,43558473,233
32-14,43562379,512
32-15,43566285,-188
32-16,43570191,-371
32-17,43574097,432
32-18,43578003,681
32-19,43581909,-447
32-20,43585815,-975
32-21,43589721,150
32-22,43593627,973
32-23,43597533,285
32-24,43601439,-403
32-25,43605345,-234
32-26,43609251,238
32-27,43613157,527
32-28,43617063,-64
32-29,43620969,-801
32-30,43624875,-187
32-31,43628781,472
32-32,43632687,-257
32-1,43636446,-840
32-2,43640352,-274
32-3,43644258,216
32-4,43648164,-164
32-5,43652070,-502
32-6,43655976,71
32-7,43659882,637
32-8,43663788,442
32-9,43667694,-188
32-10,43671600,-610
32-11,43675506,208
32-12,43679412,623
32-13,43683318,-688
32-14,43687224,-716
32-15,43691130,748
32-16,43695036,916
32-17,43698942,-6
32-18,43702848,-661
32-19,43706754,-146
32-20,43710660,823
32-21,43714566,453
32-22,43718472,-617
32-23,43722378,-489
32-24,43726284,448
32-25,43730190,196
32-26,43734096,-764
32-27,43738002,-580
32-28,43741908,420
32-29,43745814,614
32-30,43749720,-368
32-31,43753626,-599
32-32,43757532,538
32-1,43761444,749
32-2,43765350,-381
32-3,43769256,-583
32-4,43773162,293
32-5,43777068,251
32-6,43780974,-333
32-7,43784880,-600
32-8,43788786,-456
32-9,43792692,639
32-10,43796598,691
32-11,43800504,-600
32-12,43804410,-508
32-13,43808316,406
32-14,43812222,532
32-15,43816128,-367
32-16,43820034,-1041
32-17,43823940,374
32-18,43827846,1248
32-19,43831752,-515
32-20,43835658,-1180
32-21,43839564,253
32-22,43843470,691
32-23,43847376,-49
32-24,43851282,-727
32-25,43855188,-610
32-26,43859094,431
32-27,43863000,566
32-28,43866906,-493
32-29,43870812,-611
32-30,43874718,541
32-31,43878624,908
32-32,43882530,-256
32-1,43886442,-735
32-2,43890348,376
32-3,43894254,750
32-4,43898160,-256
32-5,43902066,-695
32-6,43905972,234
32-7,43909878,1213
32-8,43913784,665
32-9,43917690,-700
32-10,43921596,-579
32-11,43925502,731
32-12,43929408,568
32-13,43933314,-750
32-14,43937220,-499
32-15,43941126,719
32-16,43945032,435
32-17,43948938,-606
32-18,43952844,-780
32-19,43956750,-339
32-20,43960656,222
32-21,43964562,110
32-22,43968468,-939
32-23,43972374,-869
32-24,43976280,591
32-25,43980186,515
32-26,43984092,-782
32-27,43987998,-478
32-28,43991904,582
32-29,43995810,380
32-30,43999716,-257
32-31,44003622,-425
32-32,44007528,-33
32-1,44011439,421
32-2,44015345,-87
32-3,44019251,-660
32-4,44023157,-151
32-5,44027063,651
32-6,44030969,595
32-7,44034875,-180
32-8,44038781,-301
32-9,44042687,346
32-10,44046593,207
32-11,44050499,-805
32-12,44054405,-443
32-13,44058311,843
32-14,44062217,291
32-15,44066123,-564
32-16,44070029,-443
32-17,44073935,-286
32-18,44077841,309
32-19,44081747,17
32-20,44085653,-723
32-21,44089559,209
32-22,44093465,850
32-23,44097371,-193
32-24,44101277,-837
32-25,44105183,-62
32-26,44109089,496
32-27,44112995,143
32-28,44116901,-202
32-29,44120807,-216
32-30,44124713,296
32-31,44128619,531
32-32,44132525,-262
32-1,44136437,-570
32-2,44140343,464
32-3,44144249,1225
32-4,44148155,166
32-5,44152061,-1071
32-6,44155967,-400
32-7,44159873,591
32-8,44163779,95
32-9,44167685,-939
32-10,44171591,-695
32-11,44175497,526
32-12,44179403,592
32-13,44183309,-384
32-14,44187215,-479
32-15,44191121,417
32-16,44195027,493
32-17,44198933,-532
32-18,44202839,-857
32-19,44206745,-65
32-20,44210651,580
32-21,44214557,137
32-22,44218463,-437
32-23,44222369,144
32-24,44226275,548
32-25,44230181,-105
32-26,44234087,-666
32-27,44237993,-656
32-28,44241899,-324
32-29,44245805,-77
32-30,44249711,-180
32-31,44253617,-261
32-32,44257523,150
32-1,44261618,440
32-2,44265524,-258
32-3,44269430,-1086
32-4,44273336,-423
32-5,44277242,571
32-6,44281148,-201
32-7,44285054,-905
32-8,44288960,28
32-9,44292866,566
32-10,44296772,156
32-11,44300678,-98
32-12,44304584,-78
32-13,44308490,382
32-14,44312396,717
32-15,44316302,-140
32-16,44320208,-839
32-17,44324114,205
32-18,44328020,946
32-19,44331926,56
32-20,44335832,-386
32-21,44339738,270
32-22,44343644,880
32-23,44347550,463
32-24,44351456,-628
32-25,44355362,-484
32-26,44359268,692
32-27,44363174,678
32-28,44367080,-535
32-29,44370986,-847
32-30,44374892,20
32-31,44378798,388
32-32,44382704,-133
32-1,44386432,-621
32-2,44390338,-185
32-3,44394244,652
32-4,44398150,218
32-5,44402056,-541
32-6,44405962,33
32-7,44409868,757
32-8,44413774,410
32-9,44417680,-447
32-10,44421586,-503
32-11,44425492,197
32-12,44429398,130
32-13,44433304,-555
32-14,44437210,-586
32-15,44441116,-35
32-16,44445022,160
32-17,44448928,-384
32-18,44452834,-679
32-19,44456740,-71
32-20,44460646,340
32-21,44464552,-43
32-22,44468458,-283
32-23,44472364,320
32-24,44476270,837
32-25,44480176,211
32-26,44484082,-643
32-27,44487988,-257
32-28,44491894,854
32-29,44495800,658
32-30,44499706,-276
32-31,44503612,-41
32-32,44507518,547
32-1,44511430,506
32-2,44515336,-231
32-3,44519242,-977
32-4,44523148,-102
32-5,44527054,1110
32-6,44530960,480
32-7,44534866,-573
32-8,44538772,-150
32-9,44542678,710
32-10,44546584,429
32-11,44550490,8
32-12,44554396,167
32-13,44558302,520
32-14,44562208,944
32-15,44566114,493
32-16,44570020,-245
32-17,44573926,352
32-18,44577832,837
32-19,44581738,-305
32-20,44585644,-647
32-21,44589550,710
32-22,44593456,522
32-23,44597362,-659
32-24,44601268,-352
32-25,44605174,38
32-26,44609080,398
32-27,44612986,691
32-28,44616892,-275
32-29,44620798,-501
32-30,44624704,489
32-31,44628610,480
32-32,44632516,-480
32-1,44636427,-798
32-2,44640333,384
32-3,44644239,1056
32-4,44648145,-406
32-5,44652051,-1190
32-6,44655957,128
32-7,44659863,1045
32-8,44663769,214
32-9,44667675,-736
32-10,44671581,-66
32-11,44675487,1120
32-12,44679393,673
32-13,44683299,-670
32-14,44687205,-541
32-15,44691111,540
32-16,44695017,398
32-17,44698923,-273
32-18,44702829,-249
32-19,44706735,154
32-20,44710641,792
32-21,44714547,483
32-22,44718453,-672
32-23,44722359,-336
32-24,44726265,622
32-25,44730171,124
32-26,44734077,-571
32-27,44737983,-377
32-28,44741889,221
32-29,44745795,331
32-30,44749701,-581
32-31,44753607,-618
32-32,44757513,485
32-1,44761425,154
32-2,44765331,-635
32-3,44769237,-169
32-4,44773143,434
32-5,44777049,633
32-6,44780955,53
32-7,44784861,-629
32-8,44788767,-156
32-9,44792673,369
32-10,44796579,118
32-11,44800485,-350
32-12,44804391,-341
32-13,44808297,462
32-14,44812203,584
32-15,44816109,-575
32-16,44820015,-734
32-17,44823921,464
32-18,44827827,602
32-19,44831733,-394
32-20,44835639,-498
32-21,44839545,364
32-22,44843451,718
32-23,44847357,45
32-24,44851263,-773
32-25,44855169,-411
32-26,44859075,939
32-27,44862981,1087
32-28,44866887,-256
32-29,44870793,-465
32-30,44874699,622
32-31,44878605,399
32-32,44882511,-859
32-1,44886423,-692
32-2,44890329,442
32-3,44894235,421
32-4,44898141,-481
32-5,44902047,-509
32-6,44905953,368
32-7,44909859,654
32-8,44913765,17
32-9,44917671,-556
32-10,44921577,-413
32-11,44925483,647
32-12,44929389,1080
32-13,44933295,-393
32-14,44937201,-826
32-15,44941107,579
32-16,44945013,557
32-17,44948919,-578
32-18,44952825,-680
32-19,44956731,203
32-20,44960637,659
32-21,44964543,-137
32-22,44968449,-557
32-23,44972355,268
32-24,44976261,579
32-25,44980167,-230
32-26,44984073,-667
32-27,44987979,40
32-28,44991885,802
32-29,44995791,433
32-30,44999697,-353
32-31,45003603,-345
32-32,45007509,113
32-1,45011420,352
32-2,45015326,130
32-3,45019232,-149
32-4,45023138,279
32-5,45027044,504
32-6,45030950,-186
32-7,45034856,-619
32-8,45038762,-14
32-9,45042668,585
32-10,45046574,155
32-11,45050480,-94
32-12,45054386,284
32-13,45058292,649
32-14,45062198,736
32-15,45066104,-193
32-16,45070010,-536
32-17,45073916,506
32-18,45077822,502
32-19,45081728,-258
32-20,45085634,-205
32-21,45089540,214
32-22,45093446,314
32-23,45097352,47
32-24,45101258,-394
32-25,45105164,-635
32-26,45109070,-95
32-27,45112976,244
32-28,45116882,-310
32-29,45120788,-258
32-30,45124694,437
32-31,45128600,231
32-32,45132506,-589
32-1,45136418,-713
32-2,45140324,-230
32-3,45144230,330
32-4,45148136,311
32-5,45152042,-469
32-6,45155948,-143
32-7,45159854,895
32-8,45163760,306
32-9,45167666,-835
32-10,45171572,-404
32-11,45175478,743
32-12,45179384,668
32-13,45183290,-192
32-14,45187196,-372
32-15,45191102,417
32-16,45195008,629
32-17,45198914,-405
32-18,45202820,-634
32-19,45206726,38
32-20,45210632,328
32-21,45214538,143
32-22,45218444,-349
32-23,45222350,-68
32-24,45226256,351
32-25,45230162,-239
32-26,45234068,-430
32-27,45237974,30
32-28,45241880,349
32-29,45245786,413
32-30,45249692,-187
32-31,45253598,-678
32-32,45257504,133
32-1,45261416,807
32-2,45265322,-148
32-3,45269228,-1003
32-4,45273134,-42
32-5,45277040,794
32-6,45280946,-199
32-7,45284852,-830
32-8,45288758,63
32-9,45292664,612
32-10,45296570,68
32-11,45300476,-545
32-12,45304382,-37
32-13,45308288,1056
32-14,45312194,709
32-15,45316100,-462
32-16,45320006,-392
32-17,45323912,283
32-18,45327818,222
32-19,45331724,-372
32-20,45335630,-538
32-21,45339536,120
32-22,45343442,551
32-23,45347348,95
32-24,45351254,-552
32-25,45355160,-378
32-26,45359066,319
32-27,45362972,-53
32-28,45366878,-871
32-29,45370784,-327
32-30,45374690,834
32-31,45378596,592
32-32,45382502,-767
32-1,45386413,-901
32-2,45390319,-6
32-3,45394225,-73
32-4,45398131,-665
32-5,45402037,-689
32-6,45405943,108
32-7,45409849,775
32-8,45413755,-292
32-9,45417661,-1316
32-10,45421567,-615
32-11,45425473,6
32-12,45429379,113
32-13,45433285,100
32-14,45437191,-29
32-15,45441097,14
32-16,45445003,-143
32-17,45448909,-353
32-18,45452815,-710
32-19,45456721,-339
32-20,45460627,650
32-21,45464533,-34
32-22,45468439,-696
32-23,45472345,223
32-24,45476251,793
32-25,45480157,379
32-26,45484063,-629
32-27,45487969,-589
32-28,45491875,627
32-29,45495781,192
32-30,45499687,-1106
32-31,45503593,-708
32-32,45507499,363
32-1,45511411,468
32-2,45515317,-138
32-3,45519223,-377
32-4,45523129,357
32-5,45527035,803
32-6,45530941,-28
32-7,45534847,-611
32-8,45538753,-3
32-9,45542659,583
32-10,45546565,90
32-11,45550471,-767
32-12,45554377,-646
32-13,45558283,444
32-14,45562189,745
32-15,45566095,-468
32-16,45570001,-752
32-17,45573907,371
32-18,45577813,268
32-19,45581719,-666
32-20,45585625,-612
32-21,45589531,47
32-22,45593437,452
32-23,45597343,117
32-24,45601249,-422
32-25,45605155,10
32-26,45609061,722
32-27,45612967,456
32-28,45616873,-363
32-29,45620779,-599
32-30,45624685,276
32-31,45628591,767
32-32,45632497,-91
32-1,45636408,-440
32-2,45640314,404
32-3,45644220,827
32-4,45648126,-47
32-5,45652032,-976
32-6,45655938,-355
32-7,45659844,829
32-8,45663750,615
32-9,45667656,-624
32-10,45671562,-541
32-11,45675468,703
32-12,45679374,363
32-13,45683280,-825
32-14,45687186,-605
32-15,45691092,219
32-16,45694998,349
32-17,45698904,-54
32-18,45702810,-623
32-19,45706716,-331
32-20,45710622,788
32-21,45714528,269
32-22,45718434,-1128
32-23,45722340,-557
32-24,45726246,458
32-25,45730152,2
32-26,45734058,-541
32-27,45737964,-327
32-28,45741870,9
32-29,45745776,236
32-30,45749682,-345
32-31,45753588,-1127
32-32,45757494,-68
32-1,45761406,791
32-2,45765312,-231
32-3,45769218,-410
32-4,45773124,608
32-5,45777030,829
32-6,45780936,-64
32-7,45784842,-783
32-8,45788748,-21
32-9,45792654,1039
32-10,45796560,636
32-11,45800466,-353
32-12,45804372,-326
32-13,45808278,583
32-14,45812184,848
32-15,45816090,-130
32-16,45819996,-632
32-17,45823902,443
32-18,45827808,907
32-19,45831714,-350
32-20,45835620,-906
32-21,45839526,3
32-22,45843432,442
32-23,45847338,12
32-24,45851244,-386
32-25,45855150,-243
32-26,45859056,230
32-27,45862962,137
32-28,45866868,-235
32-29,45870774,-230
32-30,45874680,54
32-31,45878586,194
32-32,45882492,-609
32-1,45886404,-1232
32-2,45890310,-247
32-3,45894216,185
32-4,45898122,-950
32-5,45902028,-1063
32-6,45905934,201
32-7,45909840,727
32-8,45913746,226
32-9,45917652,-396
32-10,45921558,-328
32-11,45925464,370
32-12,45929370,378
32-13,45933276,-109
32-14,45937182,-129
32-15,45941088,149
32-16,45944994,244
32-17,45948900,-231
32-18,45952806,-547
32-19,45956712,7
32-20,45960618,296
32-21,45964524,20
32-22,45968430,-35
32-23,45972336,117
32-24,45976242,515
32-25,45980148,346
32-26,45984054,-676
32-27,45987960,-496
32-28,45991866,737
32-29,45995772,394
32-30,45999678,-745
32-31,46003584,-512
32-32,46007490,431
32-1,46011401,535
32-2,46015307,-356
32-3,46019213,-799
32-4,46023119,-85
32-5,46027025,281
32-6,46030931,-321
32-7,46034837,-735
32-8,46038743,-477
32-9,46042649,188
32-10,46046555,83
32-11,46050461,-1101
32-12,46054367,-810
32-13,46058273,986
32-14,46062179,844
32-15,46066085,-736
32-16,46069991,-887
32-17,46073897,84
32-18,46077803,329
32-19,46081709,-486
32-20,46085615,-799
32-21,46089521,-13
32-22,46093427,457
32-23,46097333,57
32-24,46101239,-335
32-25,46105145,-129
32-26,46109051,271
32-27,46112957,-101
32-28,46116863,-919
32-29,46120769,-628
32-30,46124675,319
32-31,46128581,-37
32-32,46132487,-892
32-1,46136399,-654
32-2,46140305,87
32-3,46144211,547
32-4,46148117,97
32-5,46152023,-492
32-6,46155929,105
32-7,46159835,456
32-8,46163741,-210
32-9,46167647,-494
32-10,46171553,-57
32-11,46175459,666
32-12,46179365,737
32-13,46183271,-53
32-14,46187177,-235
32-15,46191083,480
32-16,46194989,666
32-17,46198895,-140
32-18,46202801,-547
32-19,46206707,184
32-20,46210613,762
32-21,46214519,137
32-22,46218425,-942
32-23,46222331,-1011
32-24,46226237,-21
32-25,46230143,102
32-26,46234049,-908
32-27,46237955,-594
32-28,46241861,630
32-29,46245767,386
32-30,46249673,-520
32-31,46253579,-586
32-32,46257485,28
32-1,46261397,235
32-2,46265303,-437
32-3,46269209,-498
32-4,46273115,355
32-5,46277021,670
32-6,46280927,353
32-7,46284833,-170
32-8,46288739,-553
32-9,46292645,-252
32-10,46296551,139
32-11,46300457,-167
32-12,46304363,-22
32-13,46308269,743
32-14,46312175,246
32-15,46316081,-594
32-16,46319987,-326
32-17,46323893,108
32-18,46327799,195
32-19,46331705,-227
32-20,46335611,-599
32-21,46339517,-86
32-22,46343423,596
32-23,46347329,245
32-24,46351235,-854
32-25,46355141,-607
32-26,46359047,491
32-27,46362953,165
32-28,46366859,-491
32-29,46370765,-91
32-30,46374671,435
32-31,46378577,77
32-32,46382483,-434
32-1,46386394,-348
32-2,46390300,-72
32-3,46394206,282
32-4,46398112,-3
32-5,46402018,-434
32-6,46405924,412
32-7,46409830,727
32-8,46413736,-27
32-9,46417642,-220
32-10,46421548,-36
32-11,46425454,616
32-12,46429360,799
32-13,46433266,-304
32-14,46437172,-452
32-15,46441078,391
32-16,46444984,495
32-17,46448890,43
32-18,46452796,-482
32-19,46456702,-276
32-20,46460608,313
32-21,46464514,-62
32-22,46468420,-761
32-23,46472326,-571
32-24,46476232,281
32-25,46480138,240
32-26,46484044,-613
32-27,46487950,-249
32-28,46491856,591
32-29,46495762,396
32-30,46499668,-58
32-31,46503574,-328
32-32,46507480,-60
32-1,46511392,379
32-2,46515298,-239
32-3,46519204,-643
32-4,46523110,103
32-5,46527016,365
32-6,46530922,-215
32-7,46534828,-752
32-8,46538734,-287
32-9,46542640,693
32-10,46546546,346
32-11,46550452,-464
32-12,46554358,-500
32-13,46558264,-272
32-14,46562170,35
32-15,46566076,-107
32-16,46569982,-357
32-17,46573888,118
32-18,46577794,46
32-19,46581700,-561
32-20,46585606,-478
32-21,46589512,122
32-22,46593418,731
32-23,46597324,336
32-24,46601230,-566
32-25,46605136,-302
32-26,46609042,415
32-27,46612948,177
32-28,46616854,-396
32-29,46620760,-149
32-30,46624666,548
32-31,46628572,444
32-32,46632478,-519
32-1,46636390,-910
32-2,46640296,-20
32-3,46644202,598
32-4,46648108,9
32-5,46652014,-513
32-6,46655920,-220
32-7,46659826,549
32-8,46663732,595
32-9,46667638,-518
32-10,46671544,-819
32-11,46675450,563
32-12,46679356,1020
32-13,46683262,-209
32-14,46687168,-535
32-15,46691074,264
32-16,46694980,346
32-17,46698886,-698
32-18,46702792,-948
32-19,46706698,369
32-20,46710604,604
32-21,46714510,-291
32-22,46718416,-303
32-23,46722322,80
32-24,46726228,514
32-25,46730134,365
32-26,46734040,-574
32-27,46737946,-494
32-28,46741852,347
32-29,46745758,203
32-30,46749664,-398
32-31,46753570,-226
32-32,46757476,326
32-1,46761387,464
32-2,46765293,-35
32-3,46769199,-429
32-4,46773105,119
32-5,46777011,556
32-6,46780917,-284
32-7,46784823,-917
32-8,46788729,106
32-9,46792635,982
32-10,46796541,290
32-11,46800447,-511
32-12,46804353,-423
32-13,46808259,295
32-14,46812165,501
32-15,46816071,-406
32-16,46819977,-867
32-17,46823883,-327
32-18,46827789,232
32-19,46831695,91
32-20,46835601,-491
32-21,46839507,-360
32-22,46843413,257
32-23,46847319,95
32-24,46851225,-388
32-25,46855131,56
32-26,46859037,750
32-27,46862943,417
32-28,46866849,-290
32-29,46870755,-346
32-30,46874661,294
32-31,46878567,851
32-32,46882473,126
32-1,46886385,-636
32-2,46890291,282
32-3,46894197,890
32-4,46898103,49
32-5,46902009,-426
32-6,46905915,31
32-7,46909821,527
32-8,46913727,318
32-9,46917633,-219
32-10,46921539,135
32-11,46925445,788
32-12,46929351,383
32-13,46933257,-164
32-14,46937163,-97
32-15,46941069,113
32-16,46944975,509
32-17,46948881,390
32-18,46952787,-251
32-19,46956693,176
32-20,46960599,598
32-21,46964505,-363
32-22,46968411,-969
32-23,46972317,-103
32-24,46976223,913
32-25,46980129,435
32-26,46984035,-651
32-27,46987941,-392
32-28,46991847,549
32-29,46995753,472
32-30,46999659,-459
32-31,47003565,-647
32-32,47007471,383
32-1,47011413,620
32-2,47015319,-411
32-3,47019225,-750
32-4,47023131,-100
32-5,47027037,300
32-6,47030943,74
32-7,47034849,-43
32-8,47038755,163
32-9,47042661,333
32-10,47046567,199
32-11,47050473,-314
32-12,47054379,-358
32-13,47058285,506
32-14,47062191,756
32-15,47066097,-322
32-16,47070003,-780
32-17,47073909,121
32-18,47077815,552
32-19,47081721,26
32-20,47085627,-394
32-21,47089533,-247
32-22,47093439,43
32-23,47097345,109
32-24,47101251,13
32-25,47105157,8
32-26,47109063,686
32-27,47112969,792
32-28,47116875,-500
32-29,47120781,-962
32-30,47124687,-238
32-31,47128593,295
32-32,47132499,63
32-1,47136380,-704
32-2,47140286,0
32-3,47144192,1013
32-4,47148098,-134
32-5,47152004,-878
32-6,47155910,120
32-7,47159816,736
32-8,47163722,103
32-9,47167628,-780
32-10,47171534,-296
32-11,47175440,686
32-12,47179346,211
32-13,47183252,-378
32-14,47187158,67
32-15,47191064,647
32-16,47194970,898
32-17,47198876,299
32-18,47202782,-517
32-19,47206688,-79
32-20,47210594,425
32-21,47214500,-356
32-22,47218406,-797
32-23,47222312,197
32-24,47226218,956
32-25,47230124,227
32-26,47234030,-796
32-27,47237936,-568
32-28,47241842,435
32-29,47245748,427
32-30,47249654,-357
32-31,47253560,-334
32-32,47257466,263
32-1,47261408,507
32-2,47265314,93
32-3,47269220,-577
32-4,47273126,-375
32-5,47277032,308
32-6,47280938,65
32-7,47284844,-627
32-8,47288750,-405
32-9,47292656,240
32-10,47296562,53
32-11,47300468,-328
32-12,47304374,-36
32-13,47308280,240
32-14,47312186,109
32-15,47316092,-117
32-16,47319998,-346
32-17,47323904,-63
32-18,47327810,192
32-19,47331716,-358
32-20,47335622,-529
32-21,47339528,214
32-22,47343434,799
32-23,47347340,285
32-24,47351246,-576
32-25,47355152,-352
32-26,47359058,252
32-27,47362964,213
32-28,47366870,-397
32-29,47370776,-799
32-30,47374682,-6
32-31,47378588,407
32-32,47382494,-248
32-1,47386375,-173
32-2,47390281,103
32-3,47394187,-82
32-4,47398093,-200
32-5,47401999,-497
32-6,47405905,-12
32-7,47409811,698
32-8,47413717,-561
32-9,47417623,-1604
32-10,47421529,-440
32-11,47425435,363
32-12,47429341,-229
32-13,47433247,-543
32-14,47437153,-88
32-15,47441059,260
32-16,47444965,82
32-17,47448871,-192
32-18,47452777,-264
32-19,47456683,-33
32-20,47460589,129
32-21,47464495,-240
32-22,47468401,-618
32-23,47472307,-150
32-24,47476213,532
32-25,47480119,-115
32-26,47484025,-805
32-27,47487931,51
32-28,47491837,604
32-29,47495743,316
32-30,47499649,129
32-31,47503555,-17
32-32,47507461,604
32-1,47511373,769
32-2,47515279,-530
32-3,47519185,-550
32-4,47523091,825
32-5,47526997,939
32-6,47530903,-238
32-7,47534809,-663
32-8,47538715,205
32-9,47542621,654
32-10,47546527,201
32-11,47550433,-635
32-12,47554339,-924
32-13,47558245,283
32-14,47562151,629
32-15,47566057,-470
32-16,47569963,-333
32-17,47573869,399
32-18,47577775,249
32-19,47581681,-35
32-20,47585587,-30
32-21,47589493,116
32-22,47593399,262
32-23,47597305,0
32-24,47601211,-557
32-25,47605117,-299
32-26,47609023,758
32-27,47612929,681
32-28,47616835,-647
32-29,47620741,-679
32-30,47624647,370
32-31,47628553,-152
32-32,47632459,-963
32-1,47636493,-322
32-2,47640399,-36
32-3,47644305,-130
32-4,47648211,42
32-5,47652117,-235
32-6,47656023,189
32-7,47659929,870
32-8,47663835,62
32-9,47667741,-667
32-10,47671647,-147
32-11,47675553,427
32-12,47679459,307
32-13,47683365,-274
32-14,47687271,-183
32-15,47691177,659
32-16,47695083,568
32-17,47698989,-403
32-18,47702895,-515
32-19,47706801,357
32-20,47710707,491
32-21,47714613,-480
32-22,47718519,-710
32-23,47722425,209
32-24,47726331,489
32-25,47730237,-261
32-26,47734143,-285
32-27,47738049,545
32-28,47741955,585
32-29,47745861,169
32-30,47749767,9
32-31,47753673,-159
32-32,47757579,80
32-1,47761368,544
32-2,47765274,710
32-3,47769180,419
32-4,47773086,255
32-5,47776992,400
32-6,47780898,-345
32-7,47784804,-1136
32-8,47788710,-696
32-9,47792616,107
32-10,47796522,156
32-11,47800428,-561
32-12,47804334,-638
32-13,47808240,222
32-14,47812146,208
32-15,47816052,-819
32-16,47819958,-824
32-17,47823864,212
32-18,47827770,424
32-19,47831676,-151
32-20,47835582,-541
32-21,47839488,-147
32-22,47843394,346
32-23,47847300,-376
32-24,47851206,-677
32-25,47855112,300
32-26,47859018,588
32-27,47862924,-134
32-28,47866830,-515
32-29,47870736,-151
32-30,47874642,188
32-31,47878548,268
32-32,47882454,-89
32-1,47886366,-750
32-2,47890272,-396
32-3,47894178,188
32-4,47898084,-268
32-5,47901990,-461
32-6,47905896,250
32-7,47909802,937
32-8,47913708,327
32-9,47917614,-1089
32-10,47921520,-788
32-11,47925426,649
32-12,47929332,517
32-13,47933238,-627
32-14,47937144,-767
32-15,47941050,26
32-16,47944956,266
32-17,47948862,-321
32-18,47952768,-355
32-19,47956674,419
32-20,47960580,711
32-21,47964486,110
32-22,47968392,-531
32-23,47972298,-124
32-24,47976204,698
32-25,47980110,-33
32-26,47984016,-995
32-27,47987922,-230
32-28,47991828,462
32-29,47995734,130
32-30,47999640,-394
32-31,48003546,-395
32-32,48007452,516
32-1,48011394,782
32-2,48015300,-30
32-3,48019206,-564
32-4,48023112,-351
32-5,48027018,220
32-6,48030924,-365
32-7,48034830,-1061
32-8,48038736,-10
32-9,48042642,714
32-10,48046548,353
32-11,48050454,-305
32-12,48054360,-612
32-13,48058266,621
32-14,48062172,799
32-15,48066078,-894
32-16,48069984,-895
32-17,48073890,192
32-18,48077796,337
32-19,48081702,-155
32-20,48085608,-741
32-21,48089514,-308
32-22,48093420,372
32-23,48097326,-253
32-24,48101232,-643
32-25,48105138,170
32-26,48109044,727
32-27,48112950,302
32-28,48116856,-538
32-29,48120762,-627
32-30,48124668,212
32-31,48128574,322
32-32,48132480,-522
32-1,48136361,-581
32-2,48140267,173
32-3,48144173,578
32-4,48148079,343
32-5,48151985,-413
32-6,48155891,-311
32-7,48159797,511
32-8,48163703,-308
32-9,48167609,-1290
32-10,48171515,-573
32-11,48175421,166
32-12,48179327,92
32-13,48183233,-764
32-14,48187139,-1185
32-15,48191045,-232
32-16,48194951,118
32-17,48198857,-530
32-18,48202763,-611
32-19,48206669,71
32-20,48210575,261
32-21,48214481,-531
32-22,48218387,-549
32-23,48222293,176
32-24,48226199,100
32-25,48230105,-61
32-26,48234011,-243
32-27,48237917,-372
32-28,48241823,554
32-29,48245729,557
32-30,48249635,-1067
32-31,48253541,-1504
32-32,48257447,-402
32-1,48261511,267
32-2,48265417,-258
32-3,48269323,-677
32-4,48273229,12
32-5,48277135,154
32-6,48281041,-802
32-7,48284947,-972
32-8,48288853,-86
32-9,48292759,488
32-10,48296665,202
32-11,48300571,-350
32-12,48304477,-438
32-13,48308383,31
32-14,48312289,539
32-15,48316195,195
32-16,48320101,-416
32-17,48324007,162
32-18,48327913,464
32-19,48331819,-435
32-20,48335725,-557
32-21,48339631,94
32-22,48343537,307
32-23,48347443,11
32-24,48351349,-776
32-25,48355255,-815
32-26,48359161,508
32-27,48363067,652
32-28,48366973,-952
32-29,48370879,-1211
32-30,48374785,132
32-31,48378691,443
32-32,48382597,-487
32-1,48386356,-728
32-2,48390262,201
32-3,48394168,470
32-4,48398074,-462
32-5,48401980,-940
32-6,48405886,-402
32-7,48409792,295
32-8,48413698,239
32-9,48417604,-537
32-10,48421510,-602
32-11,48425416,530
32-12,48429322,734
32-13,48433228,-678
32-14,48437134,-1057
32-15,48441040,139
32-16,48444946,519
32-17,48448852,-151
32-18,48452758,-477
32-19,48456664,-121
32-20,48460570,113
32-21,48464476,-777
32-22,48468382,-1517
32-23,48472288,-582
32-24,48476194,267
32-25,48480100,-139
32-26,48484006,-955
32-27,48487912,-1205
32-28,48491818,-49
32-29,48495724,734
32-30,48499630,-100
32-31,48503536,-627
32-32,48507442,-73
32-1,48511354,229
32-2,48515260,-503
32-3,48519166,-628
32-4,48523072,422
32-5,48526978,494
32-6,48530884,-356
32-7,48534790,-716
32-8,48538696,-183
32-9,48542602,627
32-10,48546508,283
32-11,48550414,-573
32-12,48554320,-545
32-13,48558226,256
32-14,48562132,528
32-15,48566038,-533
32-16,48569944,-1114
32-17,48573850,-163
32-18,48577756,397
32-19,48581662,-344
32-20,48585568,-873
32-21,48589474,-390
32-22,48593380,116
32-23,48597286,-184
32-24,48601192,-923
32-25,48605098,-726
32-26,48609004,479
32-27,48612910,537
32-28,48616816,-522
32-29,48620722,-571
32-30,48624628,125
32-31,48628534,-97
32-32,48632440,-845
32-1,48636352,-460
32-2,48640258,369
32-3,48644164,51
32-4,48648070,-779
32-5,48651976,-951
32-6,48655882,-282
32-7,48659788,225
32-8,48663694,-287
32-9,48667600,-842
32-10,48671506,-672
32-11,48675412,-20
32-12,48679318,483
32-13,48683224,-181
32-14,48687130,-686
32-15,48691036,302
32-16,48694942,658
32-17,48698848,-451
32-18,48702754,-887
32-19,48706660,273
32-20,48710566,725
32-21,48714472,-482
32-22,48718378,-922
32-23,48722284,-368
32-24,48726190,296
32-25,48730096,468
32-26,48734002,-630
32-27,48737908,-594
32-28,48741814,734
32-29,48745720,744
32-30,48749626,248
32-31,48753532,101
32-32,48757438,291
32-1,48761380,231
32-2,48765286,-629
32-3,48769192,-663
32-4,48773098,355
32-5,48777004,897
32-6,48780910,239
32-7,48784816,-513
32-8,48788722,-11
32-9,48792628,580
32-10,48796534,366
32-11,48800440,-214
32-12,48804346,-715
32-13,48808252,-124
32-14,48812158,447
32-15,48816064,-23
32-16,48819970,115
32-17,48823876,784
32-18,48827782,629
32-19,48831688,-404
32-20,48835594,-861
32-21,48839500,194
32-22,48843406,1124
32-23,48847312,497
32-24,48851218,-657
32-25,48855124,-198
32-26,48859030,1217
32-27,48862936,734
32-28,48866842,-607
32-29,48870748,-429
32-30,48874654,309
32-31,48878560,465
32-32,48882466,192
32-1,48886499,-70
32-2,48890405,354
32-3,48894311,736
32-4,48898217,-29
32-5,48902123,-444
32-6,48906029,369
32-7,48909935,903
32-8,48913841,557
32-9,48917747,-98
32-10,48921653,-113
32-11,48925559,547
32-12,48929465,775
32-13,48933371,401
32-14,48937277,180
32-15,48941183,607
32-16,48945089,762
32-17,48948995,-34
32-18,48952901,-324
32-19,48956807,443
32-20,48960713,743
32-21,48964619,140
32-22,48968525,-103
32-23,48972431,607
32-24,48976337,966
32-25,48980243,272
32-26,48984149,-245
32-27,48988055,3
32-28,48991961,517
32-29,48995867,564
32-30,48999773,-35
32-31,49003679,-21
32-32,49007585,953
32-1,49011345,1098
32-2,49015251,215
32-3,49019157,-155
32-4,49023063,162
32-5,49026969,554
32-6,49030875,295
32-7,49034781,-475
32-8,49038687,-56
32-9,49042593,922
32-10,49046499,594
32-11,49050405,43
32-12,49054311,297
32-13,49058217,728
32-14,49062123,404
32-15,49066029,-425
32-16,49069935,-279
32-17,49073841,371
32-18,49077747,261
32-19,49081653,-257
32-20,49085559,-635
32-21,49089465,-175
32-22,49093371,712
32-23,49097277,300
32-24,49101183,-535
32-25,49105089,-130
32-26,49108995,519
32-27,49112901,354
32-28,49116807,-223
32-29,49120713,-234
32-30,49124619,637
32-31,49128525,814
32-32,49132431,-252
32-1,49136342,-731
32-2,49140248,-110
32-3,49144154,576
32-4,49148060,344
32-5,49151966,-488
32-6,49155872,-45
32-7,49159778,1042
32-8,49163684,682
32-9,49167590,-239
32-10,49171496,-228
32-11,49175402,189
32-12,49179308,-23
32-13,49183214,-587
32-14,49187120,-359
32-15,49191026,874
32-16,49194932,1157
32-17,49198838,-103
32-18,49202744,-492
32-19,49206650,178
32-20,49210556,506
32-21,49214462,324
32-22,49218368,-479
32-23,49222274,-539
32-24,49226180,802
32-25,49230086,799
32-26,49233992,-876
32-27,49237898,-676
32-28,49241804,867
32-29,49245710,446
32-30,49249616,-558
32-31,49253522,-381
32-32,49257428,354
32-1,49261340,772
32-2,49265246,193
32-3,49269152,-287
32-4,49273058,65
32-5,49276964,651
32-6,49280870,514
32-7,49284776,-375
32-8,49288682,-96
32-9,49292588,694
32-10,49296494,42
32-11,49300400,-747
32-12,49304306,-364
32-13,49308212,606
32-14,49312118,615
32-15,49316024,-175
32-16,49319930,15
32-17,49323836,725
32-18,49327742,606
32-19,49331648,-296
32-20,49335554,-761
32-21,49339460,151
32-22,49343366,1043
32-23,49347272,615
32-24,49351178,71
32-25,49355084,378
32-26,49358990,767
32-27,49362896,455
32-28,49366802,-431
32-29,49370708,-776
32-30,49374614,191
32-31,49378520,753
32-32,49382426,15
32-1,49386337,-341
32-2,49390243,207
32-3,49394149,607
32-4,49398055,95
32-5,49401961,-354
32-6,49405867,196
32-7,49409773,347
32-8,49413679,-153
32-9,49417585,-196
32-10,49421491,208
32-11,49425397,878
32-12,49429303,713
32-13,49433209,-430
32-14,49437115,-718
32-15,49441021,113
32-16,49444927,582
32-17,49448833,-309
32-18,49452739,-1098
32-19,49456645,-231
32-20,49460551,535
32-21,49464457,130
32-22,49468363,-292
32-23,49472269,-81
32-24,49476175,652
32-25,49480081,666
32-26,49483987,-335
32-27,49487893,-662
32-28,49491799,157
32-29,49495705,415
32-30,49499611,-385
32-31,49503517,-450
32-32,49507423,592
32-1,49511335,833
32-2,49515241,-347
32-3,49519147,-1050
32-4,49523053,-226
32-5,49526959,697
32-6,49530865,217
32-7,49534771,-779
32-8,49538677,-140
32-9,49542583,1026
32-10,49546489,278
32-11,49550395,-817
32-12,49554301,-545
32-13,49558207,173
32-14,49562113,311
32-15,49566019,-526
32-16,49569925,-983
32-17,49573831,88
32-18,49577737,663
32-19,49581643,-291
32-20,49585549,-655
32-21,49589455,332
32-22,49593361,800
32-23,49597267,-145
32-24,49601173,-601
32-25,49605079,83
32-26,49608985,226
32-27,49612891,-124
32-28,49616797,-43
32-29,49620703,128
32-30,49624609,251
32-31,49628515,577
32-32,49632421,84
32-1,49636333,-969
32-2,49640239,-287
32-3,49644145,676
32-4,49648051,-46
32-5,49651957,-462
32-6,49655863,66
32-7,49659769,595
32-8,49663675,111
32-9,49667581,-972
32-10,49671487,-214
32-11,49675393,1006
32-12,49679299,529
32-13,49683205,-271
32-14,49687111,-611
32-15,49691017,-90
32-16,49694923,595
32-17,49698829,-158
32-18,49702735,-668
32-19,49706641,128
32-20,49710547,557
32-21,49714453,141
32-22,49718359,-517
32-23,49722265,-94
32-24,49726171,997
32-25,49730077,519
32-26,49733983,-403
32-27,49737889,-67
32-28,49741795,458
32-29,49745701,329
32-30,49749607,-372
32-31,49753513,-477
32-32,49757419,657
32-1,49761330,965
32-2,49765236,-145
32-3,49769142,-579
32-4,49773048,37
32-5,49776954,566
32-6,49780860,44
32-7,49784766,-1061
32-8,49788672,-542
32-9,49792578,667
32-10,49796484,33
32-11,49800390,-891
32-12,49804296,-461
32-13,49808202,433
32-14,49812108,582
32-15,49816014,-322
32-16,49819920,-675
32-17,49823826,252
32-18,49827732,448
32-19,49831638,-596
32-20,49835544,-773
32-21,49839450,106
32-22,49843356,708
32-23,49847262,455
32-24,49851168,-781
32-25,49855074,-1068
32-26,49858980,201
32-27,49862886,143
32-28,49866792,-990
32-29,49870698,-557
32-30,49874604,587
32-31,49878510,181
32-32,49882416,-1005
32-1,49886328,-695
32-2,49890234,564
32-3,49894140,584
32-4,49898046,-451
32-5,49901952,-860
32-6,49905858,-123
32-7,49909764,645
32-8,49913670,110
32-9,49917576,-819
32-10,49921482,-281
32-11,49925388,769
32-12,49929294,219
32-13,49933200,-1058
32-14,49937106,-878
32-15,49941012,213
32-16,49944918,261
32-17,49948824,-530
32-18,49952730,-851
32-19,49956636,-290
32-20,49960542,319
32-21,49964448,-283
32-22,49968354,-1078
32-23,49972260,-357
32-24,49976166,645
32-25,49980072,156
32-26,49983978,-897
32-27,49987884,-716
32-28,49991790,130
32-29,49995696,159
32-30,49999602,-257
32-31,50003508,-306
32-32,50007414,203
32-1,50011326,328
32-2,50015232,-665
32-3,50019138,-1176
32-4,50023044,-209
32-5,50026950,702
32-6,50030856,136
32-7,50034762,-724
32-8,50038668,-223
32-9,50042574,453
32-10,50046480,89
32-11,50050386,-575
32-12,50054292,-489
32-13,50058198,507
32-14,50062104,696
32-15,50066010,-253
32-16,50069916,-684
32-17,50073822,-224
32-18,50077728,240
32-19,50081634,-351
32-20,50085540,-1203
32-21,50089446,-611
32-22,50093352,270
32-23,50097258,-306
32-24,50101164,-1145
32-25,50105070,-458
32-26,50108976,621
32-27,50112882,58
32-28,50116788,-784
32-29,50120694,-323
32-30,50124600,406
32-31,50128506,505
32-32,50132412,-305
32-1,50136323,-1235
32-2,50140229,-499
32-3,50144135,765
32-4,50148041,233
32-5,50151947,-739
32-6,50155853,-301
32-7,50159759,791
32-8,50163665,843
32-9,50167571,-403
32-10,50171477,-633
32-11,50175383,763
32-12,50179289,688
32-13,50183195,-831
32-14,50187101,-349
32-15,50191007,1084
32-16,50194913,446
32-17,50198819,-413
32-18,50202725,-18
32-19,50206631,239
32-20,50210537,527
32-21,50214443,164
32-22,50218349,-940
32-23,50222255,-382
32-24,50226161,1090
32-25,50230067,680
32-26,50233973,-1000
32-27,50237879,-923
32-28,50241785,531
32-29,50245691,366
32-30,50249597,-959
32-31,50253503,-1132
32-32,50257409,257
32-1,50261351,1019
32-2,50265257,-216
32-3,50269163,-1038
32-4,50273069,-140
32-5,50276975,720
32-6,50280881,-24
32-7,50284787,-1280
32-8,50288693,-742
32-9,50292599,783
32-10,50296505,918
32-11,50300411,-286
32-12,50304317,-539
32-13,50308223,601
32-14,50312129,544
32-15,50316035,-668
32-16,50319941,-747
32-17,50323847,159
32-18,50327753,559
32-19,50331659,-216
32-20,50335565,-647
32-21,50339471,138
32-22,50343377,346
32-23,50347283,-183
32-24,50351189,-508
32-25,50355095,-445
32-26,50359001,82
32-27,50362907,290
32-28,50366813,-29
32-29,50370719,-587
32-30,50374625,-685
32-31,50378531,-48
32-32,50382437,-393
32-1,50386318,-1152
32-2,50390224,-331
32-3,50394130,630
32-4,50398036,-265
32-5,50401942,-1582
32-6,50405848,-749
32-7,50409754,608
32-8,50413660,100
32-9,50417566,-593
32-10,50421472,-265
32-11,50425378,141
32-12,50429284,-209
32-13,50433190,-880
32-14,50437096,-791
32-15,50441002,202
32-16,50444908,699
32-17,50448814,-676
32-18,50452720,-1775
32-19,50456626,-342
32-20,50460532,868
32-21,50464438,-347
32-22,50468344,-1564
32-23,50472250,-805
32-24,50476156,467
32-25,50480062,5
32-26,50483968,-1359
32-27,50487874,-686
32-28,50491780,849
32-29,50495686,365
32-30,50499592,-460
32-31,50503498,-713
32-32,50507404,-564
32-1,50511316,395
32-2,50515222,-437
32-3,50519128,-1388
32-4,50523034,593
32-5,50526940,1403
32-6,50530846,-284
32-7,50534752,-1017
32-8,50538658,-50
32-9,50542564,1021
32-10,50546470,668
32-11,50550376,-385
32-12,50554282,-415
32-13,50558188,452
32-14,50562094,645
32-15,50566000,-391
32-16,50569906,-584
32-17,50573812,761
32-18,50577718,968
32-19,50581624,-209
32-20,50585530,-380
32-21,50589436,350
32-22,50593342,584
32-23,50597248,95
32-24,50601154,-782
32-25,50605060,-775
32-26,50608966,436
32-27,50612872,556
32-28,50616778,-590
32-29,50620684,-614
32-30,50624590,480
32-31,50628496,590
32-32,50632402,-220
32-1,50636314,-358
32-2,50640220,258
32-3,50644126,726
32-4,50648032,-53
32-5,50651938,-1060
32-6,50655844,-344
32-7,50659750,548
32-8,50663656,347
32-9,50667562,-239
32-10,50671468,-802
32-11,50675374,-235
32-12,50679280,391
32-13,50683186,-535
32-14,50687092,-1017
32-15,50690998,-100
32-16,50694904,96
32-17,50698810,-955
32-18,50702716,-1191
32-19,50706622,-235
32-20,50710528,401
32-21,50714434,-105
32-22,50718340,-935
32-23,50722246,-349
32-24,50726152,548
32-25,50730058,33
32-26,50733964,-679
32-27,50737870,-495
32-28,50741776,328
32-29,50745682,248
32-30,50749588,-1069
32-31,50753494,-1268
32-32,50757400,-230
32-1,50761311,136
32-2,50765217,-412
32-3,50769123,-860
32-4,50773029,-79
32-5,50776935,579
32-6,50780841,-552
32-7,50784747,-984
32-8,50788653,320
32-9,50792559,971
32-10,50796465,553
32-11,50800371,-507
32-12,50804277,-721
32-13,50808183,610
32-14,50812089,878
32-15,50815995,321
32-16,50819901,298
32-17,50823807,572
32-18,50827713,893
32-19,50831619,41
32-20,50835525,-756
32-21,50839431,-31
32-22,50843337,492
32-23,50847243,73
32-24,50851149,-322
32-25,50855055,125
32-26,50858961,806
32-27,50862867,797
32-28,50866773,420
32-29,50870679,39
32-30,50874585,255
32-31,50878491,780
32-32,50882397,235
32-1,50886309,-376
32-2,50890215,459
32-3,50894121,870
32-4,50898027,-329
32-5,50901933,-716
32-6,50905839,299
32-7,50909745,628
32-8,50913651,112
32-9,50917557,-321
32-10,50921463,-225
32-11,50925369,316
32-12,50929275,285
32-13,50933181,-277
32-14,50937087,-111
32-15,50940993,935
32-16,50944899,1146
32-17,50948805,-153
32-18,50952711,-966
32-19,50956617,-199
32-20,50960523,753
32-21,50964429,424
32-22,50968335,-373
32-23,50972241,257
32-24,50976147,1254
32-25,50980053,574
32-26,50983959,-681
32-27,50987865,-457
32-28,50991771,618
32-29,50995677,333
32-30,50999583,-710
32-31,51003489,-527
32-32,51007395,433
32-1,51011368,672
32-2,51015274,-13
32-3,51019180,-384
32-4,51023086,405
32-5,51026992,1055
32-6,51030898,278
32-7,51034804,-574
32-8,51038710,131
32-9,51042616,1188
32-10,51046522,473
32-11,51050428,-614
32-12,51054334,-157
32-13,51058240,292
32-14,51062146,-14
32-15,51066052,-356
32-16,51069958,-334
32-17,51073864,415
32-18,51077770,690
32-19,51081676,34
32-20,51085582,-480
32-21,51089488,108
32-22,51093394,1388
32-23,51097300,786
32-24,51101206,-827
32-25,51105112,-548
32-26,51109018,493
32-27,51112924,563
32-28,51116830,-296
32-29,51120736,-644
32-30,51124642,433
32-31,51128548,761
32-32,51132454,-275
32-1,51136304,-577
32-2,51140210,30
32-3,51144116,427
32-4,51148022,277
32-5,51151928,-151
32-6,51155834,9
32-7,51159740,732
32-8,51163646,357
32-9,51167552,-975
32-10,51171458,-848
32-11,51175364,636
32-12,51179270,680
32-13,51183176,-450
32-14,51187082,-467
32-15,51190988,173
32-16,51194894,433
32-17,51198800,146
32-18,51202706,-351
32-19,51206612,57
32-20,51210518,716
32-21,51214424,304
32-22,51218330,-362
32-23,51222236,-119
32-24,51226142,681
32-25,51230048,521
32-26,51233954,-534
32-27,51237860,-597
32-28,51241766,276
32-29,51245672,165
32-30,51249578,-587
32-31,51253484,-157
32-32,51257390,701
32-1,51261302,723
32-2,51265208,264
32-3,51269114,-496
32-4,51273020,-500
32-5,51276926,533
32-6,51280832,284
32-7,51284738,-948
32-8,51288644,-429
32-9,51292550,771
32-10,51296456,110
32-11,51300362,-931
32-12,51304268,-599
32-13,51308174,290
32-14,51312080,696
32-15,51315986,-249
32-16,51319892,-811
32-17,51323798,779
32-18,51327704,1320
32-19,51331610,-153
32-20,51335516,-868
32-21,51339422,-151
32-22,51343328,926
32-23,51347234,253
32-24,51351140,-1043
32-25,51355046,-207
32-26,51358952,714
32-27,51362858,20
32-28,51366764,-613
32-29,51370670,-366
32-30,51374576,371
32-31,51378482,677
32-32,51382388,-38
32-1,51386300,-563
32-2,51390206,-26
32-3,51394112,110
32-4,51398018,-593
32-5,51401924,-607
32-6,51405830,151
32-7,51409736,612
32-8,51413642,173
32-9,51417548,-334
32-10,51421454,140
32-11,51425360,749
32-12,51429266,460
32-13,51433172,-378
32-14,51437078,-434
32-15,51440984,558
32-16,51444890,917
32-17,51448796,133
32-18,51452702,-427
32-19,51456608,-74
32-20,51460514,523
32-21,51464420,138
32-22,51468326,-721
32-23,51472232,-521
32-24,51476138,212
32-25,51480044,286
32-26,51483950,-429
32-27,51487856,-653
32-28,51491762,363
32-29,51495668,742
32-30,51499574,-281
32-31,51503480,-677
32-32,51507386,155
32-1,51511297,482
32-2,51515203,-211
32-3,51519109,-745
32-4,51523015,-102
32-5,51526921,937
32-6,51530827,352
32-7,51534733,-726
32-8,51538639,-27
32-9,51542545,795
32-10,51546451,230
32-11,51550357,-688
32-12,51554263,-556
32-13,51558169,665
32-14,51562075,757
32-15,51565981,-523
32-16,51569887,-857
32-17,51573793,147
32-18,51577699,870
32-19,51581605,238
32-20,51585511,-767
32-21,51589417,-432
32-22,51593323,360
32-23,51597229,-242
32-24,51601135,-894
32-25,51605041,-185
32-26,51608947,448
32-27,51612853,67
32-28,51616759,-499
32-29,51620665,-387
32-30,51624571,233
32-31,51628477,223
32-32,51632383,-548
32-1,51636295,-625
32-2,51640201,359
32-3,51644107,675
32-4,51648013,-317
32-5,51651919,-663
32-6,51655825,145
32-7,51659731,388
32-8,51663637,-68
32-9,51667543,-411
32-10,51671449,-141
32-11,51675355,768
32-12,51679261,635
32-13,51683167,-484
32-14,51687073,-293
32-15,51690979,590
32-16,51694885,445
32-17,51698791,-306
32-18,51702697,-578
32-19,51706603,96
32-20,51710509,644
32-21,51714415,8
32-22,51718321,-524
32-23,51722227,35
32-24,51726133,339
32-25,51730039,-427
32-26,51733945,-998
32-27,51737851,-278
32-28,51741757,404
32-29,51745663,-196
32-30,51749569,-967
32-31,51753475,-839
32-32,51757381,56
32-1,51761384,428
32-2,51765290,-253
32-3,51769196,-545
32-4,51773102,-226
32-5,51777008,247
32-6,51780914,237
32-7,51784820,-741
32-8,51788726,-348
32-9,51792632,911
32-10,51796538,94
32-11,51800444,-983
32-12,51804350,-716
32-13,51808256,60
32-14,51812162,430
32-15,51816068,-682
32-16,51819974,-1295
32-17,51823880,-165
32-18,51827786,71
32-19,51831692,-639
32-20,51835598,-599
32-21,51839504,82
32-22,51843410,647
32-23,51847316,206
32-24,51851222,-538
32-25,51855128,-293
32-26,51859034,368
32-27,51862940,413
32-28,51866846,-345
32-29,51870752,-859
32-30,51874658,-8
32-31,51878564,456
32-32,51882470,-833
32-1,51886290,-1302
32-2,51890196,-16
32-3,51894102,492
32-4,51898008,-509
32-5,51901914,-1315
32-6,51905820,-782
32-7,51909726,181
32-8,51913632,-51
32-9,51917538,-1029
32-10,51921444,-816
32-11,51925350,565
32-12,51929256,519
32-13,51933162,-1055
32-14,51937068,-894
32-15,51940974,759
32-16,51944880,717
32-17,51948786,-692
32-18,51952692,-984
32-19,51956598,6
32-20,51960504,579
32-21,51964410,59
32-22,51968316,-592
32-23,51972222,-487
32-24,51976128,116
32-25,51980034,136
32-26,51983940,-682
32-27,51987846,-823
32-28,51991752,324
32-29,51995658,639
32-30,51999564,-617
32-31,52003470,-799
32-32,52007376,598
32-1,52011288,872
32-2,52015194,-659
32-3,52019100,-1465
32-4,52023006,-68
32-5,52026912,1030
32-6,52030818,88
32-7,52034724,-984
32-8,52038630,-583
32-9,52042536,336
32-10,52046442,86
32-11,52050348,-546
32-12,52054254,-330
32-13,52058160,-38
32-14,52062066,185
32-15,52065972,-87
32-16,52069878,-430
32-17,52073784,525
32-18,52077690,636
32-19,52081596,-631
32-20,52085502,-904
32-21,52089408,-357
32-22,52093314,244
32-23,52097220,192
32-24,52101126,-586
32-25,52105032,-448
32-26,52108938,345
32-27,52112844,382
32-28,52116750,-440
32-29,52120656,-678
32-30,52124562,526
32-31,52128468,703
32-32,52132374,-672
32-1,52136285,-853
32-2,52140191,-7
32-3,52144097,285
32-4,52148003,-100
32-5,52151909,-581
32-6,52155815,-154
32-7,52159721,672
32-8,52163627,371
32-9,52167533,-542
32-10,52171439,-211
32-11,52175345,891
32-12,52179251,587
32-13,52183157,-579
32-14,52187063,-521
32-15,52190969,316
32-16,52194875,363
32-17,52198781,-394
32-18,52202687,-566
32-19,52206593,455
32-20,52210499,902
32-21,52214405,7
32-22,52218311,-789
32-23,52222217,-449
32-24,52226123,577
32-25,52230029,387
32-26,52233935,-745
32-27,52237841,-467
32-28,52241747,605
32-29,52245653,496
32-30,52249559,-585
32-31,52253465,-1021
32-32,52257371,-29
32-1,52261283,610
32-2,52265189,-393
32-3,52269095,-1102
32-4,52273001,-268
32-5,52276907,563
32-6,52280813,111
32-7,52284719,-461
32-8,52288625,230
32-9,52292531,1016
32-10,52296437,493
32-11,52300343,-621
32-12,52304249,-976
32-13,52308155,-74
32-14,52312061,462
32-15,52315967,-331
32-16,52319873,-490
32-17,52323779,208
32-18,52327685,125
32-19,52331591,-517
32-20,52335497,-963
32-21,52339403,-509
32-22,52343309,742
32-23,52347215,405
32-24,52351121,-1126
32-25,52355027,-638
32-26,52358933,879
32-27,52362839,690
32-28,52366745,-523
32-29,52370651,-839
32-30,52374557,-68
32-31,52378463,319
32-32,52382369,-461
32-1,52386281,-1085
32-2,52390187,21
32-3,52394093,1171
32-4,52397999,98
32-5,52401905,-936
32-6,52405811,29
32-7,52409717,666
32-8,52413623,-241
32-9,52417529,-721
32-10,52421435,-188
32-11,52425341,204
32-12,52429247,143
32-13,52433153,-363
32-14,52437059,-715
32-15,52440965,22
32-16,52444871,663
32-17,52448777,-310
32-18,52452683,-879
32-19,52456589,505
32-20,52460495,826
32-21,52464401,-485
32-22,52468307,-662
32-23,52472213,-27
32-24,52476119,397
32-25,52480025,386
32-26,52483931,-256
32-27,52487837,-411
32-28,52491743,428
32-29,52495649,816
32-30,52499555,-114
32-31,52503461,-751
32-32,52507367,-213
32-1,52511492,49
32-2,52515398,-198
32-3,52519304,-261
32-4,52523210,41
32-5,52527116,452
32-6,52531022,14
32-7,52534928,-686
32-8,52538834,-172
32-9,52542740,914
32-10,52546646,713
32-11,52550552,-633
32-12,52554458,-458
32-13,52558364,821
32-14,52562270,254
32-15,52566176,-967
32-16,52570082,-621
32-17,52573988,456
32-18,52577894,390
32-19,52581800,-768
32-20,52585706,-992
32-21,52589612,42
32-22,52593518,635
32-23,52597424,31
32-24,52601330,-901
32-25,52605236,-669
32-26,52609142,607
32-27,52613048,595
32-28,52616954,-797
32-29,52620860,-663
32-30,52624766,518
32-31,52628672,285
32-32,52632578,-394
32-1,52636276,-303
32-2,52640182,400
32-3,52644088,995
32-4,52647994,364
32-5,52651900,-485
32-6,52655806,310
32-7,52659712,1130
32-8,52663618,-91
32-9,52667524,-1287
32-10,52671430,-337
32-11,52675336,880
32-12,52679242,411
32-13,52683148,-337
32-14,52687054,-9
32-15,52690960,725
32-16,52694866,808
32-17,52698772,35
32-18,52702678,-336
32-19,52706584,498
32-20,52710490,1062
32-21,52714396,336
32-22,52718302,-344
32-23,52722208,230
32-24,52726114,917
32-25,52730020,557
32-26,52733926,-97
32-27,52737832,-203
32-28,52741738,311
32-29,52745644,529
32-30,52749550,-153
32-31,52753456,-280
32-32,52757362,750
32-1,52761273,926
32-2,52765179,-108
32-3,52769085,-507
32-4,52772991,44
32-5,52776897,539
32-6,52780803,77
32-7,52784709,-828
32-8,52788615,-82
32-9,52792521,1288
32-10,52796427,435
32-11,52800333,-887
32-12,52804239,-245
32-13,52808145,981
32-14,52812051,717
32-15,52815957,-574
32-16,52819863,-719
32-17,52823769,450
32-18,52827675,836
32-19,52831581,-435
32-20,52835487,-1319
32-21,52839393,-317
32-22,52843299,738
32-23,52847205,264
32-24,52851111,-605
32-25,52855017,-269
32-26,52858923,658
32-27,52862829,209
32-28,52866735,-913
32-29,52870641,-417
32-30,52874547,771
32-31,52878453,542
32-32,52882359,-277
32-1,52886271,-475
32-2,52890177,41
32-3,52894083,720
32-4,52897989,108
32-5,52901895,-695
32-6,52905801,332
32-7,52909707,1155
32-8,52913613,10
32-9,52917519,-1001
32-10,52921425,-236
32-11,52925331,756
32-12,52929237,321
32-13,52933143,-679
32-14,52937049,-644
32-15,52940955,370
32-16,52944861,264
32-17,52948767,-1416
32-18,52952673,-1445
32-19,52956579,570
32-20,52960485,816
32-21,52964391,-623
32-22,52968297,-919
32-23,52972203,11
32-24,52976109,745
32-25,52980015,4
32-26,52983921,-1092
32-27,52987827,-360
32-28,52991733,702
32-29,52995639,160
32-30,52999545,-824
32-31,53003451,-716
32-32,53007357,533
32-1,53011269,891
32-2,53015175,-412
32-3,53019081,-932
32-4,53022987,77
32-5,53026893,688
32-6,53030799,61
32-7,53034705,-545
32-8,53038611,-154
32-9,53042517,253
32-10,53046423,-178
32-11,53050329,-972
32-12,53054235,-827
32-13,53058141,421
32-14,53062047,631
32-15,53065953,-437
32-16,53069859,-603
32-17,53073765,418
32-18,53077671,949
32-19,53081577,20
32-20,53085483,-858
32-21,53089389,91
32-22,53093295,1038
32-23,53097201,232
32-24,53101107,-602
32-25,53105013,-257
32-26,53108919,545
32-27,53112825,490
32-28,53116731,-544
32-29,53120637,-727
32-30,53124543,9
32-31,53128449,282
32-32,53132355,-166
32-1,53136297,-796
32-2,53140203,-175
32-3,53144109,752
32-4,53148015,-20
32-5,53151921,-665
32-6,53155827,418
32-7,53159733,1237
32-8,53163639,520
32-9,53167545,-203
32-10,53171451,84
32-11,53175357,629
32-12,53179263,662
32-13,53183169,22
32-14,53187075,-289
32-15,53190981,397
32-16,53194887,377
32-17,53198793,-627
32-18,53202699,-497
32-19,53206605,587
32-20,53210511,664
32-21,53214417,-29
32-22,53218323,-102
32-23,53222229,205
32-24,53226135,244
32-25,53230041,121
32-26,53233947,-88
32-27,53237853,27
32-28,53241759,567
32-29,53245665,500
32-30,53249571,-275
32-31,53253477,-489
32-32,53257383,477
32-1,53261417,914
32-2,53265323,-172
32-3,53269229,-317
32-4,53273135,796
32-5,53277041,732
32-6,53280947,-357
32-7,53284853,-921
32-8,53288759,-166
32-9,53292665,971
32-10,53296571,675
32-11,53300477,-505
32-12,53304383,-697
32-13,53308289,478
32-14,53312195,1070
32-15,53316101,9
32-16,53320007,-526
32-17,53323913,555
32-18,53327819,1077
32-19,53331725,136
32-20,53335631,-462
32-21,53339537,152
32-22,53343443,557
32-23,53347349,-242
32-24,53351255,-1023
32-25,53355161,-332
32-26,53359067,801
32-27,53362973,413
32-28,53366879,-587
32-29,53370785,-459
32-30,53374691,131
32-31,53378597,299
32-32,53382503,197
32-1,53386262,-50
32-2,53390168,71
32-3,53394074,166
32-4,53397980,-461
32-5,53401886,-447
32-6,53405792,331
32-7,53409698,293
32-8,53413604,-206
32-9,53417510,-637
32-10,53421416,-540
32-11,53425322,537
32-12,53429228,502
32-13,53433134,-630
32-14,53437040,-448
32-15,53440946,560
32-16,53444852,670
32-17,53448758,-199
32-18,53452664,-514
32-19,53456570,104
32-20,53460476,449
32-21,53464382,201
32-22,53468288,-635
32-23,53472194,-702
32-24,53476100,841
32-25,53480006,836
32-26,53483912,-983
32-27,53487818,-565
32-28,53491724,1150
32-29,53495630,602
32-30,53499536,-695
32-31,53503442,-360
32-32,53507348,519
32-1,53511259,375
32-2,53515165,-471
32-3,53519071,-624
32-4,53522977,142
32-5,53526883,632
32-6,53530789,262
32-7,53534695,-274
32-8,53538601,-305
32-9,53542507,336
32-10,53546413,502
32-11,53550319,-370
32-12,53554225,-202
32-13,53558131,937
32-14,53562037,1067
32-15,53565943,215
32-16,53569849,-442
32-17,53573755,191
32-18,53577661,566
32-19,53581567,-453
32-20,53585473,-705
32-21,53589379,35
32-22,53593285,541
32-23,53597191,320
32-24,53601097,-520
32-25,53605003,-142
32-26,53608909,946
32-27,53612815,446
32-28,53616721,-593
32-29,53620627,-319
32-30,53624533,789
32-31,53628439,771
32-32,53632345,-566
32-1,53636257,-776
32-2,53640163,571
32-3,53644069,924
32-4,53647975,-240
32-5,53651881,-428
32-6,53655787,847
32-7,53659693,1112
32-8,53663599,-60
32-9,53667505,-566
32-10,53671411,185
32-11,53675317,982
32-12,53679223,815
32-13,53683129,-383
32-14,53687035,-820
32-15,53690941,480
32-16,53694847,805
32-17,53698753,-452
32-18,53702659,-393
32-19,53706565,558
32-20,53710471,314
32-21,53714377,-248
32-22,53718283,-255
32-23,53722189,23
32-24,53726095,636
32-25,53730001,461
32-26,53733907,-510
32-27,53737813,-222
32-28,53741719,651
32-29,53745625,482
32-30,53749531,-340
32-31,53753437,-604
32-32,53757343,510
32-1,53761377,1202
32-2,53765283,153
32-3,53769189,-439
32-4,53773095,422
32-5,53777001,697
32-6,53780907,-252
32-7,53784813,-796
32-8,53788719,47
32-9,53792625,1013
32-10,53796531,543
32-11,53800437,-385
32-12,53804343,-322
32-13,53808249,346
32-14,53812155,515
32-15,53816061,-90
32-16,53819967,-368
32-17,53823873,412
32-18,53827779,807
32-19,53831685,-103
32-20,53835591,-426
32-21,53839497,675
32-22,53843403,623
32-23,53847309,-613
32-24,53851215,-396
32-25,53855121,316
32-26,53859027,144
32-27,53862933,-39
32-28,53866839,-484
32-29,53870745,-773
32-30,53874651,389
32-31,53878557,987
32-32,53882463,-277
32-1,53886252,-875
32-2,53890158,-65
32-3,53894064,392
32-4,53897970,-70
32-5,53901876,-513
32-6,53905782,-11
32-7,53909688,294
32-8,53913594,-493
32-9,53917500,-665
32-10,53921406,228
32-11,53925312,684
32-12,53929218,297
32-13,53933124,-477
32-14,53937030,-438
32-15,53940936,583
32-16,53944842,433
32-17,53948748,-555
32-18,53952654,-488
32-19,53956560,-81
32-20,53960466,-19
32-21,53964372,-87
32-22,53968278,-358
32-23,53972184,-66
32-24,53976090,511
32-25,53979996,27
32-26,53983902,-585
32-27,53987808,-85
32-28,53991714,582
32-29,53995620,170
32-30,53999526,-1047
32-31,54003432,-1312
32-32,54007338,78
32-1,54011433,625
32-2,54015339,-651
32-3,54019245,-936
32-4,54023151,216
32-5,54027057,286
32-6,54030963,-731
32-7,54034869,-927
32-8,54038775,79
32-9,54042681,1022
32-10,54046587,596
32-11,54050493,-507
32-12,54054399,-342
32-13,54058305,520
32-14,54062211,169
32-15,54066117,-599
32-16,54070023,-687
32-17,54073929,-132
32-18,54077835,383
32-19,54081741,-321
32-20,54085647,-687
32-21,54089553,516
32-22,54093459,981
32-23,54097365,-149
32-24,54101271,-923
32-25,54105177,-9
32-26,54109083,1015
32-27,54112989,360
32-28,54116895,-638
32-29,54120801,-463
32-30,54124707,307
32-31,54128613,151
32-32,54132519,-703
32-1,54136247,-604
32-2,54140153,371
32-3,54144059,662
32-4,54147965,-328
32-5,54151871,-839
32-6,54155777,13
32-7,54159683,380
32-8,54163589,-131
32-9,54167495,-474
32-10,54171401,-83
32-11,54175307,705
32-12,54179213,520
32-13,54183119,-307
32-14,54187025,-330
32-15,54190931,396
32-16,54194837,614
32-17,54198743,-182
32-18,54202649,-607
32-19,54206555,-39
32-20,54210461,188
32-21,54214367,-114
32-22,54218273,-26
32-23,54222179,494
32-24,54226085,828
32-25,54229991,124
32-26,54233897,-862
32-27,54237803,-358
32-28,54241709,480
32-29,54245615,63
32-30,54249521,-565
32-31,54253427,-534
32-32,54257333,71
32-1,54261245,535
32-2,54265151,-82
32-3,54269057,-1021
32-4,54272963,-626
32-5,54276869,282
32-6,54280775,-164
32-7,54284681,-951
32-8,54288587,-375
32-9,54292493,619
32-10,54296399,131
32-11,54300305,-923
32-12,54304211,-324
32-13,54308117,837
32-14,54312023,500
32-15,54315929,-647
32-16,54319835,-820
32-17,54323741,2
32-18,54327647,142
32-19,54331553,-556
32-20,54335459,-634
32-21,54339365,112
32-22,54343271,556
32-23,54347177,19
32-24,54351083,-717
32-25,54354989,-274
32-26,54358895,812
32-27,54362801,461
32-28,54366707,-804
32-29,54370613,-732
32-30,54374519,438
32-31,54378425,572
32-32,54382331,-808
32-1,54386395,-1039
32-2,54390301,447
32-3,54394207,563
32-4,54398113,-290
32-5,54402019,-228
32-6,54405925,-214
32-7,54409831,-271
32-8,54413737,-186
32-9,54417643,-449
32-10,54421549,-295
32-11,54425455,343
32-12,54429361,378
32-13,54433267,-204
32-14,54437173,-109
32-15,54441079,539
32-16,54444985,285
32-17,54448891,-589
32-18,54452797,-928
32-19,54456703,105
32-20,54460609,969
32-21,54464515,-258
32-22,54468421,-1003
32-23,54472327,-43
32-24,54476233,674
32-25,54480139,528
32-26,54484045,-594
32-27,54487951,-838
32-28,54491857,543
32-29,54495763,508
32-30,54499669,-726
32-31,54503575,-685
32-32,54507481,198
32-1,54511240,607
32-2,54515146,-33
32-3,54519052,-534
32-4,54522958,318
32-5,54526864,829
32-6,54530770,122
32-7,54534676,-771
32-8,54538582,-916
32-9,54542488,206
32-10,54546394,637
32-11,54550300,-561
32-12,54554206,-720
32-13,54558112,545
32-14,54562018,692
32-15,54565924,-642
32-16,54569830,-911
32-17,54573736,505
32-18,54577642,599
32-19,54581548,-679
32-20,54585454,-744
32-21,54589360,129
32-22,54593266,859
32-23,54597172,253
32-24,54601078,-1194
32-25,54604984,-248
32-26,54608890,1304
32-27,54612796,217
32-28,54616702,-1119
32-29,54620608,-938
32-30,54624514,134
32-31,54628420,782
32-32,54632326,4
32-1,54636238,-527
32-2,54640144,79
32-3,54644050,252
32-4,54647956,-478
32-5,54651862,-759
32-6,54655768,23
32-7,54659674,468
32-8,54663580,-22
32-9,54667486,-369
32-10,54671392,-121
32-11,54675298,417
32-12,54679204,445
32-13,54683110,-474
32-14,54687016,-862
32-15,54690922,251
32-16,54694828,732
32-17,54698734,-390
32-18,54702640,-695
32-19,54706546,342
