32-1,336511910,22
32-2,336515816,-4
32-3,336519722,-22
32-4,336523628,-32
32-5,336527534,-11
32-6,336531440,56
32-7,336535346,80
32-8,336539252,42
32-9,336543158,15
32-10,336547064,-14
32-11,336550970,-59
32-12,336554876,-62
32-13,336558782,-14
32-14,336562688,24
32-15,336566594,26
32-16,336570500,23
32-17,336574406,16
32-18,336578312,-6
32-19,336582218,-14
32-20,336586124,23
32-21,336590030,63
32-22,336593936,53
32-23,336597842,42
32-24,336601748,54
32-25,336605654,25
32-26,336609560,-19
32-27,336613466,-18
32-28,336617372,-9
32-29,336621278,-35
32-30,336625184,-46
32-31,336629090,2
32-32,336632996,19
32-1,336636908,-26
32-2,336640814,-64
32-3,336644720,-82
32-4,336648626,-61
32-5,336652532,-28
32-6,336656438,-33
32-7,336660344,-35
32-8,336664250,-51
32-9,336668156,-90
32-10,336672062,-68
32-11,336675968,-3
32-12,336679874,21
32-13,336683780,4
32-14,336687686,-3
32-15,336691592,1
32-16,336695498,-35
32-17,336699404,-81
32-18,336703310,-84
32-19,336707216,-52
32-20,336711122,-17
32-21,336715028,-14
32-22,336718934,-25
32-23,336722840,-31
32-24,336726746,-66
32-25,336730652,-70
32-26,336734558,-20
32-27,336738464,-11
32-28,336742370,-24
32-29,336746276,-20
32-30,336750182,-58
32-31,336754088,-110
32-32,336757994,-117
32-1,336762088,-106
32-2,336765994,-86
32-3,336769900,-42
32-4,336773806,2
32-5,336777712,42
32-6,336781618,53
32-7,336785524,14
32-8,336789430,-10
32-9,336793336,1
32-10,336797242,5
32-11,336801148,7
32-12,336805054,4
32-13,336808960,-8
32-14,336812866,-27
32-15,336816772,-78
32-16,336820678,-133
32-17,336824584,-135
32-18,336828490,-94
32-19,336832396,-74
32-20,336836302,-82
32-21,336840208,-88
32-22,336844114,-98
32-23,336848020,-128
32-24,336851926,-136
32-25,336855832,-82
32-26,336859738,-13
32-27,336863644,-1
32-28,336867550,-22
32-29,336871456,-43
32-30,336875362,-77
32-31,336879268,-92
32-32,336883174,-85
32-1,336886933,-75
32-2,336890839,-34
32-3,336894745,5
32-4,336898651,17
32-5,336902557,9
32-6,336906463,-42
32-7,336910369,-67
32-8,336914275,-18
32-9,336918181,24
32-10,336922087,10
32-11,336925993,-20
32-12,336929899,-21
32-13,336933805,-36
32-14,336937711,-94
32-15,336941617,-88
32-16,336945523,-19
32-17,336949429,-15
32-18,336953335,-43
32-19,336957241,-22
32-20,336961147,-6
32-21,336965053,-46
32-22,336968959,-88
32-23,336972865,-93
32-24,336976771,-89
32-25,336980677,-86
32-26,336984583,-76
32-27,336988489,-69
32-28,336992395,-47
32-29,336996301,-12
32-30,337000207,-16
32-31,337004113,-43
32-32,337008019,-34
32-1,337011901,0
32-2,337015807,21
32-3,337019713,19
32-4,337023619,-2
32-5,337027525,-5
32-6,337031431,30
32-7,337035337,73
32-8,337039243,89
32-9,337043149,75
32-10,337047055,66
32-11,337050961,55
32-12,337054867,8
32-13,337058773,-42
32-14,337062679,-53
32-15,337066585,-42
32-16,337070491,-32
32-17,337074397,-35
32-18,337078303,-35
32-19,337082209,-20
32-20,337086115,-44
32-21,337090021,-82
32-22,337093927,-43
32-23,337097833,37
32-24,337101739,46
32-25,337105645,12
32-26,337109551,17
32-27,337113457,24
32-28,337117363,18
32-29,337121269,18
32-30,337125175,-15
32-31,337129081,-19
32-32,337132987,18
32-1,337136898,24
32-2,337140804,15
32-3,337144710,-21
32-4,337148616,-92
32-5,337152522,-120
32-6,337156428,-80
32-7,337160334,-38
32-8,337164240,-50
32-9,337168146,-71
32-10,337172052,-76
32-11,337175958,-105
32-12,337179864,-113
32-13,337183770,-70
32-14,337187676,-60
32-15,337191582,-102
32-16,337195488,-114
32-17,337199394,-81
32-18,337203300,-85
32-19,337207206,-138
32-20,337211112,-129
32-21,337215018,-50
32-22,337218924,-18
32-23,337222830,-22
32-24,337226736,4
32-25,337230642,1
32-26,337234548,-52
32-27,337238454,-85
32-28,337242360,-78
32-29,337246266,-35
32-30,337250172,10
32-31,337254078,14
32-32,337257984,27
32-1,337261896,47
32-2,337265802,12
32-3,337269708,-34
32-4,337273614,-55
32-5,337277520,-46
32-6,337281426,-22
32-7,337285332,-35
32-8,337289238,-44
32-9,337293144,-38
32-10,337297050,-72
32-11,337300956,-81
32-12,337304862,-43
32-13,337308768,-36
32-14,337312674,-58
32-15,337316580,-64
32-16,337320486,-57
32-17,337324392,-72
32-18,337328298,-96
32-19,337332204,-94
32-20,337336110,-64
32-21,337340016,-23
32-22,337343922,-10
32-23,337347828,-9
32-24,337351734,-1
32-25,337355640,-38
32-26,337359546,-60
32-27,337363452,-21
32-28,337367358,3
32-29,337371264,13
32-30,337375170,36
32-31,337379076,35
32-32,337382982,-15
32-1,337386893,-70
32-2,337390799,-83
32-3,337394705,-66
32-4,337398611,-27
32-5,337402517,6
32-6,337406423,11
32-7,337410329,19
32-8,337414235,0
32-9,337418141,-33
32-10,337422047,-4
32-11,337425953,18
32-12,337429859,-8
32-13,337433765,-18
32-14,337437671,-28
32-15,337441577,-48
32-16,337445483,-58
32-17,337449389,-89
32-18,337453295,-103
32-19,337457201,-69
32-20,337461107,-36
32-21,337465013,-28
32-22,337468919,-40
32-23,337472825,-81
32-24,337476731,-116
32-25,337480637,-103
32-26,337484543,-77
32-27,337488449,-70
32-28,337492355,-61
32-29,337496261,-40
32-30,337500167,-32
32-31,337504073,-41
32-32,337507979,-47
32-1,337512044,-51
32-2,337515950,-55
32-3,337519856,-57
32-4,337523762,-49
32-5,337527668,-44
32-6,337531574,-63
32-7,337535480,-102
32-8,337539386,-117
32-9,337543292,-68
32-10,337547198,-1
32-11,337551104,15
32-12,337555010,-15
32-13,337558916,-46
32-14,337562822,-55
32-15,337566728,-53
32-16,337570634,-73
32-17,337574540,-78
32-18,337578446,-33
32-19,337582352,-10
32-20,337586258,-26
32-21,337590164,-21
32-22,337594070,-35
32-23,337597976,-83
32-24,337601882,-91
32-25,337605788,-54
32-26,337609694,-18
32-27,337613600,-5
32-28,337617506,-6
32-29,337621412,-17
32-30,337625318,-48
32-31,337629224,-79
32-32,337633130,-115
32-1,337636889,-122
32-2,337640795,-78
32-3,337644701,-52
32-4,337648607,-43
32-5,337652513,-45
32-6,337656419,-93
32-7,337660325,-107
32-8,337664231,-58
32-9,337668137,-24
32-10,337672043,-32
32-11,337675949,-31
32-12,337679855,19
32-13,337683761,32
32-14,337687667,-33
32-15,337691573,-61
32-16,337695479,-25
32-17,337699385,8
32-18,337703291,18
32-19,337707197,25
32-20,337711103,42
32-21,337715009,28
32-22,337718915,-30
32-23,337722821,-51
32-24,337726727,-26
32-25,337730633,0
32-26,337734539,23
32-27,337738445,14
32-28,337742351,-14
32-29,337746257,-11
32-30,337750163,-32
32-31,337754069,-80
32-32,337757975,-63
32-1,337761886,-15
32-2,337765792,8
32-3,337769698,22
32-4,337773604,-5
32-5,337777510,-56
32-6,337781416,-70
32-7,337785322,-70
32-8,337789228,-69
32-9,337793134,-55
32-10,337797040,-40
32-11,337800946,-36
32-12,337804852,-59
32-13,337808758,-97
32-14,337812664,-92
32-15,337816570,-41
32-16,337820476,-10
32-17,337824382,-23
32-18,337828288,-23
32-19,337832194,-11
32-20,337836100,-46
32-21,337840006,-82
32-22,337843912,-43
32-23,337847818,31
32-24,337851724,29
32-25,337855630,-19
32-26,337859536,-2
32-27,337863442,8
32-28,337867348,-57
32-29,337871254,-88
32-30,337875160,-64
32-31,337879066,-51
32-32,337882972,-58
32-1,337886884,-38
32-2,337890790,-13
32-3,337894696,-34
32-4,337898602,-71
32-5,337902508,-86
32-6,337906414,-71
32-7,337910320,-43
32-8,337914226,-39
32-9,337918132,-16
32-10,337922038,14
32-11,337925944,-9
32-12,337929850,-26
32-13,337933756,-20
32-14,337937662,-18
32-15,337941568,4
32-16,337945474,36
32-17,337949380,40
32-18,337953286,9
32-19,337957192,-29
32-20,337961098,-41
32-21,337965004,-18
32-22,337968910,6
32-23,337972816,3
32-24,337976722,6
32-25,337980628,28
32-26,337984534,7
32-27,337988440,-48
32-28,337992346,-52
32-29,337996252,-19
32-30,338000158,-12
32-31,338004064,-12
32-32,338007970,-7
32-1,338011882,-33
32-2,338015788,-74
32-3,338019694,-103
32-4,338023600,-113
32-5,338027506,-79
32-6,338031412,-46
32-7,338035318,-75
32-8,338039224,-89
32-9,338043130,-69
32-10,338047036,-79
32-11,338050942,-70
32-12,338054848,-25
32-13,338058754,-5
32-14,338062660,-22
32-15,338066566,-35
32-16,338070472,-36
32-17,338074378,-55
32-18,338078284,-89
32-19,338082190,-83
32-20,338086096,-45
32-21,338090002,-22
32-22,338093908,-14
32-23,338097814,-5
32-24,338101720,6
32-25,338105626,-7
32-26,338109532,-46
32-27,338113438,-50
32-28,338117344,-14
32-29,338121250,6
32-30,338125156,12
32-31,338129062,38
32-32,338132968,38
32-1,338136879,-26
32-2,338140785,-59
32-3,338144691,-16
32-4,338148597,24
32-5,338152503,51
32-6,338156409,83
32-7,338160315,83
32-8,338164221,52
32-9,338168127,37
32-10,338172033,55
32-11,338175939,70
32-12,338179845,61
32-13,338183751,51
32-14,338187657,37
32-15,338191563,2
32-16,338195469,-22
32-17,338199375,-5
32-18,338203281,14
32-19,338207187,27
32-20,338211093,54
32-21,338214999,72
32-22,338218905,59
32-23,338222811,31
32-24,338226717,-4
32-25,338230623,-28
32-26,338234529,-13
32-27,338238435,6
32-28,338242341,1
32-29,338246247,6
32-30,338250153,29
32-31,338254059,25
32-32,338257965,-25
32-1,338262060,-68
32-2,338265966,-58
32-3,338269872,-32
32-4,338273778,-30
32-5,338277684,-45
32-6,338281590,-49
32-7,338285496,-46
32-8,338289402,-41
32-9,338293308,-8
32-10,338297214,32
32-11,338301120,27
32-12,338305026,-1
32-13,338308932,-10
32-14,338312838,-43
32-15,338316744,-94
32-16,338320650,-85
32-17,338324556,-41
32-18,338328462,-16
32-19,338332368,4
32-20,338336274,4
32-21,338340180,-27
32-22,338344086,-63
32-23,338347992,-89
32-24,338351898,-102
32-25,338355804,-74
32-26,338359710,-25
32-27,338363616,-21
32-28,338367522,-26
32-29,338371428,-18
32-30,338375334,-72
32-31,338379240,-135
32-32,338383146,-127
32-1,338386874,-106
32-2,338390780,-91
32-3,338394686,-69
32-4,338398592,-53
32-5,338402498,-47
32-6,338406404,-72
32-7,338410310,-98
32-8,338414216,-84
32-9,338418122,-51
32-10,338422028,-27
32-11,338425934,-7
32-12,338429840,22
32-13,338433746,13
32-14,338437652,-54
32-15,338441558,-90
32-16,338445464,-45
32-17,338449370,5
32-18,338453276,19
32-19,338457182,26
32-20,338461088,35
32-21,338464994,21
32-22,338468900,-19
32-23,338472806,-20
32-24,338476712,23
32-25,338480618,17
32-26,338484524,-15
32-27,338488430,-16
32-28,338492336,-25
32-29,338496242,-33
32-30,338500148,-48
32-31,338504054,-87
32-32,338507960,-76
32-1,338511872,-39
32-2,338515778,-29
32-3,338519684,-20
32-4,338523590,-44
32-5,338527496,-110
32-6,338531402,-120
32-7,338535308,-77
32-8,338539214,-55
32-9,338543120,-47
32-10,338547026,-32
32-11,338550932,-32
32-12,338554838,-69
32-13,338558744,-112
32-14,338562650,-91
32-15,338566556,-30
32-16,338570462,-5
32-17,338574368,-17
32-18,338578274,8
32-19,338582180,36
32-20,338586086,-28
32-21,338589992,-70
32-22,338593898,-39
32-23,338597804,-37
32-24,338601710,-40
32-25,338605616,-14
32-26,338609522,-8
32-27,338613428,-24
32-28,338617334,-21
32-29,338621240,-4
32-30,338625146,-9
32-31,338629052,11
32-32,338632958,59
32-1,338636870,71
32-2,338640776,67
32-3,338644682,53
32-4,338648588,27
32-5,338652494,19
32-6,338656400,4
32-7,338660306,-27
32-8,338664212,-31
32-9,338668118,-22
32-10,338672024,-45
32-11,338675930,-72
32-12,338679836,-56
32-13,338683742,-16
32-14,338687648,1
32-15,338691554,-23
32-16,338695460,-42
32-17,338699366,-18
32-18,338703272,-27
32-19,338707178,-88
32-20,338711084,-97
32-21,338714990,-53
32-22,338718896,-41
32-23,338722802,-44
32-24,338726708,-10
32-25,338730614,31
32-26,338734520,13
32-27,338738426,-35
32-28,338742332,-32
32-29,338746238,19
32-30,338750144,43
32-31,338754050,22
32-32,338757956,10
32-1,338761867,3
32-2,338765773,-42
32-3,338769679,-84
32-4,338773585,-79
32-5,338777491,-45
32-6,338781397,-16
32-7,338785303,-5
32-8,338789209,-5
32-9,338793115,-25
32-10,338797021,-66
32-11,338800927,-82
32-12,338804833,-65
32-13,338808739,-48
32-14,338812645,-42
32-15,338816551,-51
32-16,338820457,-64
32-17,338824363,-82
32-18,338828269,-114
32-19,338832175,-98
32-20,338836081,-42
32-21,338839987,-20
32-22,338843893,-19
32-23,338847799,-24
32-24,338851705,-48
32-25,338855611,-86
32-26,338859517,-104
32-27,338863423,-86
32-28,338867329,-51
32-29,338871235,-27
32-30,338875141,-36
32-31,338879047,-37
32-32,338882953,-43
32-1,338886865,-87
32-2,338890771,-98
32-3,338894677,-66
32-4,338898583,-38
32-5,338902489,-21
32-6,338906395,-1
32-7,338910301,23
32-8,338914207,-4
32-9,338918113,-60
32-10,338922019,-51
32-11,338925925,0
32-12,338929831,27
32-13,338933737,39
32-14,338937643,50
32-15,338941549,28
32-16,338945455,-21
32-17,338949361,-59
32-18,338953267,-67
32-19,338957173,-52
32-20,338961079,-44
32-21,338964985,-58
32-22,338968891,-58
32-23,338972797,-49
32-24,338976703,-93
32-25,338980609,-139
32-26,338984515,-118
32-27,338988421,-60
32-28,338992327,-10
32-29,338996233,-10
32-30,339000139,-52
32-31,339004045,-95
32-32,339007951,-127
32-1,339012107,-127
32-2,339016013,-99
32-3,339019919,-71
32-4,339023825,-57
32-5,339027731,-54
32-6,339031637,-45
32-7,339035543,-57
32-8,339039449,-91
32-9,339043355,-98
32-10,339047261,-74
32-11,339051167,-55
32-12,339055073,-73
32-13,339058979,-118
32-14,339062885,-142
32-15,339066791,-142
32-16,339070697,-126
32-17,339074603,-87
32-18,339078509,-43
32-19,339082415,-14
32-20,339086321,-19
32-21,339090227,-36
32-22,339094133,-17
32-23,339098039,-15
32-24,339101945,-51
32-25,339105851,-43
32-26,339109757,-4
32-27,339113663,-9
32-28,339117569,-29
32-29,339121475,-41
32-30,339125381,-93
32-31,339129287,-127
32-32,339133193,-112
32-1,339136860,-107
32-2,339140766,-83
32-3,339144672,-41
32-4,339148578,-35
32-5,339152484,-61
32-6,339156390,-88
32-7,339160296,-77
32-8,339164202,-35
32-9,339168108,0
32-10,339172014,12
32-11,339175920,10
32-12,339179826,12
32-13,339183732,-22
32-14,339187638,-102
32-15,339191544,-120
32-16,339195450,-70
32-17,339199356,-42
32-18,339203262,-42
32-19,339207168,-30
32-20,339211074,-19
32-21,339214980,-45
32-22,339218886,-81
32-23,339222792,-97
32-24,339226698,-89
32-25,339230604,-71
32-26,339234510,-70
32-27,339238416,-79
32-28,339242322,-72
32-29,339246228,-57
32-30,339250134,-77
32-31,339254040,-95
32-32,339257946,-46
32-1,339261858,3
32-2,339265764,-2
32-3,339269670,-18
32-4,339273576,-38
32-5,339277482,-61
32-6,339281388,-74
32-7,339285294,-64
32-8,339289200,-42
32-9,339293106,-37
32-10,339297012,-17
32-11,339300918,2
32-12,339304824,-29
32-13,339308730,-66
32-14,339312636,-56
32-15,339316542,-28
32-16,339320448,-31
32-17,339324354,-54
32-18,339328260,-47
32-19,339332166,-50
32-20,339336072,-94
32-21,339339978,-113
32-22,339343884,-80
32-23,339347790,-32
32-24,339351696,-23
32-25,339355602,-53
32-26,339359508,-44
32-27,339363414,-25
32-28,339367320,-53
32-29,339371226,-83
32-30,339375132,-68
32-31,339379038,-32
32-32,339382944,-15
32-1,339386856,-15
32-2,339390762,-21
32-3,339394668,-41
32-4,339398574,-53
32-5,339402480,-61
32-6,339406386,-36
32-7,339410292,8
32-8,339414198,-13
32-9,339418104,-55
32-10,339422010,-55
32-11,339425916,-53
32-12,339429822,-62
32-13,339433728,-67
32-14,339437634,-62
32-15,339441540,-51
32-16,339445446,-37
32-17,339449352,-21
32-18,339453258,-45
32-19,339457164,-109
32-20,339461070,-141
32-21,339464976,-112
32-22,339468882,-78
32-23,339472788,-72
32-24,339476694,-58
32-25,339480600,-47
32-26,339484506,-78
32-27,339488412,-113
32-28,339492318,-95
32-29,339496224,-52
32-30,339500130,-57
32-31,339504036,-94
32-32,339507942,-96
32-1,339511853,-88
32-2,339515759,-93
32-3,339519665,-104
32-4,339523571,-123
32-5,339527477,-107
32-6,339531383,-67
32-7,339535289,-61
32-8,339539195,-49
32-9,339543101,-46
32-10,339547007,-94
32-11,339550913,-105
32-12,339554819,-52
32-13,339558725,-17
32-14,339562631,-20
32-15,339566537,-30
32-16,339570443,-27
32-17,339574349,-41
32-18,339578255,-81
32-19,339582161,-82
32-20,339586067,-47
32-21,339589973,-34
32-22,339593879,-39
32-23,339597785,-39
32-24,339601691,-62
32-25,339605597,-98
32-26,339609503,-86
32-27,339613409,-66
32-28,339617315,-73
32-29,339621221,-67
32-30,339625127,-52
32-31,339629033,-31
32-32,339632939,-21
32-1,339636942,-59
32-2,339640848,-87
32-3,339644754,-63
32-4,339648660,-45
32-5,339652566,-43
32-6,339656472,-21
32-7,339660378,-14
32-8,339664284,-28
32-9,339668190,-30
32-10,339672096,-33
32-11,339676002,-23
32-12,339679908,-22
32-13,339683814,-57
32-14,339687720,-63
32-15,339691626,-44
32-16,339695532,-46
32-17,339699438,-60
32-18,339703344,-62
32-19,339707250,-39
32-20,339711156,-15
32-21,339715062,3
32-22,339718968,27
32-23,339722874,11
32-24,339726780,-36
32-25,339730686,-27
32-26,339734592,2
32-27,339738498,-30
32-28,339742404,-52
32-29,339746310,-34
32-30,339750216,-49
32-31,339754122,-67
32-32,339758028,-48
32-1,339761848,-43
32-2,339765754,-44
32-3,339769660,-10
32-4,339773566,13
32-5,339777472,10
32-6,339781378,17
32-7,339785284,-19
32-8,339789190,-76
32-9,339793096,-62
32-10,339797002,-15
32-11,339800908,2
32-12,339804814,-11
32-13,339808720,-28
32-14,339812626,-36
32-15,339816532,-72
32-16,339820438,-108
32-17,339824344,-79
32-18,339828250,-31
32-19,339832156,-35
32-20,339836062,-52
32-21,339839968,-26
32-22,339843874,-18
32-23,339847780,-66
32-24,339851686,-78
32-25,339855592,-37
32-26,339859498,-2
32-27,339863404,-1
32-28,339867310,-19
32-29,339871216,-34
32-30,339875122,-75
32-31,339879028,-101
32-32,339882934,-81
32-1,339886999,-62
32-2,339890905,-45
32-3,339894811,-46
32-4,339898717,-55
32-5,339902623,-37
32-6,339906529,-34
32-7,339910435,-42
32-8,339914341,-38
32-9,339918247,-38
32-10,339922153,-38
32-11,339926059,-28
32-12,339929965,-7
32-13,339933871,-20
32-14,339937777,-85
32-15,339941683,-90
32-16,339945589,-41
32-17,339949495,-22
32-18,339953401,-15
32-19,339957307,4
32-20,339961213,4
32-21,339965119,-52
32-22,339969025,-117
32-23,339972931,-102
32-24,339976837,-53
32-25,339980743,-47
32-26,339984649,-32
32-27,339988555,-14
32-28,339992461,-33
32-29,339996367,-47
32-30,340000273,-70
32-31,340004179,-110
32-32,340008085,-112
32-1,340011844,-73
32-2,340015750,-54
32-3,340019656,-57
32-4,340023562,-58
32-5,340027468,-72
32-6,340031374,-90
32-7,340035280,-61
32-8,340039186,-13
32-9,340043092,13
32-10,340046998,12
32-11,340050904,-9
32-12,340054810,-40
32-13,340058716,-60
32-14,340062622,-64
32-15,340066528,-61
32-16,340070434,-61
32-17,340074340,-63
32-18,340078246,-46
32-19,340082152,-27
32-20,340086058,-62
32-21,340089964,-103
32-22,340093870,-78
32-23,340097776,-24
32-24,340101682,-6
32-25,340105588,-20
32-26,340109494,-24
32-27,340113400,-49
32-28,340117306,-100
32-29,340121212,-90
32-30,340125118,-44
32-31,340129024,-18
32-32,340132930,-13
32-1,340136841,-27
32-2,340140747,-7
32-3,340144653,10
32-4,340148559,-36
32-5,340152465,-57
32-6,340156371,-13
32-7,340160277,28
32-8,340164183,36
32-9,340168089,41
32-10,340171995,47
32-11,340175901,20
32-12,340179807,-18
32-13,340183713,-20
32-14,340187619,-3
32-15,340191525,1
32-16,340195431,3
32-17,340199337,4
32-18,340203243,-23
32-19,340207149,-76
32-20,340211055,-109
32-21,340214961,-88
32-22,340218867,-42
32-23,340222773,-30
32-24,340226679,-31
32-25,340230585,-12
32-26,340234491,-23
32-27,340238397,-50
32-28,340242303,-37
32-29,340246209,-10
32-30,340250115,-11
32-31,340254021,-22
32-32,340257927,-7
32-1,340261992,6
32-2,340265898,-20
32-3,340269804,-62
32-4,340273710,-72
32-5,340277616,-25
32-6,340281522,15
32-7,340285428,9
32-8,340289334,23
32-9,340293240,34
32-10,340297146,-14
32-11,340301052,-25
32-12,340304958,7
32-13,340308864,0
32-14,340312770,-9
32-15,340316676,0
32-16,340320582,2
32-17,340324488,-9
32-18,340328394,-22
32-19,340332300,6
32-20,340336206,57
32-21,340340112,88
32-22,340344018,98
32-23,340347924,88
32-24,340351830,73
32-25,340355736,51
32-26,340359642,12
32-27,340363548,-23
32-28,340367454,-23
32-29,340371360,-1
32-30,340375266,-3
32-31,340379172,-4
32-32,340383078,-18
32-1,340386837,-75
32-2,340390743,-97
32-3,340394649,-59
32-4,340398555,-16
32-5,340402461,-16
32-6,340406367,-53
32-7,340410273,-59
32-8,340414179,-66
32-9,340418085,-110
32-10,340421991,-104
32-11,340425897,-52
32-12,340429803,-34
32-13,340433709,-59
32-14,340437615,-69
32-15,340441521,-41
32-16,340445427,-39
32-17,340449333,-62
32-18,340453239,-52
32-19,340457145,-29
32-20,340461051,-19
32-21,340464957,-17
32-22,340468863,-2
32-23,340472769,22
32-24,340476675,6
32-25,340480581,-19
32-26,340484487,14
32-27,340488393,50
32-28,340492299,31
32-29,340496205,8
32-30,340500111,6
32-31,340504017,-10
32-32,340507923,-32
32-1,340511834,-50
32-2,340515740,-53
32-3,340519646,-15
32-4,340523552,26
32-5,340527458,52
32-6,340531364,56
32-7,340535270,-11
32-8,340539176,-77
32-9,340543082,-44
32-10,340546988,8
32-11,340550894,13
32-12,340554800,11
32-13,340558706,-1
32-14,340562612,-20
32-15,340566518,-37
32-16,340570424,-55
32-17,340574330,-25
32-18,340578236,30
32-19,340582142,38
32-20,340586048,23
32-21,340589954,13
32-22,340593860,-7
32-23,340597766,-38
32-24,340601672,-57
32-25,340605578,-39
32-26,340609484,-22
32-27,340613390,-38
32-28,340617296,-31
32-29,340621202,-22
32-30,340625108,-63
32-31,340629014,-92
32-32,340632920,-88
32-1,340636832,-65
32-2,340640738,-19
32-3,340644644,-4
32-4,340648550,-18
32-5,340652456,-19
32-6,340656362,-27
32-7,340660268,-46
32-8,340664174,-51
32-9,340668080,-13
32-10,340671986,29
32-11,340675892,17
32-12,340679798,-14
32-13,340683704,-42
32-14,340687610,-74
32-15,340691516,-77
32-16,340695422,-45
32-17,340699328,-28
32-18,340703234,-44
32-19,340707140,-45
32-20,340711046,-21
32-21,340714952,-42
32-22,340718858,-97
32-23,340722764,-85
32-24,340726670,-21
32-25,340730576,22
32-26,340734482,38
32-27,340738388,24
32-28,340742294,-9
32-29,340746200,-19
32-30,340750106,-35
32-31,340754012,-63
32-32,340757918,-43
32-1,340761829,-10
32-2,340765735,-13
32-3,340769641,-5
32-4,340773547,7
32-5,340777453,-13
32-6,340781359,-21
32-7,340785265,-15
32-8,340789171,-13
32-9,340793077,-14
32-10,340796983,-32
32-11,340800889,-75
32-12,340804795,-150
32-13,340808701,-204
32-14,340812607,-167
32-15,340816513,-91
32-16,340820419,-56
32-17,340824325,-63
32-18,340828231,-55
32-19,340832137,-41
32-20,340836043,-77
32-21,340839949,-113
32-22,340843855,-93
32-23,340847761,-51
32-24,340851667,-25
32-25,340855573,-1
32-26,340859479,12
32-27,340863385,-34
32-28,340867291,-80
32-29,340871197,-62
32-30,340875103,-34
32-31,340879009,-6
32-32,340882915,9
32-1,340886949,0
32-2,340890855,-2
32-3,340894761,-30
32-4,340898667,-75
32-5,340902573,-100
32-6,340906479,-118
32-7,340910385,-97
32-8,340914291,-62
32-9,340918197,-57
32-10,340922103,-44
32-11,340926009,-43
32-12,340929915,-73
32-13,340933821,-69
32-14,340937727,-19
32-15,340941633,10
32-16,340945539,7
32-17,340949445,0
32-18,340953351,-35
32-19,340957257,-87
32-20,340961163,-79
32-21,340965069,-25
32-22,340968975,-4
32-23,340972881,-17
32-24,340976787,-25
32-25,340980693,-24
32-26,340984599,-42
32-27,340988505,-75
32-28,340992411,-63
32-29,340996317,-16
32-30,341000223,6
32-31,341004129,24
32-32,341008035,55
32-1,341011825,54
32-2,341015731,17
32-3,341019637,-2
32-4,341023543,6
32-5,341027449,19
32-6,341031355,45
32-7,341035261,59
32-8,341039167,48
32-9,341043073,3
32-10,341046979,-55
32-11,341050885,-60
32-12,341054791,-20
32-13,341058697,4
32-14,341062603,0
32-15,341066509,-12
32-16,341070415,-21
32-17,341074321,-29
32-18,341078227,-33
32-19,341082133,-12
32-20,341086039,21
32-21,341089945,39
32-22,341093851,56
32-23,341097757,76
32-24,341101663,88
32-25,341105569,74
32-26,341109475,22
32-27,341113381,1
32-28,341117287,44
32-29,341121193,65
32-30,341125099,32
32-31,341129005,24
32-32,341132911,48
32-1,341136822,32
32-2,341140728,0
32-3,341144634,13
32-4,341148540,42
32-5,341152446,42
32-6,341156352,46
32-7,341160258,80
32-8,341164164,69
32-9,341168070,42
32-10,341171976,81
32-11,341175882,102
32-12,341179788,74
32-13,341183694,58
32-14,341187600,58
32-15,341191506,68
32-16,341195412,51
32-17,341199318,13
32-18,341203224,11
32-19,341207130,19
32-20,341211036,4
32-21,341214942,3
32-22,341218848,26
32-23,341222754,33
32-24,341226660,1
32-25,341230566,-30
32-26,341234472,-12
32-27,341238378,18
32-28,341242284,17
32-29,341246190,29
32-30,341250096,28
32-31,341254002,-25
32-32,341257908,-57
32-1,341261820,-54
32-2,341265726,-52
32-3,341269632,-34
32-4,341273538,-13
32-5,341277444,-10
32-6,341281350,-14
32-7,341285256,-42
32-8,341289162,-76
32-9,341293068,-59
32-10,341296974,-25
32-11,341300880,-26
32-12,341304786,-29
32-13,341308692,-9
32-14,341312598,-5
32-15,341316504,-40
32-16,341320410,-47
32-17,341324316,-10
32-18,341328222,33
32-19,341332128,76
32-20,341336034,86
32-21,341339940,60
32-22,341343846,39
32-23,341347752,12
32-24,341351658,-6
32-25,341355564,27
32-26,341359470,91
32-27,341363376,95
32-28,341367282,64
32-29,341371188,56
32-30,341375094,24
32-31,341379000,-4
32-32,341382906,11
32-1,341386818,33
32-2,341390724,61
32-3,341394630,61
32-4,341398536,28
32-5,341402442,-10
32-6,341406348,-50
32-7,341410254,-35
32-8,341414160,29
32-9,341418066,44
32-10,341421972,17
32-11,341425878,16
32-12,341429784,29
32-13,341433690,16
32-14,341437596,-4
32-15,341441502,7
32-16,341445408,34
32-17,341449314,55
32-18,341453220,61
32-19,341457126,41
32-20,341461032,11
32-21,341464938,-9
32-22,341468844,-26
32-23,341472750,-28
32-24,341476656,-8
32-25,341480562,19
32-26,341484468,35
32-27,341488374,19
32-28,341492280,-4
32-29,341496186,0
32-30,341500092,-28
32-31,341503998,-81
32-32,341507904,-54
32-1,341511815,7
32-2,341515721,7
32-3,341519627,-8
32-4,341523533,-31
32-5,341527439,-66
32-6,341531345,-64
32-7,341535251,-43
32-8,341539157,-28
32-9,341543063,-23
32-10,341546969,-41
32-11,341550875,-32
32-12,341554781,-14
32-13,341558687,-43
32-14,341562593,-41
32-15,341566499,-10
32-16,341570405,-14
32-17,341574311,-16
32-18,341578217,-10
32-19,341582123,-31
32-20,341586029,-75
32-21,341589935,-104
32-22,341593841,-83
32-23,341597747,-34
32-24,341601653,-15
32-25,341605559,-1
32-26,341609465,36
32-27,341613371,37
32-28,341617277,-11
32-29,341621183,-46
32-30,341625089,-57
32-31,341628995,-41
32-32,341632901,-27
32-1,341636813,-32
32-2,341640719,-12
32-3,341644625,-13
32-4,341648531,-74
32-5,341652437,-105
32-6,341656343,-66
32-7,341660249,-10
32-8,341664155,8
32-9,341668061,-12
32-10,341671967,-22
32-11,341675873,-29
32-12,341679779,-52
32-13,341683685,-58
32-14,341687591,-37
32-15,341691497,-13
32-16,341695403,1
32-17,341699309,-7
32-18,341703215,-29
32-19,341707121,-59
32-20,341711027,-79
32-21,341714933,-78
32-22,341718839,-59
32-23,341722745,-30
32-24,341726651,-8
32-25,341730557,-6
32-26,341734463,-31
32-27,341738369,-71
32-28,341742275,-69
32-29,341746181,-28
32-30,341750087,-22
32-31,341753993,-50
32-32,341757899,-49
32-1,341761811,-29
32-2,341765717,-46
32-3,341769623,-64
32-4,341773529,-68
32-5,341777435,-71
32-6,341781341,-51
32-7,341785247,-32
32-8,341789153,-24
32-9,341793059,-33
32-10,341796965,-74
32-11,341800871,-89
32-12,341804777,-61
32-13,341808683,-43
32-14,341812589,-31
32-15,341816495,-12
32-16,341820401,-17
32-17,341824307,-31
32-18,341828213,-26
32-19,341832119,0
32-20,341836025,33
32-21,341839931,30
32-22,341843837,9
32-23,341847743,5
32-24,341851649,-3
32-25,341855555,-17
32-26,341859461,-27
32-27,341863367,-37
32-28,341867273,-26
32-29,341871179,-2
32-30,341875085,1
32-31,341878991,9
32-32,341882897,33
32-1,341886808,29
32-2,341890714,-7
32-3,341894620,-42
32-4,341898526,-51
32-5,341902432,-40
32-6,341906338,-27
32-7,341910244,-23
32-8,341914150,-55
32-9,341918056,-100
32-10,341921962,-100
32-11,341925868,-70
32-12,341929774,-50
32-13,341933680,-47
32-14,341937586,-59
32-15,341941492,-88
32-16,341945398,-138
32-17,341949304,-152
32-18,341953210,-113
32-19,341957116,-99
32-20,341961022,-128
32-21,341964928,-145
32-22,341968834,-141
32-23,341972740,-161
32-24,341976646,-201
32-25,341980552,-213
32-26,341984458,-214
32-27,341988364,-205
32-28,341992270,-172
32-29,341996176,-153
32-30,342000082,-158
32-31,342003988,-175
32-32,342007894,-220
33-1,342008541,-284
33-2,342012447,-301
33-3,342016353,-253
33-4,342020259,-231
33-5,342024165,-237
33-6,342028071,-227
33-7,342031977,-255
33-8,342035883,-281
33-9,342039789,-236
33-10,342043695,-195
33-11,342047601,-185
33-12,342051507,-171
33-13,342055413,-163
33-14,342059319,-151
33-15,342063225,-169
33-16,342067131,-212
33-17,342071037,-198
33-18,342074943,-159
33-19,342078849,-154
33-20,342082755,-148
33-21,342086661,-158
33-22,342090567,-182
33-23,342094473,-165
33-24,342098379,-132
33-25,342102285,-113
33-26,342106191,-76
33-27,342110097,-41
33-28,342114003,-50
33-29,342117909,-76
33-30,342121815,-90
33-31,342125721,-100
33-32,342129627,-103
33-33,342133533,-94
32-1,342140710,-88
32-2,342144616,-91
32-3,342148522,-79
32-4,342152428,-51
32-5,342156334,-37
32-6,342160240,-42
32-7,342164146,-51
32-8,342168052,-36
32-9,342171958,-25
32-10,342175864,-37
32-11,342179770,-28
32-12,342183676,-29
32-13,342187582,-62
32-14,342191488,-67
32-15,342195394,-44
32-16,342199300,-45
32-17,342203206,-58
32-18,342207112,-35
32-19,342211018,-11
32-20,342214924,-38
32-21,342218830,-60
32-22,342222736,-62
32-23,342226642,-63
32-24,342230548,-45
32-25,342234454,-35
32-26,342238360,-31
32-27,342242266,-33
32-28,342246172,-59
32-29,342250078,-84
32-30,342253984,-94
32-31,342257890,-62
32-32,342261796,-12
32-1,342265768,-6
32-2,342269674,-15
32-3,342273580,-22
32-4,342277486,-42
32-5,342281392,-58
32-6,342285298,-60
32-7,342289204,-52
32-8,342293110,-38
32-9,342297016,-25
32-10,342300922,-35
32-11,342304828,-54
32-12,342308734,-43
32-13,342312640,-10
32-14,342316546,25
32-15,342320452,43
32-16,342324358,25
32-17,342328264,16
32-18,342332170,4
32-19,342336076,-56
32-20,342339982,-110
32-21,342343888,-101
32-22,342347794,-78
32-23,342351700,-81
32-24,342355606,-74
32-25,342359512,-43
32-26,342363418,-35
32-27,342367324,-54
32-28,342371230,-57
32-29,342375136,-57
32-30,342379042,-57
32-31,342382948,-29
32-32,342386854,-5
32-1,342390705,-7
32-2,342394611,-20
32-3,342398517,-22
32-4,342402423,-8
32-5,342406329,-2
32-6,342410235,11
32-7,342414141,23
32-8,342418047,2
32-9,342421953,2
32-10,342425859,23
32-11,342429765,-1
32-12,342433671,-29
32-13,342437577,-11
32-14,342441483,22
32-15,342445389,45
32-16,342449295,72
32-17,342453201,76
32-18,342457107,33
32-19,342461013,22
32-20,342464919,64
32-21,342468825,79
32-22,342472731,57
32-23,342476637,52
32-24,342480543,71
32-25,342484449,66
32-26,342488355,16
32-27,342492261,-14
32-28,342496167,13
32-29,342500073,20
32-30,342503979,-26
32-31,342507885,-39
32-32,342511791,-18
32-1,342515702,-46
32-2,342519608,-79
32-3,342523514,-75
32-4,342527420,-68
32-5,342531326,-45
32-6,342535232,-6
32-7,342539138,16
32-8,342543044,14
32-9,342546950,-16
32-10,342550856,-49
32-11,342554762,-55
32-12,342558668,-51
32-13,342562574,-53
32-14,342566480,-37
32-15,342570386,-18
32-16,342574292,-34
32-17,342578198,-62
32-18,342582104,-60
32-19,342586010,-36
32-20,342589916,-22
32-21,342593822,-20
32-22,342597728,-22
32-23,342601634,-23
32-24,342605540,-9
32-25,342609446,9
32-26,342613352,14
32-27,342617258,19
32-28,342621164,26
32-29,342625070,25
32-30,342628976,23
32-31,342632882,8
32-32,342636788,-13
32-1,342640731,-6
32-2,342644637,17
32-3,342648543,19
32-4,342652449,12
32-5,342656355,22
32-6,342660261,37
32-7,342664167,11
32-8,342668073,-34
32-9,342671979,-48
32-10,342675885,-35
32-11,342679791,-8
32-12,342683697,15
32-13,342687603,18
32-14,342691509,3
32-15,342695415,-34
32-16,342699321,-87
32-17,342703227,-88
32-18,342707133,-44
32-19,342711039,-12
32-20,342714945,8
32-21,342718851,12
32-22,342722757,-3
32-23,342726663,-8
32-24,342730569,-19
32-25,342734475,-22
32-26,342738381,-21
32-27,342742287,-45
32-28,342746193,-48
32-29,342750099,-40
32-30,342754005,-70
32-31,342757911,-85
32-32,342761817,-58
32-1,342765728,-41
32-2,342769634,-28
32-3,342773540,5
32-4,342777446,34
32-5,342781352,40
32-6,342785258,28
32-7,342789164,18
32-8,342793070,5
32-9,342796976,-15
32-10,342800882,-31
32-11,342804788,-31
32-12,342808694,-18
32-13,342812600,-11
32-14,342816506,-27
32-15,342820412,-44
32-16,342824318,-49
32-17,342828224,-41
32-18,342832130,-22
32-19,342836036,-19
32-20,342839942,-27
32-21,342843848,-29
32-22,342847754,-48
32-23,342851660,-69
32-24,342855566,-49
32-25,342859472,-3
32-26,342863378,36
32-27,342867284,50
32-28,342871190,55
32-29,342875096,63
32-30,342879002,52
32-31,342882908,37
32-32,342886814,43
32-1,342890817,57
32-2,342894723,58
32-3,342898629,53
32-4,342902535,48
32-5,342906441,16
32-6,342910347,-27
32-7,342914253,-19
32-8,342918159,18
32-9,342922065,18
32-10,342925971,5
32-11,342929877,10
32-12,342933783,-12
32-13,342937689,-52
32-14,342941595,-51
32-15,342945501,-29
32-16,342949407,-22
32-17,342953313,-25
32-18,342957219,-13
32-19,342961125,23
32-20,342965031,30
32-21,342968937,18
32-22,342972843,43
32-23,342976749,78
32-24,342980655,86
32-25,342984561,71
32-26,342988467,56
32-27,342992373,40
32-28,342996279,8
32-29,343000185,-9
32-30,343004091,-32
32-31,343007997,-60
32-32,343011903,-34
32-1,343015693,6
32-2,343019599,27
32-3,343023505,24
32-4,343027411,-5
32-5,343031317,-29
32-6,343035223,-35
32-7,343039129,-12
32-8,343043035,8
32-9,343046941,2
32-10,343050847,2
32-11,343054753,-26
32-12,343058659,-60
32-13,343062565,-36
32-14,343066471,-1
32-15,343070377,18
32-16,343074283,27
32-17,343078189,9
32-18,343082095,-23
32-19,343086001,-58
32-20,343089907,-85
32-21,343093813,-89
32-22,343097719,-71
32-23,343101625,-41
32-24,343105531,-16
32-25,343109437,13
32-26,343113343,48
32-27,343117249,33
32-28,343121155,-8
32-29,343125061,-2
32-30,343128967,25
32-31,343132873,42
32-32,343136779,61
32-1,343140691,71
32-2,343144597,65
32-3,343148503,27
32-4,343152409,-8
32-5,343156315,10
32-6,343160221,26
32-7,343164127,8
32-8,343168033,20
32-9,343171939,39
32-10,343175845,9
32-11,343179751,-18
32-12,343183657,-28
32-13,343187563,-36
32-14,343191469,-25
32-15,343195375,-10
32-16,343199281,1
32-17,343203187,-18
32-18,343207093,-52
32-19,343210999,-35
32-20,343214905,-12
32-21,343218811,-23
32-22,343222717,-10
32-23,343226623,18
32-24,343230529,2
32-25,343234435,-37
32-26,343238341,-55
32-27,343242247,-48
32-28,343246153,-37
32-29,343250059,-42
32-30,343253965,-47
32-31,343257871,-17
32-32,343261777,-7
32-1,343265688,-48
32-2,343269594,-73
32-3,343273500,-62
32-4,343277406,-46
32-5,343281312,-19
32-6,343285218,4
32-7,343289124,3
32-8,343293030,-8
32-9,343296936,-34
32-10,343300842,-43
32-11,343304748,9
32-12,343308654,37
32-13,343312560,6
32-14,343316466,-9
32-15,343320372,-5
32-16,343324278,-24
32-17,343328184,-49
32-18,343332090,-46
32-19,343335996,-26
32-20,343339902,-8
32-21,343343808,14
32-22,343347714,19
32-23,343351620,-3
32-24,343355526,-17
32-25,343359432,-22
32-26,343363338,-35
32-27,343367244,-40
32-28,343371150,-11
32-29,343375056,9
32-30,343378962,-16
32-31,343382868,-48
32-32,343386774,-71
32-1,343390686,-90
32-2,343394592,-107
32-3,343398498,-117
32-4,343402404,-96
32-5,343406310,-54
32-6,343410216,-38
32-7,343414122,-55
32-8,343418028,-84
32-9,343421934,-101
32-10,343425840,-103
32-11,343429746,-94
32-12,343433652,-89
32-13,343437558,-63
32-14,343441464,7
32-15,343445370,29
32-16,343449276,-26
32-17,343453182,-55
32-18,343457088,-42
32-19,343460994,-41
32-20,343464900,-31
32-21,343468806,6
32-22,343472712,24
32-23,343476618,5
32-24,343480524,-1
32-25,343484430,12
32-26,343488336,18
32-27,343492242,12
32-28,343496148,3
32-29,343500054,-16
32-30,343503960,-65
32-31,343507866,-122
32-32,343511772,-144
32-1,343515836,-142
32-2,343519742,-112
32-3,343523648,-66
32-4,343527554,-37
32-5,343531460,-32
32-6,343535366,-55
32-7,343539272,-66
32-8,343543178,-40
32-9,343547084,-16
32-10,343550990,-1
32-11,343554896,4
32-12,343558802,3
32-13,343562708,11
32-14,343566614,4
32-15,343570520,-17
32-16,343574426,-19
32-17,343578332,0
32-18,343582238,-6
32-19,343586144,-38
32-20,343590050,-47
32-21,343593956,-48
32-22,343597862,-68
32-23,343601768,-92
32-24,343605674,-96
32-25,343609580,-68
32-26,343613486,-27
32-27,343617392,-14
32-28,343621298,-15
32-29,343625204,3
32-30,343629110,10
32-31,343633016,-12
32-32,343636922,-19
32-1,343640681,-5
32-2,343644587,12
32-3,343648493,26
32-4,343652399,19
32-5,343656305,-27
32-6,343660211,-81
32-7,343664117,-109
32-8,343668023,-92
32-9,343671929,-37
32-10,343675835,-17
32-11,343679741,-46
32-12,343683647,-65
32-13,343687553,-92
32-14,343691459,-120
32-15,343695365,-107
32-16,343699271,-75
32-17,343703177,-68
32-18,343707083,-56
32-19,343710989,-12
32-20,343714895,-1
32-21,343718801,-26
32-22,343722707,-17
32-23,343726613,4
32-24,343730519,21
32-25,343734425,26
32-26,343738331,-3
32-27,343742237,-21
32-28,343746143,-4
32-29,343750049,-9
32-30,343753955,-58
32-31,343757861,-73
32-32,343761767,-38
32-1,343765679,-48
32-2,343769585,-82
32-3,343773491,-88
32-4,343777397,-89
32-5,343781303,-99
32-6,343785209,-103
32-7,343789115,-81
32-8,343793021,-63
32-9,343796927,-53
32-10,343800833,-57
32-11,343804739,-84
32-12,343808645,-92
32-13,343812551,-67
32-14,343816457,-53
32-15,343820363,-41
32-16,343824269,-41
32-17,343828175,-64
32-18,343832081,-72
32-19,343835987,-83
32-20,343839893,-123
32-21,343843799,-117
32-22,343847705,-75
32-23,343851611,-71
32-24,343855517,-79
32-25,343859423,-67
32-26,343863329,-71
32-27,343867235,-86
32-28,343871141,-69
32-29,343875047,-54
32-30,343878953,-83
32-31,343882859,-108
32-32,343886765,-100
32-1,343890676,-95
32-2,343894582,-114
32-3,343898488,-137
32-4,343902394,-135
32-5,343906300,-141
32-6,343910206,-157
32-7,343914112,-140
32-8,343918018,-95
32-9,343921924,-57
32-10,343925830,-48
32-11,343929736,-57
32-12,343933642,-42
32-13,343937548,-18
32-14,343941454,-6
32-15,343945360,7
32-16,343949266,8
32-17,343953172,-19
32-18,343957078,-47
32-19,343960984,-57
32-20,343964890,-49
32-21,343968796,-18
32-22,343972702,5
32-23,343976608,8
32-24,343980514,10
32-25,343984420,-10
32-26,343988326,-26
32-27,343992232,-14
32-28,343996138,-16
32-29,344000044,-11
32-30,344003950,11
32-31,344007856,26
32-32,344011762,26
32-1,344015674,7
32-2,344019580,-14
32-3,344023486,-36
32-4,344027392,-53
32-5,344031298,-44
32-6,344035204,-33
32-7,344039110,-23
32-8,344043016,-19
32-9,344046922,-43
32-10,344050828,-69
32-11,344054734,-72
32-12,344058640,-58
32-13,344062546,-37
32-14,344066452,-52
32-15,344070358,-99
32-16,344074264,-113
32-17,344078170,-114
32-18,344082076,-121
32-19,344085982,-104
32-20,344089888,-74
32-21,344093794,-52
32-22,344097700,-43
32-23,344101606,-53
32-24,344105512,-64
32-25,344109418,-65
32-26,344113324,-49
32-27,344117230,-40
32-28,344121136,-32
32-29,344125042,-3
32-30,344128948,8
32-31,344132854,-19
32-32,344136760,-53
32-1,344140855,-60
32-2,344144761,-56
32-3,344148667,-81
32-4,344152573,-93
32-5,344156479,-57
32-6,344160385,-17
32-7,344164291,-12
32-8,344168197,-34
32-9,344172103,-60
32-10,344176009,-62
32-11,344179915,-27
32-12,344183821,-3
32-13,344187727,-20
32-14,344191633,-37
32-15,344195539,-39
32-16,344199445,-46
32-17,344203351,-59
32-18,344207257,-54
32-19,344211163,-42
32-20,344215069,-36
32-21,344218975,-28
32-22,344222881,-38
32-23,344226787,-78
32-24,344230693,-111
32-25,344234599,-110
32-26,344238505,-83
32-27,344242411,-56
32-28,344246317,-46
32-29,344250223,-76
32-30,344254129,-119
32-31,344258035,-122
32-32,344261941,-112
32-1,344265669,-119
32-2,344269575,-120
32-3,344273481,-105
32-4,344277387,-91
32-5,344281293,-80
32-6,344285199,-82
32-7,344289105,-85
32-8,344293011,-57
32-9,344296917,-27
32-10,344300823,-23
32-11,344304729,-24
32-12,344308635,-26
32-13,344312541,-23
32-14,344316447,-25
32-15,344320353,-54
32-16,344324259,-65
32-17,344328165,-22
32-18,344332071,24
32-19,344335977,31
32-20,344339883,29
32-21,344343789,10
32-22,344347695,-37
32-23,344351601,-57
32-24,344355507,-37
32-25,344359413,-30
32-26,344363319,-31
32-27,344367225,-32
32-28,344371131,-42
32-29,344375037,-23
32-30,344378943,4
32-31,344382849,-21
32-32,344386755,-51
32-1,344390667,-29
32-2,344394573,-8
32-3,344398479,-39
32-4,344402385,-76
32-5,344406291,-72
32-6,344410197,-54
32-7,344414103,-33
32-8,344418009,-3
32-9,344421915,4
32-10,344425821,-12
32-11,344429727,-46
32-12,344433633,-96
32-13,344437539,-120
32-14,344441445,-108
32-15,344445351,-92
32-16,344449257,-85
32-17,344453163,-88
32-18,344457069,-77
32-19,344460975,-60
32-20,344464881,-79
32-21,344468787,-109
32-22,344472693,-97
32-23,344476599,-39
32-24,344480505,23
32-25,344484411,25
32-26,344488317,-7
32-27,344492223,-32
32-28,344496129,-61
32-29,344500035,-92
32-30,344503941,-102
32-31,344507847,-84
32-32,344511753,-63
32-1,344515665,-84
32-2,344519571,-93
32-3,344523477,-85
32-4,344527383,-110
32-5,344531289,-113
32-6,344535195,-87
32-7,344539101,-74
32-8,344543007,-42
32-9,344546913,-14
32-10,344550819,-36
32-11,344554725,-64
32-12,344558631,-69
32-13,344562537,-68
32-14,344566443,-61
32-15,344570349,-53
32-16,344574255,-48
32-17,344578161,-24
32-18,344582067,-5
32-19,344585973,-33
32-20,344589879,-58
32-21,344593785,-36
32-22,344597691,-28
32-23,344601597,-43
32-24,344605503,-21
32-25,344609409,13
32-26,344613315,-3
32-27,344617221,-59
32-28,344621127,-89
32-29,344625033,-81
32-30,344628939,-63
32-31,344632845,-41
32-32,344636751,-19
32-1,344640662,6
32-2,344644568,11
32-3,344648474,-21
32-4,344652380,-33
32-5,344656286,-11
32-6,344660192,-2
32-7,344664098,-2
32-8,344668004,12
32-9,344671910,19
32-10,344675816,-3
32-11,344679722,-23
32-12,344683628,-2
32-13,344687534,16
32-14,344691440,7
32-15,344695346,6
32-16,344699252,4
32-17,344703158,-21
32-18,344707064,-52
32-19,344710970,-57
32-20,344714876,-20
32-21,344718782,7
32-22,344722688,15
32-23,344726594,47
32-24,344730500,58
32-25,344734406,2
32-26,344738312,-37
32-27,344742218,-20
32-28,344746124,11
32-29,344750030,24
32-30,344753936,12
32-31,344757842,1
32-32,344761748,15
32-1,344765660,30
32-2,344769566,33
32-3,344773472,36
32-4,344777378,40
32-5,344781284,52
32-6,344785190,64
32-7,344789096,61
32-8,344793002,52
32-9,344796908,25
32-10,344800814,9
32-11,344804720,34
32-12,344808626,48
32-13,344812532,29
32-14,344816438,13
32-15,344820344,13
32-16,344824250,15
32-17,344828156,24
32-18,344832062,46
32-19,344835968,39
32-20,344839874,23
32-21,344843780,52
32-22,344847686,86
32-23,344851592,89
32-24,344855498,65
32-25,344859404,40
32-26,344863310,63
32-27,344867216,100
32-28,344871122,99
32-29,344875028,80
32-30,344878934,70
32-31,344882840,65
32-32,344886746,58
32-1,344890719,56
32-2,344894625,34
32-3,344898531,9
32-4,344902437,24
32-5,344906343,37
32-6,344910249,33
32-7,344914155,12
32-8,344918061,-28
32-9,344921967,-16
32-10,344925873,37
32-11,344929779,59
32-12,344933685,33
32-13,344937591,-10
32-14,344941497,-39
32-15,344945403,-66
32-16,344949309,-80
32-17,344953215,-65
32-18,344957121,-29
32-19,344961027,3
32-20,344964933,4
32-21,344968839,-9
32-22,344972745,-35
32-23,344976651,-71
32-24,344980557,-70
32-25,344984463,-35
32-26,344988369,-8
32-27,344992275,1
32-28,344996181,11
32-29,345000087,10
32-30,345003993,-35
32-31,345007899,-53
32-32,345011805,-33
32-1,345015655,-54
32-2,345019561,-56
32-3,345023467,-13
32-4,345027373,16
32-5,345031279,28
32-6,345035185,11
32-7,345039091,-18
32-8,345042997,-29
32-9,345046903,-24
32-10,345050809,-10
32-11,345054715,-16
32-12,345058621,-21
32-13,345062527,-10
32-14,345066433,-29
32-15,345070339,-53
32-16,345074245,-31
32-17,345078151,-8
32-18,345082057,-15
32-19,345085963,-5
32-20,345089869,26
32-21,345093775,27
32-22,345097681,-19
32-23,345101587,-47
32-24,345105493,-7
32-25,345109399,25
32-26,345113305,10
32-27,345117211,-22
32-28,345121117,-44
32-29,345125023,-45
32-30,345128929,-55
32-31,345132835,-77
32-32,345136741,-70
32-1,345140653,-44
32-2,345144559,-15
32-3,345148465,3
32-4,345152371,-10
32-5,345156277,-38
32-6,345160183,-55
32-7,345164089,-55
32-8,345167995,-57
32-9,345171901,-72
32-10,345175807,-64
32-11,345179713,-29
32-12,345183619,-32
32-13,345187525,-54
32-14,345191431,-34
32-15,345195337,-22
32-16,345199243,-39
32-17,345203149,-28
32-18,345207055,-12
32-19,345210961,-3
32-20,345214867,1
32-21,345218773,-31
32-22,345222679,-42
32-23,345226585,-8
32-24,345230491,-4
32-25,345234397,-14
32-26,345238303,11
32-27,345242209,10
32-28,345246115,-44
32-29,345250021,-71
32-30,345253927,-72
32-31,345257833,-69
32-32,345261739,-30
32-1,345265650,2
32-2,345269556,1
32-3,345273462,-9
32-4,345277368,-29
32-5,345281274,-51
32-6,345285180,-45
32-7,345289086,-24
32-8,345292992,-22
32-9,345296898,-13
32-10,345300804,12
32-11,345304710,13
32-12,345308616,-3
32-13,345312522,-13
32-14,345316428,-11
32-15,345320334,16
32-16,345324240,39
32-17,345328146,35
32-18,345332052,20
32-19,345335958,-23
32-20,345339864,-63
32-21,345343770,-58
32-22,345347676,-43
32-23,345351582,-43
32-24,345355488,-63
32-25,345359394,-81
32-26,345363300,-65
32-27,345367206,-58
32-28,345371112,-71
32-29,345375018,-47
32-30,345378924,-6
32-31,345382830,-5
32-32,345386736,-16
32-1,345390648,-13
32-2,345394554,-41
32-3,345398460,-95
32-4,345402366,-117
32-5,345406272,-100
32-6,345410178,-69
32-7,345414084,-52
32-8,345417990,-62
32-9,345421896,-68
32-10,345425802,-64
32-11,345429708,-67
32-12,345433614,-69
32-13,345437520,-44
32-14,345441426,-3
32-15,345445332,13
32-16,345449238,-12
32-17,345453144,-65
32-18,345457050,-85
32-19,345460956,-46
32-20,345464862,-21
32-21,345468768,-24
32-22,345472674,-7
32-23,345476580,10
32-24,345480486,-5
32-25,345484392,-54
32-26,345488298,-98
32-27,345492204,-96
32-28,345496110,-75
32-29,345500016,-74
32-30,345503922,-82
32-31,345507828,-35
32-32,345511734,31
32-1,345515646,2
32-2,345519552,-46
32-3,345523458,-43
32-4,345527364,-41
32-5,345531270,-25
32-6,345535176,16
32-7,345539082,38
32-8,345542988,32
32-9,345546894,16
32-10,345550800,6
32-11,345554706,18
32-12,345558612,49
32-13,345562518,63
32-14,345566424,56
32-15,345570330,57
32-16,345574236,27
32-17,345578142,-16
32-18,345582048,3
32-19,345585954,18
32-20,345589860,-12
32-21,345593766,-20
32-22,345597672,-12
32-23,345601578,-26
32-24,345605484,-68
32-25,345609390,-101
32-26,345613296,-75
32-27,345617202,-48
32-28,345621108,-57
32-29,345625014,-60
32-30,345628920,-53
32-31,345632826,-66
32-32,345636732,-80
32-1,345640735,-65
32-2,345644641,-49
32-3,345648547,-48
32-4,345652453,-38
32-5,345656359,-42
32-6,345660265,-54
32-7,345664171,-73
32-8,345668077,-106
32-9,345671983,-89
32-10,345675889,-33
32-11,345679795,-18
32-12,345683701,-11
32-13,345687607,3
32-14,345691513,-8
32-15,345695419,-16
32-16,345699325,-19
32-17,345703231,-35
32-18,345707137,-36
32-19,345711043,-7
32-20,345714949,21
32-21,345718855,27
32-22,345722761,35
32-23,345726667,22
32-24,345730573,-40
32-25,345734479,-51
32-26,345738385,11
32-27,345742291,16
32-28,345746197,-19
32-29,345750103,11
32-30,345754009,29
32-31,345757915,-13
32-32,345761821,-39
32-1,345765641,-41
32-2,345769547,-32
32-3,345773453,-6
32-4,345777359,16
32-5,345781265,14
32-6,345785171,-13
32-7,345789077,-31
32-8,345792983,-4
32-9,345796889,33
32-10,345800795,17
32-11,345804701,-6
32-12,345808607,23
32-13,345812513,37
32-14,345816419,-4
32-15,345820325,-38
32-16,345824231,-37
32-17,345828137,-23
32-18,345832043,-16
32-19,345835949,-20
32-20,345839855,-34
32-21,345843761,-48
32-22,345847667,-66
32-23,345851573,-56
32-24,345855479,-29
32-25,345859385,-38
32-26,345863291,-46
32-27,345867197,-37
32-28,345871103,-20
32-29,345875009,-12
32-30,345878915,-57
32-31,345882821,-91
32-32,345886727,-61
32-1,345890639,-42
32-2,345894545,-58
32-3,345898451,-53
32-4,345902357,-33
32-5,345906263,-50
32-6,345910169,-85
32-7,345914075,-108
32-8,345917981,-104
32-9,345921887,-62
32-10,345925793,-30
32-11,345929699,-26
32-12,345933605,-48
32-13,345937511,-72
32-14,345941417,-63
32-15,345945323,-51
32-16,345949229,-53
32-17,345953135,-58
32-18,345957041,-39
32-19,345960947,-9
32-20,345964853,-38
32-21,345968759,-99
32-22,345972665,-105
32-23,345976571,-65
32-24,345980477,-28
32-25,345984383,-23
32-26,345988289,-13
32-27,345992195,1
32-28,345996101,-18
32-29,346000007,-31
32-30,346003913,-17
32-31,346007819,12
32-32,346011725,51
32-1,346015636,58
32-2,346019542,47
32-3,346023448,37
32-4,346027354,2
32-5,346031260,-15
32-6,346035166,10
32-7,346039072,14
32-8,346042978,-13
32-9,346046884,-45
32-10,346050790,-67
32-11,346054696,-93
32-12,346058602,-113
32-13,346062508,-92
32-14,346066414,-45
32-15,346070320,-19
32-16,346074226,-15
32-17,346078132,-14
32-18,346082038,-22
32-19,346085944,-57
32-20,346089850,-65
32-21,346093756,-23
32-22,346097662,14
32-23,346101568,31
32-24,346105474,37
32-25,346109380,36
32-26,346113286,28
32-27,346117192,-17
32-28,346121098,-61
32-29,346125004,-34
32-30,346128910,24
32-31,346132816,32
32-32,346136722,-5
32-1,346140634,-44
32-2,346144540,-79
32-3,346148446,-104
32-4,346152352,-109
32-5,346156258,-90
32-6,346160164,-44
32-7,346164070,-16
32-8,346167976,-12
32-9,346171882,-14
32-10,346175788,-36
32-11,346179694,-40
32-12,346183600,-11
32-13,346187506,1
32-14,346191412,1
32-15,346195318,2
32-16,346199224,9
32-17,346203130,9
32-18,346207036,-31
32-19,346210942,-63
32-20,346214848,-33
32-21,346218754,25
32-22,346222660,38
32-23,346226566,30
32-24,346230472,33
32-25,346234378,-12
32-26,346238284,-71
32-27,346242190,-69
32-28,346246096,-58
32-29,346250002,-40
32-30,346253908,-15
32-31,346257814,-3
32-32,346261720,19
32-1,346265631,27
32-2,346269537,0
32-3,346273443,-9
32-4,346277349,14
32-5,346281255,17
32-6,346285161,-13
32-7,346289067,-17
32-8,346292973,-4
32-9,346296879,-30
32-10,346300785,-56
32-11,346304691,-35
32-12,346308597,-16
32-13,346312503,-13
32-14,346316409,9
32-15,346320315,39
32-16,346324221,22
32-17,346328127,-32
32-18,346332033,-61
32-19,346335939,-39
32-20,346339845,-5
32-21,346343751,-9
32-22,346347657,-17
32-23,346351563,-5
32-24,346355469,-40
32-25,346359375,-81
32-26,346363281,-58
32-27,346367187,-40
32-28,346371093,-28
32-29,346374999,-8
32-30,346378905,-26
32-31,346382811,-61
32-32,346386717,-76
32-1,346390751,-66
32-2,346394657,-41
32-3,346398563,-29
32-4,346402469,-15
32-5,346406375,8
32-6,346410281,15
32-7,346414187,0
32-8,346418093,-17
32-9,346421999,-19
32-10,346425905,8
32-11,346429811,49
32-12,346433717,34
32-13,346437623,-11
32-14,346441529,-29
32-15,346445435,-66
32-16,346449341,-118
32-17,346453247,-138
32-18,346457153,-109
32-19,346461059,-71
32-20,346464965,-64
32-21,346468871,-41
32-22,346472777,-24
32-23,346476683,-56
32-24,346480589,-60
32-25,346484495,-18
32-26,346488401,6
32-27,346492307,-24
32-28,346496213,-44
32-29,346500119,-27
32-30,346504025,-48
32-31,346507931,-60
32-32,346511837,-34
32-1,346515627,-51
32-2,346519533,-47
32-3,346523439,-8
32-4,346527345,-15
32-5,346531251,-27
32-6,346535157,-44
32-7,346539063,-77
32-8,346542969,-55
32-9,346546875,-14
32-10,346550781,-23
32-11,346554687,-29
32-12,346558593,-3
32-13,346562499,-13
32-14,346566405,-72
32-15,346570311,-106
32-16,346574217,-92
32-17,346578123,-61
32-18,346582029,-48
32-19,346585935,-51
32-20,346589841,-32
32-21,346593747,-41
32-22,346597653,-113
32-23,346601559,-136
32-24,346605465,-69
32-25,346609371,-1
32-26,346613277,29
32-27,346617183,20
32-28,346621089,-17
32-29,346624995,-35
32-30,346628901,-41
32-31,346632807,-92
32-32,346636713,-122
32-1,346640624,-67
32-2,346644530,-22
32-3,346648436,-22
32-4,346652342,-46
32-5,346656248,-88
32-6,346660154,-81
32-7,346664060,-55
32-8,346667966,-79
32-9,346671872,-108
32-10,346675778,-96
32-11,346679684,-62
32-12,346683590,-67
32-13,346687496,-92
32-14,346691402,-60
32-15,346695308,-25
32-16,346699214,-22
32-17,346703120,-10
32-18,346707026,2
32-19,346710932,-1
32-20,346714838,-12
32-21,346718744,-19
32-22,346722650,1
32-23,346726556,26
32-24,346730462,29
32-25,346734368,9
32-26,346738274,-13
32-27,346742180,-39
32-28,346746086,-67
32-29,346749992,-74
32-30,346753898,-76
32-31,346757804,-62
32-32,346761710,-14
32-1,346765622,14
32-2,346769528,14
32-3,346773434,-8
32-4,346777340,-61
32-5,346781246,-94
32-6,346785152,-64
32-7,346789058,-8
32-8,346792964,15
32-9,346796870,-2
32-10,346800776,-8
32-11,346804682,-16
32-12,346808588,-55
32-13,346812494,-79
32-14,346816400,-63
32-15,346820306,-65
32-16,346824212,-77
32-17,346828118,-65
32-18,346832024,-70
32-19,346835930,-85
32-20,346839836,-70
32-21,346843742,-68
32-22,346847648,-82
32-23,346851554,-72
32-24,346855460,-54
32-25,346859366,-37
32-26,346863272,-24
32-27,346867178,-47
32-28,346871084,-78
32-29,346874990,-66
32-30,346878896,-43
32-31,346882802,-54
32-32,346886708,-51
32-1,346890620,-19
32-2,346894526,-38
32-3,346898432,-87
32-4,346902338,-92
32-5,346906244,-62
32-6,346910150,-20
32-7,346914056,12
32-8,346917962,28
32-9,346921868,24
32-10,346925774,-13
32-11,346929680,-50
32-12,346933586,-62
32-13,346937492,-71
32-14,346941398,-71
32-15,346945304,-64
32-16,346949210,-66
32-17,346953116,-104
32-18,346957022,-150
32-19,346960928,-139
32-20,346964834,-85
32-21,346968740,-26
32-22,346972646,5
32-23,346976552,-11
32-24,346980458,-24
32-25,346984364,-29
32-26,346988270,-67
32-27,346992176,-91
32-28,346996082,-66
32-29,346999988,-64
32-30,347003894,-93
32-31,347007800,-71
32-32,347011706,-40
32-1,347015617,-65
32-2,347019523,-85
32-3,347023429,-73
32-4,347027335,-46
32-5,347031241,-23
32-6,347035147,-22
32-7,347039053,-18
32-8,347042959,-10
32-9,347046865,-31
32-10,347050771,-57
32-11,347054677,-46
32-12,347058583,-12
32-13,347062489,2
32-14,347066395,0
32-15,347070301,23
32-16,347074207,39
32-17,347078113,-14
32-18,347082019,-59
32-19,347085925,-32
32-20,347089831,-5
32-21,347093737,-6
32-22,347097643,2
32-23,347101549,6
32-24,347105455,-21
32-25,347109361,-48
32-26,347113267,-28
32-27,347117173,0
32-28,347121079,4
32-29,347124985,1
32-30,347128891,-17
32-31,347132797,-48
32-32,347136703,-85
32-1,347140767,-114
32-2,347144673,-119
32-3,347148579,-110
32-4,347152485,-85
32-5,347156391,-70
32-6,347160297,-85
32-7,347164203,-98
32-8,347168109,-104
32-9,347172015,-102
32-10,347175921,-71
32-11,347179827,-41
32-12,347183733,-41
32-13,347187639,-33
32-14,347191545,-21
32-15,347195451,-41
32-16,347199357,-52
32-17,347203263,-34
32-18,347207169,-17
32-19,347211075,-8
32-20,347214981,-29
32-21,347218887,-42
32-22,347222793,-34
32-23,347226699,-64
32-24,347230605,-103
32-25,347234511,-100
32-26,347238417,-73
32-27,347242323,-67
32-28,347246229,-74
32-29,347250135,-58
32-30,347254041,-44
32-31,347257947,-52
32-32,347261853,-65
32-1,347265613,-69
32-2,347269519,-42
32-3,347273425,-5
32-4,347277331,-2
32-5,347281237,-18
32-6,347285143,-45
32-7,347289049,-81
32-8,347292955,-80
32-9,347296861,-26
32-10,347300767,12
32-11,347304673,8
32-12,347308579,2
32-13,347312485,2
32-14,347316391,0
32-15,347320297,5
32-16,347324203,36
32-17,347328109,93
32-18,347332015,109
32-19,347335921,71
32-20,347339827,38
32-21,347343733,-5
32-22,347347639,-74
32-23,347351545,-93
32-24,347355451,-67
32-25,347359357,-72
32-26,347363263,-89
32-27,347367169,-89
32-28,347371075,-65
32-29,347374981,-21
32-30,347378887,-47
32-31,347382793,-125
32-32,347386699,-119
32-1,347390610,-57
32-2,347394516,-37
32-3,347398422,-48
32-4,347402328,-45
32-5,347406234,-50
32-6,347410140,-69
32-7,347414046,-48
32-8,347417952,-8
32-9,347421858,-4
32-10,347425764,-36
32-11,347429670,-55
32-12,347433576,-44
32-13,347437482,-64
32-14,347441388,-79
32-15,347445294,-21
32-16,347449200,39
32-17,347453106,28
32-18,347457012,3
32-19,347460918,16
32-20,347464824,2
32-21,347468730,-30
32-22,347472636,-11
32-23,347476542,14
32-24,347480448,5
32-25,347484354,-11
32-26,347488260,-19
32-27,347492166,-34
32-28,347496072,-56
32-29,347499978,-56
32-30,347503884,-48
32-31,347507790,-39
32-32,347511696,-40
32-1,347515608,-45
32-2,347519514,-20
32-3,347523420,-35
32-4,347527326,-93
32-5,347531232,-97
32-6,347535138,-84
32-7,347539044,-85
32-8,347542950,-74
32-9,347546856,-65
32-10,347550762,-52
32-11,347554668,-56
32-12,347558574,-89
32-13,347562480,-92
32-14,347566386,-57
32-15,347570292,-41
32-16,347574198,-38
32-17,347578104,-6
32-18,347582010,7
32-19,347585916,-45
32-20,347589822,-85
32-21,347593728,-74
32-22,347597634,-57
32-23,347601540,-44
32-24,347605446,-13
32-25,347609352,26
32-26,347613258,29
32-27,347617164,-21
32-28,347621070,-36
32-29,347624976,20
32-30,347628882,44
32-31,347632788,21
32-32,347636694,15
32-1,347640605,40
32-2,347644511,42
32-3,347648417,-12
32-4,347652323,-51
32-5,347656229,-21
32-6,347660135,15
32-7,347664041,17
32-8,347667947,12
32-9,347671853,11
32-10,347675759,-18
32-11,347679665,-30
32-12,347683571,11
32-13,347687477,36
32-14,347691383,30
32-15,347695289,16
32-16,347699195,-3
32-17,347703101,-24
32-18,347707007,-56
32-19,347710913,-70
32-20,347714819,-42
32-21,347718725,-4
32-22,347722631,32
32-23,347726537,55
32-24,347730443,41
32-25,347734349,3
32-26,347738255,-21
32-27,347742161,-17
32-28,347746067,25
32-29,347749973,71
32-30,347753879,54
32-31,347757785,32
32-32,347761691,33
32-1,347765573,-12
32-2,347769479,-60
32-3,347773385,-57
32-4,347777291,-48
32-5,347781197,-47
32-6,347785103,-34
32-7,347789009,-24
32-8,347792915,-22
32-9,347796821,-30
32-10,347800727,-40
32-11,347804633,-23
32-12,347808539,6
32-13,347812445,23
32-14,347816351,44
32-15,347820257,32
32-16,347824163,1
32-17,347828069,-19
32-18,347831975,-45
32-19,347835881,-49
32-20,347839787,-28
32-21,347843693,6
32-22,347847599,39
32-23,347851505,42
32-24,347855411,13
32-25,347859317,-10
32-26,347863223,7
32-27,347867129,18
32-28,347871035,-2
32-29,347874941,-13
32-30,347878847,-15
32-31,347882753,-26
32-32,347886659,-50
33-1,347886878,-88
33-2,347890784,-102
33-3,347894690,-59
33-4,347898596,-17
33-5,347902502,-21
33-6,347906408,-15
33-7,347910314,-12
33-8,347914220,-63
33-9,347918126,-81
33-10,347922032,-37
33-11,347925938,-14
33-12,347929844,-16
33-13,347933750,-5
33-14,347937656,-2
33-15,347941562,-21
33-16,347945468,-48
33-17,347949374,-66
33-18,347953280,-48
33-19,347957186,-20
33-20,347961092,-11
33-21,347964998,-6
33-22,347968904,-10
33-23,347972810,-33
33-24,347976716,-64
33-25,347980622,-73
33-26,347984528,-23
33-27,347988434,29
33-28,347992340,39
33-29,347996246,42
33-30,348000152,8
33-31,348004058,-50
33-32,348007964,-75
33-33,348011870,-70
32-1,348019504,-40
32-2,348023410,-20
32-3,348027316,-20
32-4,348031222,-22
32-5,348035128,-73
32-6,348039034,-122
32-7,348042940,-92
32-8,348046846,-66
32-9,348050752,-77
32-10,348054658,-67
32-11,348058564,-41
32-12,348062470,-34
32-13,348066376,-62
32-14,348070282,-88
32-15,348074188,-65
32-16,348078094,-26
32-17,348082000,-17
32-18,348085906,-10
32-19,348089812,16
32-20,348093718,-1
32-21,348097624,-67
32-22,348101530,-88
32-23,348105436,-42
32-24,348109342,-1
32-25,348113248,4
32-26,348117154,-25
32-27,348121060,-65
32-28,348124966,-76
32-29,348128872,-104
32-30,348132778,-148
32-31,348136684,-131
32-32,348140590,-77
32-1,348144502,-49
32-2,348148408,-21
32-3,348152314,-7
32-4,348156220,-47
32-5,348160126,-80
32-6,348164032,-47
32-7,348167938,6
32-8,348171844,21
32-9,348175750,8
32-10,348179656,2
32-11,348183562,-5
32-12,348187468,-41
32-13,348191374,-68
32-14,348195280,-47
32-15,348199186,-24
32-16,348203092,-40
32-17,348206998,-43
32-18,348210904,-14
32-19,348214810,-37
32-20,348218716,-101
32-21,348222622,-102
32-22,348226528,-54
32-23,348230434,-27
32-24,348234340,-23
32-25,348238246,-16
32-26,348242152,-9
32-27,348246058,-34
32-28,348249964,-56
32-29,348253870,-50
32-30,348257776,-53
32-31,348261682,-76
32-32,348265588,-113
32-1,348269500,-126
32-2,348273406,-99
32-3,348277312,-92
32-4,348281218,-108
32-5,348285124,-91
32-6,348289030,-48
32-7,348292936,-21
32-8,348296842,-17
32-9,348300748,-11
32-10,348304654,-23
32-11,348308560,-49
32-12,348312466,-46
32-13,348316372,-26
32-14,348320278,-8
32-15,348324184,4
32-16,348328090,-7
32-17,348331996,-26
32-18,348335902,-53
32-19,348339808,-77
32-20,348343714,-69
32-21,348347620,-39
32-22,348351526,-18
32-23,348355432,-7
32-24,348359338,12
32-25,348363244,15
32-26,348367150,-20
32-27,348371056,-56
32-28,348374962,-47
32-29,348378868,-8
32-30,348382774,10
32-31,348386680,11
32-32,348390586,9
32-1,348394497,-20
32-2,348398403,-51
32-3,348402309,-58
32-4,348406215,-51
32-5,348410121,-18
32-6,348414027,-8
32-7,348417933,-41
32-8,348421839,-48
32-9,348425745,-33
32-10,348429651,-27
32-11,348433557,-16
32-12,348437463,10
32-13,348441369,41
32-14,348445275,54
32-15,348449181,75
32-16,348453087,105
32-17,348456993,80
32-18,348460899,19
32-19,348464805,-13
32-20,348468711,3
32-21,348472617,37
32-22,348476523,32
32-23,348480429,17
32-24,348484335,3
32-25,348488241,-19
32-26,348492147,-9
32-27,348496053,-2
32-28,348499959,-18
32-29,348503865,-11
32-30,348507771,6
32-31,348511677,7
32-32,348515583,-5
32-1,348519495,-31
32-2,348523401,-42
32-3,348527307,-18
32-4,348531213,4
32-5,348535119,4
32-6,348539025,6
32-7,348542931,-5
32-8,348546837,-53
32-9,348550743,-94
32-10,348554649,-81
32-11,348558555,-40
32-12,348562461,-26
32-13,348566367,-43
32-14,348570273,-60
32-15,348574179,-83
32-16,348578085,-126
32-17,348581991,-135
32-18,348585897,-79
32-19,348589803,-22
32-20,348593709,-16
32-21,348597615,-34
32-22,348601521,-58
32-23,348605427,-95
32-24,348609333,-112
32-25,348613239,-94
32-26,348617145,-65
32-27,348621051,-30
32-28,348624957,-5
32-29,348628863,-11
32-30,348632769,-53
32-31,348636675,-91
32-32,348640581,-89
32-1,348644493,-76
32-2,348648399,-58
32-3,348652305,-5
32-4,348656211,67
32-5,348660117,103
32-6,348664023,74
32-7,348667929,22
32-8,348671835,27
32-9,348675741,73
32-10,348679647,71
32-11,348683553,35
32-12,348687459,23
32-13,348691365,33
32-14,348695271,14
32-15,348699177,-36
32-16,348703083,-45
32-17,348706989,-10
32-18,348710895,2
32-19,348714801,1
32-20,348718707,5
32-21,348722613,-15
32-22,348726519,-49
32-23,348730425,-59
32-24,348734331,-21
32-25,348738237,31
32-26,348742143,25
32-27,348746049,-27
32-28,348749955,-11
32-29,348753861,49
32-30,348757767,25
32-31,348761673,-49
32-32,348765579,-71
32-1,348769490,-49
32-2,348773396,-31
32-3,348777302,-19
32-4,348781208,1
32-5,348785114,-11
32-6,348789020,-63
32-7,348792926,-81
32-8,348796832,-50
32-9,348800738,-18
32-10,348804644,-6
32-11,348808550,0
32-12,348812456,-13
32-13,348816362,-63
32-14,348820268,-98
32-15,348824174,-75
32-16,348828080,-32
32-17,348831986,-22
32-18,348835892,-9
32-19,348839798,30
32-20,348843704,28
32-21,348847610,-25
32-22,348851516,-59
32-23,348855422,-61
32-24,348859328,-62
32-25,348863234,-62
32-26,348867140,-47
32-27,348871046,-42
32-28,348874952,-37
32-29,348878858,-6
32-30,348882764,17
32-31,348886670,25
32-32,348890576,58
32-1,348894488,79
32-2,348898394,46
32-3,348902300,-5
32-4,348906206,-6
32-5,348910112,3
32-6,348914018,-30
32-7,348917924,-33
32-8,348921830,-4
32-9,348925736,-10
32-10,348929642,-23
32-11,348933548,-43
32-12,348937454,-86
32-13,348941360,-101
32-14,348945266,-81
32-15,348949172,-65
32-16,348953078,-51
32-17,348956984,-39
32-18,348960890,-53
32-19,348964796,-62
32-20,348968702,-48
32-21,348972608,-36
32-22,348976514,-18
32-23,348980420,-6
32-24,348984326,-37
32-25,348988232,-53
32-26,348992138,-47
32-27,348996044,-85
32-28,348999950,-104
32-29,349003856,-61
32-30,349007762,-41
32-31,349011668,-50
32-32,349015574,-27
32-1,349019486,16
32-2,349023392,18
32-3,349027298,-2
32-4,349031204,-8
32-5,349035110,-16
32-6,349039016,-2
32-7,349042922,23
32-8,349046828,13
32-9,349050734,8
32-10,349054640,2
32-11,349058546,-16
32-12,349062452,0
32-13,349066358,28
32-14,349070264,21
32-15,349074170,6
32-16,349078076,7
32-17,349081982,-17
32-18,349085888,-72
32-19,349089794,-79
32-20,349093700,-49
32-21,349097606,-48
32-22,349101512,-42
32-23,349105418,-21
32-24,349109324,-19
32-25,349113230,-35
32-26,349117136,-71
32-27,349121042,-95
32-28,349124948,-55
32-29,349128854,-18
32-30,349132760,-54
32-31,349136666,-74
32-32,349140572,-51
32-1,349144483,-78
32-2,349148389,-141
32-3,349152295,-182
32-4,349156201,-157
32-5,349160107,-75
32-6,349164013,-27
32-7,349167919,-16
32-8,349171825,-14
32-9,349175731,-47
32-10,349179637,-60
32-11,349183543,-22
32-12,349187449,29
32-13,349191355,58
32-14,349195261,38
32-15,349199167,0
32-16,349203073,-39
32-17,349206979,-84
32-18,349210885,-103
32-19,349214791,-86
32-20,349218697,-63
32-21,349222603,-63
32-22,349226509,-56
32-23,349230415,-35
32-24,349234321,-54
32-25,349238227,-71
32-26,349242133,-60
32-27,349246039,-65
32-28,349249945,-38
32-29,349253851,29
32-30,349257757,48
32-31,349261663,7
32-32,349265569,-37
32-1,349269481,-42
32-2,349273387,-27
32-3,349277293,-25
32-4,349281199,-33
32-5,349285105,-54
32-6,349289011,-52
32-7,349292917,-20
32-8,349296823,-23
32-9,349300729,-52
32-10,349304635,-51
32-11,349308541,-41
32-12,349312447,-55
32-13,349316353,-73
32-14,349320259,-69
32-15,349324165,-77
32-16,349328071,-129
32-17,349331977,-166
32-18,349335883,-119
32-19,349339789,-59
32-20,349343695,-60
32-21,349347601,-57
32-22,349351507,-58
32-23,349355413,-114
32-24,349359319,-129
32-25,349363225,-80
32-26,349367131,-56
32-27,349371037,-55
32-28,349374943,-25
32-29,349378849,-5
32-30,349382755,-37
32-31,349386661,-60
32-32,349390567,-60
32-1,349394509,-77
32-2,349398415,-51
32-3,349402321,6
32-4,349406227,22
32-5,349410133,34
32-6,349414039,11
32-7,349417945,-50
32-8,349421851,-31
32-9,349425757,11
32-10,349429663,-7
32-11,349433569,-12
32-12,349437475,12
32-13,349441381,16
32-14,349445287,-11
32-15,349449193,-46
32-16,349453099,-42
32-17,349457005,15
32-18,349460911,62
32-19,349464817,49
32-20,349468723,33
32-21,349472629,45
32-22,349476535,30
32-23,349480441,-14
32-24,349484347,-17
32-25,349488253,28
32-26,349492159,43
32-27,349496065,9
32-28,349499971,16
32-29,349503877,21
32-30,349507783,-39
32-31,349511689,-67
32-32,349515595,-32
32-1,349519476,12
32-2,349523382,26
32-3,349527288,-3
32-4,349531194,-38
32-5,349535100,-69
32-6,349539006,-84
32-7,349542912,-67
32-8,349546818,-50
32-9,349550724,-34
32-10,349554630,-19
32-11,349558536,-11
32-12,349562442,-13
32-13,349566348,-49
32-14,349570254,-72
32-15,349574160,-27
32-16,349578066,37
32-17,349581972,61
32-18,349585878,45
32-19,349589784,21
32-20,349593690,-10
32-21,349597596,-58
32-22,349601502,-71
32-23,349605408,-37
32-24,349609314,-26
32-25,349613220,-39
32-26,349617126,-35
32-27,349621032,-29
32-28,349624938,-22
32-29,349628844,6
32-30,349632750,-6
32-31,349636656,-42
32-32,349640562,-20
32-1,349644474,-19
32-2,349648380,-54
32-3,349652286,-57
32-4,349656192,-88
32-5,349660098,-118
32-6,349664004,-76
32-7,349667910,-16
32-8,349671816,14
32-9,349675722,21
32-10,349679628,38
32-11,349683534,27
32-12,349687440,-33
32-13,349691346,-31
32-14,349695252,12
32-15,349699158,7
32-16,349703064,-9
32-17,349706970,-8
32-18,349710876,-22
32-19,349714782,-79
32-20,349718688,-134
32-21,349722594,-114
32-22,349726500,-55
32-23,349730406,-18
32-24,349734312,-18
32-25,349738218,-15
32-26,349742124,5
32-27,349746030,-30
32-28,349749936,-84
32-29,349753842,-85
32-30,349757748,-60
32-31,349761654,-31
32-32,349765560,-19
32-1,349769471,-29
32-2,349773377,-22
32-3,349777283,-13
32-4,349781189,-18
32-5,349785095,-18
32-6,349789001,8
32-7,349792907,38
32-8,349796813,30
32-9,349800719,-12
32-10,349804625,-70
32-11,349808531,-101
32-12,349812437,-87
32-13,349816343,-83
32-14,349820249,-85
32-15,349824155,-58
32-16,349828061,-26
32-17,349831967,-18
32-18,349835873,-38
32-19,349839779,-54
32-20,349843685,-40
32-21,349847591,-28
32-22,349851497,-41
32-23,349855403,-52
32-24,349859309,-42
32-25,349863215,-40
32-26,349867121,-69
32-27,349871027,-74
32-28,349874933,-29
32-29,349878839,-4
32-30,349882745,-5
32-31,349886651,-5
32-32,349890557,-8
32-1,349894469,-29
32-2,349898375,-62
32-3,349902281,-76
32-4,349906187,-79
32-5,349910093,-64
32-6,349913999,-27
32-7,349917905,-25
32-8,349921811,-51
32-9,349925717,-47
32-10,349929623,-38
32-11,349933529,-42
32-12,349937435,-29
32-13,349941341,-20
32-14,349945247,-36
32-15,349949153,-44
32-16,349953059,-52
32-17,349956965,-81
32-18,349960871,-85
32-19,349964777,-65
32-20,349968683,-37
32-21,349972589,-4
32-22,349976495,1
32-23,349980401,-7
32-24,349984307,-12
32-25,349988213,-35
32-26,349992119,-58
32-27,349996025,-65
32-28,349999931,-38
32-29,350003837,-13
32-30,350007743,-31
32-31,350011649,-59
32-32,350015555,-88
32-1,350019467,-112
32-2,350023373,-121
32-3,350027279,-83
32-4,350031185,-5
32-5,350035091,18
32-6,350038997,11
32-7,350042903,30
32-8,350046809,6
32-9,350050715,-53
32-10,350054621,-74
32-11,350058527,-60
32-12,350062433,-59
32-13,350066339,-61
32-14,350070245,-40
32-15,350074151,-36
32-16,350078057,-69
32-17,350081963,-79
32-18,350085869,-54
32-19,350089775,-49
32-20,350093681,-58
32-21,350097587,-37
32-22,350101493,-24
32-23,350105399,-74
32-24,350109305,-126
32-25,350113211,-101
32-26,350117117,-76
32-27,350121023,-81
32-28,350124929,-46
32-29,350128835,-15
32-30,350132741,-52
32-31,350136647,-89
32-32,350140553,-85
32-1,350144525,-77
32-2,350148431,-67
32-3,350152337,-50
32-4,350156243,-46
32-5,350160149,-40
32-6,350164055,-59
32-7,350167961,-116
32-8,350171867,-125
32-9,350175773,-67
32-10,350179679,-40
32-11,350183585,-62
32-12,350187491,-59
32-13,350191397,-44
32-14,350195303,-70
32-15,350199209,-93
32-16,350203115,-85
32-17,350207021,-54
32-18,350210927,-4
32-19,350214833,-7
32-20,350218739,-47
32-21,350222645,-58
32-22,350226551,-88
32-23,350230457,-126
32-24,350234363,-117
32-25,350238269,-92
32-26,350242175,-74
32-27,350246081,-85
32-28,350249987,-112
32-29,350253893,-109
32-30,350257799,-106
32-31,350261705,-110
32-32,350265611,-91
32-1,350269462,-61
32-2,350273368,-33
32-3,350277274,-10
32-4,350281180,4
32-5,350285086,-16
32-6,350288992,-55
32-7,350292898,-41
32-8,350296804,-3
32-9,350300710,-8
32-10,350304616,-27
32-11,350308522,-27
32-12,350312428,-30
32-13,350316334,-55
32-14,350320240,-78
32-15,350324146,-56
32-16,350328052,4
32-17,350331958,18
32-18,350335864,8
32-19,350339770,41
32-20,350343676,37
32-21,350347582,-30
32-22,350351488,-46
32-23,350355394,-3
32-24,350359300,24
32-25,350363206,28
32-26,350367112,42
32-27,350371018,38
32-28,350374924,6
32-29,350378830,-23
32-30,350382736,-55
32-31,350386642,-60
32-32,350390548,-6
32-1,350394459,27
32-2,350398365,19
32-3,350402271,3
32-4,350406177,-18
32-5,350410083,-29
32-6,350413989,-41
32-7,350417895,-46
32-8,350421801,-43
32-9,350425707,-42
32-10,350429613,-27
32-11,350433519,-33
32-12,350437425,-72
32-13,350441331,-91
32-14,350445237,-63
32-15,350449143,-22
32-16,350453049,-2
32-17,350456955,2
32-18,350460861,-9
32-19,350464767,-40
32-20,350468673,-71
32-21,350472579,-85
32-22,350476485,-74
32-23,350480391,-53
32-24,350484297,-33
32-25,350488203,-6
32-26,350492109,13
32-27,350496015,-8
32-28,350499921,-46
32-29,350503827,-58
32-30,350507733,-43
32-31,350511639,-27
32-32,350515545,-18
32-1,350519457,-6
32-2,350523363,6
32-3,350527269,-13
32-4,350531175,-52
32-5,350535081,-51
32-6,350538987,-21
32-7,350542893,-14
32-8,350546799,-24
32-9,350550705,-29
32-10,350554611,-65
32-11,350558517,-123
32-12,350562423,-118
32-13,350566329,-63
32-14,350570235,-42
32-15,350574141,-45
32-16,350578047,-30
32-17,350581953,-35
32-18,350585859,-79
32-19,350589765,-95
32-20,350593671,-68
32-21,350597577,-51
32-22,350601483,-58
32-23,350605389,-64
32-24,350609295,-45
32-25,350613201,-19
32-26,350617107,-36
32-27,350621013,-64
32-28,350624919,-33
32-29,350628825,4
32-30,350632731,-4
32-31,350636637,-10
32-32,350640543,-18
32-1,350644455,-60
32-2,350648361,-73
32-3,350652267,-40
32-4,350656173,-15
32-5,350660079,6
32-6,350663985,36
32-7,350667891,35
32-8,350671797,13
32-9,350675703,-29
32-10,350679609,-70
32-11,350683515,-55
32-12,350687421,-32
32-13,350691327,-39
32-14,350695233,-41
32-15,350699139,-31
32-16,350703045,-39
32-17,350706951,-69
32-18,350710857,-89
32-19,350714763,-81
32-20,350718669,-56
32-21,350722575,-39
32-22,350726481,-34
32-23,350730387,-17
32-24,350734293,-37
32-25,350738199,-68
32-26,350742105,-54
32-27,350746011,-39
32-28,350749917,-20
32-29,350753823,-8
32-30,350757729,-15
32-31,350761635,1
32-32,350765541,-19
32-1,350769452,-73
32-2,350773358,-64
32-3,350777264,-42
32-4,350781170,-37
32-5,350785076,-17
32-6,350788982,2
32-7,350792888,-8
32-8,350796794,-41
32-9,350800700,-57
32-10,350804606,-36
32-11,350808512,-27
32-12,350812418,-42
32-13,350816324,-28
32-14,350820230,10
32-15,350824136,28
32-16,350828042,-9
32-17,350831948,-63
32-18,350835854,-61
32-19,350839760,-24
32-20,350843666,-25
32-21,350847572,-43
32-22,350851478,-36
32-23,350855384,-51
32-24,350859290,-79
32-25,350863196,-50
32-26,350867102,-16
32-27,350871008,-34
32-28,350874914,-33
32-29,350878820,-15
32-30,350882726,-60
32-31,350886632,-125
32-32,350890538,-148
32-1,350894542,-144
32-2,350898448,-108
32-3,350902354,-66
32-4,350906260,-60
32-5,350910166,-50
32-6,350914072,-46
32-7,350917978,-79
32-8,350921884,-77
32-9,350925790,-22
32-10,350929696,15
32-11,350933602,-11
32-12,350937508,-41
32-13,350941414,-29
32-14,350945320,-56
32-15,350949226,-102
32-16,350953132,-72
32-17,350957038,-17
32-18,350960944,4
32-19,350964850,3
32-20,350968756,13
32-21,350972662,14
32-22,350976568,-26
32-23,350980474,-43
32-24,350984380,-20
32-25,350988286,0
32-26,350992192,3
32-27,350996098,-21
32-28,351000004,-34
32-29,351003910,-21
32-30,351007816,-20
32-31,351011722,-26
32-32,351015628,-29
32-1,351019448,-14
32-2,351023354,17
32-3,351027260,32
32-4,351031166,22
32-5,351035072,-24
32-6,351038978,-75
32-7,351042884,-72
32-8,351046790,-49
32-9,351050696,-35
32-10,351054602,-15
32-11,351058508,10
32-12,351062414,7
32-13,351066320,-29
32-14,351070226,-47
32-15,351074132,-31
32-16,351078038,-24
32-17,351081944,-15
32-18,351085850,11
32-19,351089756,36
32-20,351093662,24
32-21,351097568,-27
32-22,351101474,-54
32-23,351105380,-7
32-24,351109286,54
32-25,351113192,54
32-26,351117098,16
32-27,351121004,-11
32-28,351124910,-21
32-29,351128816,-13
32-30,351132722,-20
32-31,351136628,-13
32-32,351140534,32
32-1,351144445,46
32-2,351148351,19
32-3,351152257,-8
32-4,351156163,-38
32-5,351160069,-39
32-6,351163975,-26
32-7,351167881,-30
32-8,351171787,-26
32-9,351175693,-20
32-10,351179599,-28
32-11,351183505,-55
32-12,351187411,-103
32-13,351191317,-125
32-14,351195223,-107
32-15,351199129,-91
32-16,351203035,-86
32-17,351206941,-64
32-18,351210847,-37
32-19,351214753,-50
32-20,351218659,-81
32-21,351222565,-74
32-22,351226471,-30
32-23,351230377,-5
32-24,351234283,-27
32-25,351238189,-35
32-26,351242095,-21
32-27,351246001,-36
32-28,351249907,-68
32-29,351253813,-74
32-30,351257719,-36
32-31,351261625,-7
32-32,351265531,-17
32-1,351269443,-3
32-2,351273349,9
32-3,351277255,-20
32-4,351281161,-41
32-5,351285067,-32
32-6,351288973,-15
32-7,351292879,-19
32-8,351296785,-52
32-9,351300691,-65
32-10,351304597,-60
32-11,351308503,-72
32-12,351312409,-83
32-13,351316315,-70
32-14,351320221,-54
32-15,351324127,-54
32-16,351328033,-54
32-17,351331939,-38
32-18,351335845,-42
32-19,351339751,-56
32-20,351343657,-53
32-21,351347563,-44
32-22,351351469,-28
32-23,351355375,-17
32-24,351359281,-8
32-25,351363187,12
32-26,351367093,-18
32-27,351370999,-68
32-28,351374905,-38
32-29,351378811,19
32-30,351382717,26
32-31,351386623,34
32-32,351390529,50
32-1,351394441,11
32-2,351398347,-21
32-3,351402253,17
32-4,351406159,56
32-5,351410065,63
32-6,351413971,57
32-7,351417877,48
32-8,351421783,43
32-9,351425689,20
32-10,351429595,-12
32-11,351433501,-20
32-12,351437407,-6
32-13,351441313,11
32-14,351445219,19
32-15,351449125,15
32-16,351453031,-6
32-17,351456937,-38
32-18,351460843,-47
32-19,351464749,-37
32-20,351468655,-40
32-21,351472561,-26
32-22,351476467,5
32-23,351480373,-9
32-24,351484279,-50
32-25,351488185,-49
32-26,351492091,-25
32-27,351495997,-10
32-28,351499903,9
32-29,351503809,8
32-30,351507715,-3
32-31,351511621,-6
32-32,351515527,-56
32-1,351519438,-105
32-2,351523344,-63
32-3,351527250,5
32-4,351531156,35
32-5,351535062,45
32-6,351538968,50
32-7,351542874,34
32-8,351546780,-10
32-9,351550686,-30
32-10,351554592,-17
32-11,351558498,-27
32-12,351562404,-38
32-13,351566310,-23
32-14,351570216,-16
32-15,351574122,-36
32-16,351578028,-76
32-17,351581934,-112
32-18,351585840,-96
32-19,351589746,-54
32-20,351593652,-52
32-21,351597558,-59
32-22,351601464,-35
32-23,351605370,-27
32-24,351609276,-32
32-25,351613182,-24
32-26,351617088,-35
32-27,351620994,-35
32-28,351624900,5
32-29,351628806,13
32-30,351632712,-30
32-31,351636618,-58
32-32,351640524,-43
32-1,351644680,-23
32-2,351648586,-16
32-3,351652492,-22
32-4,351656398,-39
32-5,351660304,-32
32-6,351664210,-34
32-7,351668116,-69
32-8,351672022,-82
32-9,351675928,-70
32-10,351679834,-63
32-11,351683740,-57
32-12,351687646,-47
32-13,351691552,-42
32-14,351695458,-55
32-15,351699364,-56
32-16,351703270,-37
32-17,351707176,-11
32-18,351711082,-7
32-19,351714988,-33
32-20,351718894,-35
32-21,351722800,-36
32-22,351726706,-80
32-23,351730612,-96
32-24,351734518,-68
32-25,351738424,-40
32-26,351742330,-42
32-27,351746236,-69
32-28,351750142,-53
32-29,351754048,-31
32-30,351757954,-69
32-31,351761860,-76
32-32,351765766,-42
32-1,351769433,-32
32-2,351773339,-27
32-3,351777245,-15
32-4,351781151,-11
32-5,351785057,-22
32-6,351788963,-39
32-7,351792869,-35
32-8,351796775,-19
32-9,351800681,-16
32-10,351804587,-26
32-11,351808493,-34
32-12,351812399,-48
32-13,351816305,-89
32-14,351820211,-122
32-15,351824117,-90
32-16,351828023,-27
32-17,351831929,-11
32-18,351835835,-33
32-19,351839741,-26
32-20,351843647,-22
32-21,351847553,-69
32-22,351851459,-98
32-23,351855365,-85
32-24,351859271,-76
32-25,351863177,-54
32-26,351867083,-36
32-27,351870989,-64
32-28,351874895,-86
32-29,351878801,-81
32-30,351882707,-79
32-31,351886613,-82
32-32,351890519,-76
32-1,351894431,-51
32-2,351898337,-4
32-3,351902243,10
32-4,351906149,-26
32-5,351910055,-53
32-6,351913961,-59
32-7,351917867,-55
32-8,351921773,-38
32-9,351925679,-25
32-10,351929585,-3
32-11,351933491,3
32-12,351937397,-29
32-13,351941303,-38
32-14,351945209,-12
32-15,351949115,-5
32-16,351953021,-16
32-17,351956927,-12
32-18,351960833,3
32-19,351964739,-10
32-20,351968645,-57
32-21,351972551,-82
32-22,351976457,-73
32-23,351980363,-76
32-24,351984269,-84
32-25,351988175,-54
32-26,351992081,-44
32-27,351995987,-85
32-28,351999893,-96
32-29,352003799,-77
32-30,352007705,-75
32-31,352011611,-57
32-32,352015517,-24
32-1,352019429,-18
32-2,352023335,-37
32-3,352027241,-64
32-4,352031147,-89
32-5,352035053,-83
32-6,352038959,-50
32-7,352042865,-49
32-8,352046771,-72
32-9,352050677,-77
32-10,352054583,-96
32-11,352058489,-129
32-12,352062395,-126
32-13,352066301,-122
32-14,352070207,-131
32-15,352074113,-105
32-16,352078019,-92
32-17,352081925,-149
32-18,352085831,-211
32-19,352089737,-223
32-20,352093643,-179
32-21,352097549,-121
32-22,352101455,-100
32-23,352105361,-93
32-24,352109267,-75
32-25,352113173,-88
32-26,352117079,-109
32-27,352120985,-111
32-28,352124891,-111
32-29,352128797,-89
32-30,352132703,-87
32-31,352136609,-93
32-32,352140515,-54
32-1,352144426,-39
32-2,352148332,-53
32-3,352152238,-48
32-4,352156144,-41
32-5,352160050,-37
32-6,352163956,-42
32-7,352167862,-41
32-8,352171768,-34
32-9,352175674,-55
32-10,352179580,-87
32-11,352183486,-99
32-12,352187392,-84
32-13,352191298,-61
32-14,352195204,-64
32-15,352199110,-81
32-16,352203016,-108
32-17,352206922,-142
32-18,352210828,-136
32-19,352214734,-118
32-20,352218640,-118
32-21,352222546,-106
32-22,352226452,-92
32-23,352230358,-73
32-24,352234264,-64
32-25,352238170,-91
32-26,352242076,-110
32-27,352245982,-99
32-28,352249888,-73
32-29,352253794,-60
32-30,352257700,-65
32-31,352261606,-68
32-32,352265512,-74
32-1,352269546,-85
32-2,352273452,-81
32-3,352277358,-57
32-4,352281264,-47
32-5,352285170,-67
32-6,352289076,-61
32-7,352292982,-51
32-8,352296888,-70
32-9,352300794,-75
32-10,352304700,-48
32-11,352308606,0
32-12,352312512,21
32-13,352316418,1
32-14,352320324,-4
32-15,352324230,-22
32-16,352328136,-86
32-17,352332042,-131
32-18,352335948,-110
32-19,352339854,-55
32-20,352343760,-24
32-21,352347666,-8
32-22,352351572,-12
32-23,352355478,-61
32-24,352359384,-87
32-25,352363290,-61
32-26,352367196,-40
32-27,352371102,-35
32-28,352375008,-14
32-29,352378914,7
32-30,352382820,-23
32-31,352386726,-54
32-32,352390632,-36
32-1,352394574,-35
32-2,352398480,-48
32-3,352402386,-31
32-4,352406292,-18
32-5,352410198,-16
32-6,352414104,-42
32-7,352418010,-92
32-8,352421916,-88
32-9,352425822,-51
32-10,352429728,-46
32-11,352433634,-35
32-12,352437540,1
32-13,352441446,17
32-14,352445352,-3
32-15,352449258,-43
32-16,352453164,-63
32-17,352457070,-58
32-18,352460976,-64
32-19,352464882,-68
32-20,352468788,-53
32-21,352472694,-43
32-22,352476600,-57
32-23,352480506,-80
32-24,352484412,-68
32-25,352488318,-26
32-26,352492224,5
32-27,352496130,15
32-28,352500036,22
32-29,352503942,25
32-30,352507848,16
32-31,352511754,7
32-32,352515660,-7
32-1,352519419,-18
32-2,352523325,-8
32-3,352527231,5
32-4,352531137,-5
32-5,352535043,-40
32-6,352538949,-68
32-7,352542855,-69
32-8,352546761,-45
32-9,352550667,-22
32-10,352554573,-34
32-11,352558479,-31
32-12,352562385,-1
32-13,352566291,-19
32-14,352570197,-39
32-15,352574103,-2
32-16,352578009,28
32-17,352581915,16
32-18,352585821,-5
32-19,352589727,-1
32-20,352593633,-11
32-21,352597539,-58
32-22,352601445,-67
32-23,352605351,-33
32-24,352609257,-5
32-25,352613163,10
32-26,352617069,13
32-27,352620975,-3
32-28,352624881,-25
32-29,352628787,-21
32-30,352632693,-29
32-31,352636599,-45
32-32,352640505,-2
32-1,352644417,23
32-2,352648323,8
32-3,352652229,22
32-4,352656135,18
32-5,352660041,3
32-6,352663947,13
32-7,352667853,27
32-8,352671759,45
32-9,352675665,53
32-10,352679571,50
32-11,352683477,40
32-12,352687383,-5
32-13,352691289,-34
32-14,352695195,-12
32-15,352699101,-5
32-16,352703007,-15
32-17,352706913,4
32-18,352710819,27
32-19,352714725,6
32-20,352718631,-36
32-21,352722537,-40
32-22,352726443,-11
32-23,352730349,3
32-24,352734255,11
32-25,352738161,25
32-26,352742067,27
32-27,352745973,9
32-28,352749879,-6
32-29,352753785,3
32-30,352757691,9
32-31,352761597,-2
32-32,352765503,-3
32-1,352769414,9
32-2,352773320,12
32-3,352777226,-3
32-4,352781132,-20
32-5,352785038,-15
32-6,352788944,18
32-7,352792850,38
32-8,352796756,30
32-9,352800662,35
32-10,352804568,38
32-11,352808474,15
32-12,352812380,8
32-13,352816286,33
32-14,352820192,56
32-15,352824098,63
32-16,352828004,69
32-17,352831910,59
32-18,352835816,-1
32-19,352839722,-57
32-20,352843628,-55
32-21,352847534,-31
32-22,352851440,-17
32-23,352855346,-5
32-24,352859252,23
32-25,352863158,25
32-26,352867064,-9
32-27,352870970,-5
32-28,352874876,31
32-29,352878782,38
32-30,352882688,29
32-31,352886594,35
32-32,352890500,59
32-1,352894534,53
32-2,352898440,20
32-3,352902346,12
32-4,352906252,18
32-5,352910158,38
32-6,352914064,61
32-7,352917970,59
32-8,352921876,45
32-9,352925782,-5
32-10,352929688,-59
32-11,352933594,-53
32-12,352937500,-24
32-13,352941406,-32
32-14,352945312,-38
32-15,352949218,17
32-16,352953124,45
32-17,352957030,-16
32-18,352960936,-56
32-19,352964842,-30
32-20,352968748,-4
32-21,352972654,-5
32-22,352976560,-11
32-23,352980466,-2
32-24,352984372,-12
32-25,352988278,-46
32-26,352992184,-64
32-27,352996090,-52
32-28,352999996,-17
32-29,353003902,-2
32-30,353007808,-12
32-31,353011714,-5
32-32,353015620,-27
32-1,353019410,-81
32-2,353023316,-96
32-3,353027222,-108
32-4,353031128,-133
32-5,353035034,-100
32-6,353038940,-53
32-7,353042846,-58
32-8,353046752,-92
32-9,353050658,-101
32-10,353054564,-68
32-11,353058470,-23
32-12,353062376,-23
32-13,353066282,-32
32-14,353070188,-13
32-15,353074094,-4
32-16,353078000,-35
32-17,353081906,-63
32-18,353085812,-42
32-19,353089718,-10
32-20,353093624,-3
32-21,353097530,7
32-22,353101436,3
32-23,353105342,-19
32-24,353109248,-28
32-25,353113154,-23
32-26,353117060,-13
32-27,353120966,-5
32-28,353124872,12
32-29,353128778,38
32-30,353132684,16
32-31,353136590,-35
32-32,353140496,-40
32-1,353144590,-18
32-2,353148496,8
32-3,353152402,22
32-4,353156308,4
32-5,353160214,9
32-6,353164120,23
32-7,353168026,0
32-8,353171932,-14
32-9,353175838,-25
32-10,353179744,-43
32-11,353183650,-34
32-12,353187556,-15
32-13,353191462,-10
32-14,353195368,-40
32-15,353199274,-88
32-16,353203180,-74
32-17,353207086,-5
32-18,353210992,30
32-19,353214898,26
32-20,353218804,35
32-21,353222710,50
32-22,353226616,40
32-23,353230522,18
32-24,353234428,11
32-25,353238334,32
32-26,353242240,38
32-27,353246146,6
32-28,353250052,0
32-29,353253958,7
32-30,353257864,-41
32-31,353261770,-90
32-32,353265676,-85
32-1,353269405,-64
32-2,353273311,-48
32-3,353277217,-34
32-4,353281123,-28
32-5,353285029,-47
32-6,353288935,-58
32-7,353292841,-27
32-8,353296747,1
32-9,353300653,-8
32-10,353304559,-28
32-11,353308465,-21
32-12,353312371,-3
32-13,353316277,-33
32-14,353320183,-65
32-15,353324089,-21
32-16,353327995,40
32-17,353331901,52
32-18,353335807,44
32-19,353339713,33
32-20,353343619,16
32-21,353347525,-27
32-22,353351431,-75
32-23,353355337,-45
32-24,353359243,23
32-25,353363149,34
32-26,353367055,4
32-27,353370961,-20
32-28,353374867,-28
32-29,353378773,-38
32-30,353382679,-67
32-31,353386585,-69
32-32,353390491,-35
32-1,353394403,-12
32-2,353398309,-3
32-3,353402215,-1
32-4,353406121,-21
32-5,353410027,-43
32-6,353413933,-40
32-7,353417839,2
32-8,353421745,33
32-9,353425651,27
32-10,353429557,31
32-11,353433463,26
32-12,353437369,-8
32-13,353441275,-17
32-14,353445181,-4
32-15,353449087,-8
32-16,353452993,-19
32-17,353456899,-12
32-18,353460805,-7
32-19,353464711,-39
32-20,353468617,-69
32-21,353472523,-42
32-22,353476429,9
32-23,353480335,27
32-24,353484241,10
32-25,353488147,7
32-26,353492053,24
32-27,353495959,11
32-28,353499865,-13
32-29,353503771,-17
32-30,353507677,-26
32-31,353511583,-16
32-32,353515489,0
32-1,353519553,-24
32-2,353523459,-44
32-3,353527365,-48
32-4,353531271,-73
32-5,353535177,-83
32-6,353539083,-52
32-7,353542989,-35
32-8,353546895,-38
32-9,353550801,-30
32-10,353554707,-33
32-11,353558613,-44
32-12,353562519,-18
32-13,353566425,20
32-14,353570331,38
32-15,353574237,48
32-16,353578143,49
32-17,353582049,39
32-18,353585955,39
32-19,353589861,57
32-20,353593767,77
32-21,353597673,72
32-22,353601579,37
32-23,353605485,28
32-24,353609391,49
32-25,353613297,23
32-26,353617203,-21
32-27,353621109,-20
32-28,353625015,1
32-29,353628921,12
32-30,353632827,17
32-31,353636733,29
32-32,353640639,24
32-1,353644398,4
32-2,353648304,-6
32-3,353652210,-36
32-4,353656116,-56
32-5,353660022,-38
32-6,353663928,-53
32-7,353667834,-70
32-8,353671740,-26
32-9,353675646,17
32-10,353679552,13
32-11,353683458,2
32-12,353687364,18
32-13,353691270,43
32-14,353695176,60
32-15,353699082,52
32-16,353702988,17
32-17,353706894,8
32-18,353710800,23
32-19,353714706,22
32-20,353718612,16
32-21,353722518,19
32-22,353726424,28
32-23,353730330,35
32-24,353734236,27
32-25,353738142,24
32-26,353742048,22
32-27,353745954,8
32-28,353749860,21
32-29,353753766,57
32-30,353757672,41
32-31,353761578,-2
32-32,353765484,1
32-1,353769396,15
32-2,353773302,0
32-3,353777208,-5
32-4,353781114,-8
32-5,353785020,-21
32-6,353788926,-21
32-7,353792832,-34
32-8,353796738,-54
32-9,353800644,-51
32-10,353804550,-47
32-11,353808456,-39
32-12,353812362,-30
32-13,353816268,-19
32-14,353820174,-19
32-15,353824080,-43
32-16,353827986,-18
32-17,353831892,23
32-18,353835798,-10
32-19,353839704,-30
32-20,353843610,-14
32-21,353847516,-36
32-22,353851422,-52
32-23,353855328,-45
32-24,353859234,-63
32-25,353863140,-84
32-26,353867046,-91
32-27,353870952,-99
32-28,353874858,-94
32-29,353878764,-85
32-30,353882670,-89
32-31,353886576,-75
32-32,353890482,-57
32-1,353894576,-76
32-2,353898482,-74
32-3,353902388,-45
32-4,353906294,-36
32-5,353910200,-32
32-6,353914106,-30
32-7,353918012,-35
32-8,353921918,-62
32-9,353925824,-98
32-10,353929730,-88
32-11,353933636,-55
32-12,353937542,-39
32-13,353941448,-43
32-14,353945354,-57
32-15,353949260,-46
32-16,353953166,-25
32-17,353957072,-21
32-18,353960978,-27
32-19,353964884,-14
32-20,353968790,21
32-21,353972696,27
32-22,353976602,13
32-23,353980508,17
32-24,353984414,-6
32-25,353988320,-40
32-26,353992226,-11
32-27,353996132,34
32-28,354000038,45
32-29,354003944,56
32-30,354007850,55
32-31,354011756,30
32-32,354015662,-4
32-1,354019391,-27
32-2,354023297,-13
32-3,354027203,10
32-4,354031109,5
32-5,354035015,-4
32-6,354038921,-4
32-7,354042827,-16
32-8,354046733,-38
32-9,354050639,-25
32-10,354054545,6
32-11,354058451,16
32-12,354062357,18
32-13,354066263,36
32-14,354070169,46
32-15,354074075,33
32-16,354077981,29
32-17,354081887,10
32-18,354085793,-20
32-19,354089699,-8
32-20,354093605,28
32-21,354097511,58
32-22,354101417,73
32-23,354105323,70
32-24,354109229,55
32-25,354113135,54
32-26,354117041,88
32-27,354120947,95
32-28,354124853,88
32-29,354128759,127
32-30,354132665,132
32-31,354136571,102
32-32,354140477,103
32-1,354144388,89
32-2,354148294,58
32-3,354152200,34
32-4,354156106,3
32-5,354160012,-9
32-6,354163918,-20
32-7,354167824,-43
32-8,354171730,-22
32-9,354175636,18
32-10,354179542,15
32-11,354183448,21
32-12,354187354,43
32-13,354191260,17
32-14,354195166,-12
32-15,354199072,-3
32-16,354202978,13
32-17,354206884,30
32-18,354210790,61
32-19,354214696,89
32-20,354218602,82
32-21,354222508,49
32-22,354226414,27
32-23,354230320,29
32-24,354234226,33
32-25,354238132,21
32-26,354242038,14
32-27,354245944,18
32-28,354249850,33
32-29,354253756,54
32-30,354257662,39
32-31,354261568,-5
32-32,354265474,-33
32-1,354269386,-29
32-2,354273292,-25
32-3,354277198,-52
32-4,354281104,-66
32-5,354285010,-43
32-6,354288916,-20
32-7,354292822,13
32-8,354296728,46
32-9,354300634,31
32-10,354304540,-5
32-11,354308446,-15
32-12,354312352,-17
32-13,354316258,-41
32-14,354320164,-74
32-15,354324070,-85
32-16,354327976,-75
32-17,354331882,-67
32-18,354335788,-80
32-19,354339694,-108
32-20,354343600,-106
32-21,354347506,-93
32-22,354351412,-108
32-23,354355318,-103
32-24,354359224,-83
32-25,354363130,-78
32-26,354367036,-50
32-27,354370942,-47
32-28,354374848,-79
32-29,354378754,-78
32-30,354382660,-74
32-31,354386566,-88
32-32,354390472,-74
32-1,354394384,-37
32-2,354398290,-12
32-3,354402196,-16
32-4,354406102,-26
32-5,354410008,-15
32-6,354413914,9
32-7,354417820,25
32-8,354421726,15
32-9,354425632,19
32-10,354429538,24
32-11,354433444,-11
32-12,354437350,-30
32-13,354441256,-4
32-14,354445162,14
32-15,354449068,21
32-16,354452974,26
32-17,354456880,2
32-18,354460786,-30
32-19,354464692,1
32-20,354468598,58
32-21,354472504,62
32-22,354476410,35
32-23,354480316,21
32-24,354484222,2
32-25,354488128,-31
32-26,354492034,-68
32-27,354495940,-50
32-28,354499846,29
32-29,354503752,46
32-30,354507658,41
32-31,354511564,75
32-32,354515470,35
32-1,354519381,-28
32-2,354523287,-27
32-3,354527193,-16
32-4,354531099,-11
32-5,354535005,-25
32-6,354538911,-34
32-7,354542817,-38
32-8,354546723,-72
32-9,354550629,-101
32-10,354554535,-78
32-11,354558441,-14
32-12,354562347,27
32-13,354566253,26
32-14,354570159,21
32-15,354574065,8
32-16,354577971,-27
32-17,354581877,-61
32-18,354585783,-50
32-19,354589689,-12
32-20,354593595,-4
32-21,354597501,-6
32-22,354601407,-9
32-23,354605313,-44
32-24,354609219,-72
32-25,354613125,-48
32-26,354617031,-24
32-27,354620937,-37
32-28,354624843,-39
32-29,354628749,-37
32-30,354632655,-65
32-31,354636561,-85
32-32,354640467,-76
32-1,354644532,-58
32-2,354648438,-41
32-3,354652344,-37
32-4,354656250,-34
32-5,354660156,-35
32-6,354664062,-66
32-7,354667968,-94
32-8,354671874,-88
32-9,354675780,-78
32-10,354679686,-82
32-11,354683592,-101
32-12,354687498,-102
32-13,354691404,-101
32-14,354695310,-135
32-15,354699216,-142
32-16,354703122,-102
32-17,354707028,-68
32-18,354710934,-53
32-19,354714840,-62
32-20,354718746,-80
32-21,354722652,-85
32-22,354726558,-96
32-23,354730464,-104
32-24,354734370,-80
32-25,354738276,-37
32-26,354742182,-12
32-27,354746088,-19
32-28,354749994,-17
32-29,354753900,-38
32-30,354757806,-109
32-31,354761712,-149
32-32,354765618,-142
32-1,354769377,-126
32-2,354773283,-100
32-3,354777189,-79
32-4,354781095,-86
32-5,354785001,-113
32-6,354788907,-129
32-7,354792813,-98
32-8,354796719,-51
32-9,354800625,-39
32-10,354804531,-48
32-11,354808437,-34
32-12,354812343,-20
32-13,354816249,-56
32-14,354820155,-92
32-15,354824061,-59
32-16,354827967,-5
32-17,354831873,31
32-18,354835779,62
32-19,354839685,73
32-20,354843591,54
32-21,354847497,26
32-22,354851403,26
32-23,354855309,54
32-24,354859215,61
32-25,354863121,48
32-26,354867027,58
32-27,354870933,62
32-28,354874839,37
32-29,354878745,19
32-30,354882651,21
32-31,354886557,15
32-32,354890463,15
32-1,354894374,25
32-2,354898280,26
32-3,354902186,0
32-4,354906092,-44
32-5,354909998,-64
32-6,354913904,-50
32-7,354917810,-25
32-8,354921716,-2
32-9,354925622,-1
32-10,354929528,-19
32-11,354933434,-57
32-12,354937340,-95
32-13,354941246,-89
32-14,354945152,-54
32-15,354949058,-32
32-16,354952964,-14
32-17,354956870,11
32-18,354960776,27
32-19,354964682,7
32-20,354968588,-20
32-21,354972494,-13
32-22,354976400,-2
32-23,354980306,-14
32-24,354984212,-19
32-25,354988118,-9
32-26,354992024,-26
32-27,354995930,-73
32-28,354999836,-75
32-29,355003742,-27
32-30,355007648,-8
32-31,355011554,-8
32-32,355015460,-7
32-1,355019372,4
32-2,355023278,14
32-3,355027184,-31
32-4,355031090,-89
32-5,355034996,-79
32-6,355038902,-21
32-7,355042808,11
32-8,355046714,2
32-9,355050620,7
32-10,355054526,5
32-11,355058432,-25
32-12,355062338,-39
32-13,355066244,-31
32-14,355070150,-8
32-15,355074056,20
32-16,355077962,17
32-17,355081868,-29
32-18,355085774,-77
32-19,355089680,-93
32-20,355093586,-85
32-21,355097492,-66
32-22,355101398,-52
32-23,355105304,-43
32-24,355109210,-27
32-25,355113116,-43
32-26,355117022,-106
32-27,355120928,-125
32-28,355124834,-60
32-29,355128740,-18
32-30,355132646,-51
32-31,355136552,-73
32-32,355140458,-53
32-1,355144370,-52
32-2,355148276,-75
32-3,355152182,-74
32-4,355156088,-56
32-5,355159994,-49
32-6,355163900,-46
32-7,355167806,-43
32-8,355171712,-38
32-9,355175618,-51
32-10,355179524,-81
32-11,355183430,-79
32-12,355187336,-44
32-13,355191242,-34
32-14,355195148,-50
32-15,355199054,-53
32-16,355202960,-58
32-17,355206866,-96
32-18,355210772,-115
32-19,355214678,-95
32-20,355218584,-75
32-21,355222490,-57
32-22,355226396,-45
32-23,355230302,-44
32-24,355234208,-64
32-25,355238114,-85
32-26,355242020,-59
32-27,355245926,-24
32-28,355249832,-36
32-29,355253738,-72
32-30,355257644,-72
32-31,355261550,-59
32-32,355265456,-86
32-1,355269367,-118
32-2,355273273,-126
32-3,355277179,-114
32-4,355281085,-89
32-5,355284991,-84
32-6,355288897,-88
32-7,355292803,-81
32-8,355296709,-122
32-9,355300615,-173
32-10,355304521,-141
32-11,355308427,-99
32-12,355312333,-99
32-13,355316239,-84
32-14,355320145,-71
32-15,355324051,-86
32-16,355327957,-84
32-17,355331863,-72
32-18,355335769,-64
32-19,355339675,-46
32-20,355343581,-41
32-21,355347487,-63
32-22,355351393,-81
32-23,355355299,-118
32-24,355359205,-163
32-25,355363111,-158
32-26,355367017,-133
32-27,355370923,-118
32-28,355374829,-95
32-29,355378735,-88
32-30,355382641,-118
32-31,355386547,-153
32-32,355390453,-158
32-1,355394700,-154
32-2,355398606,-152
32-3,355402512,-126
32-4,355406418,-71
32-5,355410324,-21
32-6,355414230,-16
32-7,355418136,-47
32-8,355422042,-66
32-9,355425948,-47
32-10,355429854,-32
32-11,355433760,-63
32-12,355437666,-85
32-13,355441572,-80
32-14,355445478,-100
32-15,355449384,-119
32-16,355453290,-99
32-17,355457196,-57
32-18,355461102,-21
32-19,355465008,-22
32-20,355468914,-46
32-21,355472820,-43
32-22,355476726,-36
32-23,355480632,-68
32-24,355484538,-81
32-25,355488444,-45
32-26,355492350,-32
32-27,355496256,-39
32-28,355500162,-2
32-29,355504068,17
32-30,355507974,-30
32-31,355511880,-70
32-32,355515786,-82
32-1,355519362,-82
32-2,355523268,-43
32-3,355527174,1
32-4,355531080,7
32-5,355534986,-21
32-6,355538892,-51
32-7,355542798,-18
32-8,355546704,45
32-9,355550610,66
32-10,355554516,71
32-11,355558422,69
32-12,355562328,41
32-13,355566234,7
32-14,355570140,3
32-15,355574046,64
32-16,355577952,125
32-17,355581858,124
32-18,355585764,120
32-19,355589670,151
32-20,355593576,153
32-21,355597482,123
32-22,355601388,124
32-23,355605294,122
32-24,355609200,90
32-25,355613106,85
32-26,355617012,118
32-27,355620918,133
32-28,355624824,99
32-29,355628730,73
32-30,355632636,81
32-31,355636542,90
32-32,355640448,120
32-1,355644360,149
32-2,355648266,142
32-3,355652172,143
32-4,355656078,133
32-5,355659984,83
32-6,355663890,54
32-7,355667796,73
32-8,355671702,85
32-9,355675608,82
32-10,355679514,98
32-11,355683420,91
32-12,355687326,40
32-13,355691232,13
32-14,355695138,15
32-15,355699044,29
32-16,355702950,55
32-17,355706856,82
32-18,355710762,106
32-19,355714668,73
32-20,355718574,-5
32-21,355722480,-7
32-22,355726386,24
32-23,355730292,7
32-24,355734198,0
32-25,355738104,27
32-26,355742010,16
32-27,355745916,-46
32-28,355749822,-71
32-29,355753728,-40
32-30,355757634,-17
32-31,355761540,-13
32-32,355765446,-2
32-1,355769358,28
32-2,355773264,29
32-3,355777170,-25
32-4,355781076,-49
32-5,355784982,-13
32-6,355788888,10
32-7,355792794,3
32-8,355796700,1
32-9,355800606,25
32-10,355804512,39
32-11,355808418,-7
32-12,355812324,-66
32-13,355816230,-84
32-14,355820136,-61
32-15,355824042,-7
32-16,355827948,39
32-17,355831854,43
32-18,355835760,12
32-19,355839666,-7
32-20,355843572,15
32-21,355847478,36
32-22,355851384,44
32-23,355855290,64
32-24,355859196,89
32-25,355863102,72
32-26,355867008,-8
32-27,355870914,-51
32-28,355874820,-1
32-29,355878726,31
32-30,355882632,-2
32-31,355886538,-22
32-32,355890444,-15
32-1,355894355,-37
32-2,355898261,-57
32-3,355902167,-40
32-4,355906073,-37
32-5,355909979,-31
32-6,355913885,-13
32-7,355917791,-11
32-8,355921697,-6
32-9,355925603,-13
32-10,355929509,-31
32-11,355933415,-12
32-12,355937321,-1
32-13,355941227,-15
32-14,355945133,-10
32-15,355949039,-3
32-16,355952945,-28
32-17,355956851,-83
32-18,355960757,-129
32-19,355964663,-98
32-20,355968569,-23
32-21,355972475,-4
32-22,355976381,-22
32-23,355980287,-24
32-24,355984193,-49
32-25,355988099,-86
32-26,355992005,-83
32-27,355995911,-63
32-28,355999817,-18
32-29,356003723,27
32-30,356007629,25
32-31,356011535,14
32-32,356015441,-8
32-1,356019353,-53
32-2,356023259,-74
32-3,356027165,-52
32-4,356031071,-20
32-5,356034977,-12
32-6,356038883,4
32-7,356042789,3
32-8,356046695,-43
32-9,356050601,-48
32-10,356054507,-16
32-11,356058413,12
32-12,356062319,54
32-13,356066225,72
32-14,356070131,64
32-15,356074037,53
32-16,356077943,9
32-17,356081849,-35
32-18,356085755,-26
32-19,356089661,-9
32-20,356093567,1
32-21,356097473,34
32-22,356101379,47
32-23,356105285,17
32-24,356109191,-20
32-25,356113097,-22
32-26,356117003,12
32-27,356120909,46
32-28,356124815,67
32-29,356128721,65
32-30,356132627,20
32-31,356136533,-37
32-32,356140439,-46
32-1,356144351,-28
32-2,356148257,-22
32-3,356152163,-2
32-4,356156069,26
32-5,356159975,28
32-6,356163881,4
32-7,356167787,-46
32-8,356171693,-86
32-9,356175599,-67
32-10,356179505,-44
32-11,356183411,-59
32-12,356187317,-60
32-13,356191223,-24
32-14,356195129,-30
32-15,356199035,-79
32-16,356202941,-78
32-17,356206847,-41
32-18,356210753,-33
32-19,356214659,-49
32-20,356218565,-56
32-21,356222471,-60
32-22,356226377,-86
32-23,356230283,-103
32-24,356234189,-75
32-25,356238095,-37
32-26,356242001,-30
32-27,356245907,-46
32-28,356249813,-29
32-29,356253719,-22
32-30,356257625,-80
32-31,356261531,-120
32-32,356265437,-105
32-1,356269348,-91
32-2,356273254,-82
32-3,356277160,-55
32-4,356281066,-39
32-5,356284972,-69
32-6,356288878,-107
32-7,356292784,-85
32-8,356296690,-34
32-9,356300596,-25
32-10,356304502,-27
32-11,356308408,-11
32-12,356312314,-18
32-13,356316220,-64
32-14,356320126,-90
32-15,356324032,-45
32-16,356327938,1
32-17,356331844,-14
32-18,356335750,-23
32-19,356339656,-29
32-20,356343562,-58
32-21,356347468,-79
32-22,356351374,-69
32-23,356355280,-31
32-24,356359186,-2
32-25,356363092,-4
32-26,356366998,8
32-27,356370904,20
32-28,356374810,-1
32-29,356378716,-10
32-30,356382622,-13
32-31,356386528,-33
32-32,356390434,-27
32-1,356394346,-7
32-2,356398252,-18
32-3,356402158,-55
32-4,356406064,-99
32-5,356409970,-125
32-6,356413876,-122
32-7,356417782,-111
32-8,356421688,-109
32-9,356425594,-110
32-10,356429500,-100
32-11,356433406,-97
32-12,356437312,-103
32-13,356441218,-96
32-14,356445124,-73
32-15,356449030,-31
32-16,356452936,-11
32-17,356456842,-25
32-18,356460748,-14
32-19,356464654,-19
32-20,356468560,-72
32-21,356472466,-82
32-22,356476372,-43
32-23,356480278,-39
32-24,356484184,-67
32-25,356488090,-77
32-26,356491996,-82
32-27,356495902,-103
32-28,356499808,-98
32-29,356503714,-53
32-30,356507620,-13
32-31,356511526,-9
32-32,356515432,-23
32-1,356519343,-20
32-2,356523249,-14
32-3,356527155,-30
32-4,356531061,-33
32-5,356534967,-17
32-6,356538873,-5
32-7,356542779,16
32-8,356546685,23
32-9,356550591,7
32-10,356554497,-15
32-11,356558403,-63
32-12,356562309,-112
32-13,356566215,-114
32-14,356570121,-92
32-15,356574027,-71
32-16,356577933,-51
32-17,356581839,-52
32-18,356585745,-84
32-19,356589651,-109
32-20,356593557,-101
32-21,356597463,-74
32-22,356601369,-41
32-23,356605275,-35
32-24,356609181,-60
32-25,356613087,-80
32-26,356616993,-101
32-27,356620899,-129
32-28,356624805,-120
32-29,356628711,-93
32-30,356632617,-101
32-31,356636523,-102
32-32,356640429,-81
32-1,356644341,-121
32-2,356648247,-165
32-3,356652153,-137
32-4,356656059,-99
32-5,356659965,-59
32-6,356663871,-36
32-7,356667777,-48
32-8,356671683,-30
32-9,356675589,-29
32-10,356679495,-80
32-11,356683401,-79
32-12,356687307,-28
32-13,356691213,-12
32-14,356695119,-26
32-15,356699025,-27
32-16,356702931,-38
32-17,356706837,-66
32-18,356710743,-85
32-19,356714649,-95
32-20,356718555,-87
32-21,356722461,-71
32-22,356726367,-71
32-23,356730273,-68
32-24,356734179,-101
32-25,356738085,-138
32-26,356741991,-117
32-27,356745897,-81
32-28,356749803,-48
32-29,356753709,-41
32-30,356757615,-73
32-31,356761521,-81
32-32,356765427,-79
32-1,356769339,-94
32-2,356773245,-112
32-3,356777151,-105
32-4,356781057,-72
32-5,356784963,-54
32-6,356788869,-38
32-7,356792775,-44
32-8,356796681,-95
32-9,356800587,-116
32-10,356804493,-90
32-11,356808399,-67
32-12,356812305,-73
32-13,356816211,-94
32-14,356820117,-86
32-15,356824023,-82
32-16,356827929,-112
32-17,356831835,-107
32-18,356835741,-49
32-19,356839647,-8
32-20,356843553,-15
32-21,356847459,-36
32-22,356851365,-43
32-23,356855271,-54
32-24,356859177,-89
32-25,356863083,-111
32-26,356866989,-78
32-27,356870895,-43
32-28,356874801,-37
32-29,356878707,-30
32-30,356882613,-43
32-31,356886519,-88
32-32,356890425,-123
32-1,356894336,-122
32-2,356898242,-82
32-3,356902148,-35
32-4,356906054,-6
32-5,356909960,-8
32-6,356913866,-47
32-7,356917772,-99
32-8,356921678,-125
32-9,356925584,-115
32-10,356929490,-89
32-11,356933396,-62
32-12,356937302,-34
32-13,356941208,-35
32-14,356945114,-84
32-15,356949020,-124
32-16,356952926,-126
32-17,356956832,-101
32-18,356960738,-67
32-19,356964644,-64
32-20,356968550,-47
32-21,356972456,8
32-22,356976362,0
32-23,356980268,-46
32-24,356984174,-25
32-25,356988080,19
32-26,356991986,7
32-27,356995892,-31
32-28,356999798,-27
32-29,357003704,-13
32-30,357007610,-53
32-31,357011516,-95
32-32,357015422,-89
32-1,357019334,-87
32-2,357023240,-106
32-3,357027146,-95
32-4,357031052,-88
32-5,357034958,-127
32-6,357038864,-144
32-7,357042770,-117
32-8,357046676,-81
32-9,357050582,-62
32-10,357054488,-64
32-11,357058394,-58
32-12,357062300,-52
32-13,357066206,-77
32-14,357070112,-107
32-15,357074018,-116
32-16,357077924,-92
32-17,357081830,-65
32-18,357085736,-63
32-19,357089642,-60
32-20,357093548,-69
32-21,357097454,-104
32-22,357101360,-94
32-23,357105266,-30
32-24,357109172,26
32-25,357113078,50
32-26,357116984,55
32-27,357120890,47
32-28,357124796,21
32-29,357128702,-8
32-30,357132608,-41
32-31,357136514,-68
32-32,357140420,-50
32-1,357144301,-15
32-2,357148207,2
32-3,357152113,-6
32-4,357156019,-20
32-5,357159925,-25
32-6,357163831,-19
32-7,357167737,11
32-8,357171643,41
32-9,357175549,35
32-10,357179455,31
32-11,357183361,3
32-12,357187267,-64
32-13,357191173,-87
32-14,357195079,-69
32-15,357198985,-77
32-16,357202891,-83
32-17,357206797,-62
32-18,357210703,-50
32-19,357214609,-68
32-20,357218515,-76
32-21,357222421,-44
32-22,357226327,-27
32-23,357230233,-44
32-24,357234139,-47
32-25,357238045,-24
32-26,357241951,-32
32-27,357245857,-88
32-28,357249763,-102
32-29,357253669,-78
32-30,357257575,-76
32-31,357261481,-56
32-32,357265387,-50
32-1,357269329,-71
32-2,357273235,-74
32-3,357277141,-96
32-4,357281047,-126
32-5,357284953,-110
32-6,357288859,-74
32-7,357292765,-50
32-8,357296671,-35
32-9,357300577,-30
32-10,357304483,-45
32-11,357308389,-71
32-12,357312295,-79
32-13,357316201,-49
32-14,357320107,-11
32-15,357324013,-4
32-16,357327919,2
32-17,357331825,8
32-18,357335731,-29
32-19,357339637,-55
32-20,357343543,-39
32-21,357347449,-36
32-22,357351355,-40
32-23,357355261,-28
32-24,357359167,-9
32-25,357363073,0
32-26,357366979,-24
32-27,357370885,-47
32-28,357374791,-8
32-29,357378697,27
32-30,357382603,-6
32-31,357386509,-17
32-32,357390415,22
32-1,357394327,3
32-2,357398233,-66
32-3,357402139,-86
32-4,357406045,-60
32-5,357409951,-45
32-6,357413857,-54
32-7,357417763,-53
32-8,357421669,-48
32-9,357425575,-84
32-10,357429481,-125
32-11,357433387,-96
32-12,357437293,-43
32-13,357441199,-33
32-14,357445105,-38
32-15,357449011,-33
32-16,357452917,-19
32-17,357456823,-17
32-18,357460729,-32
32-19,357464635,-26
32-20,357468541,1
32-21,357472447,16
32-22,357476353,34
32-23,357480259,60
32-24,357484165,37
32-25,357488071,-12
32-26,357491977,-19
32-27,357495883,-5
32-28,357499789,5
32-29,357503695,2
32-30,357507601,2
32-31,357511507,21
32-32,357515413,2
32-1,357519325,-47
32-2,357523231,-51
32-3,357527137,-25
32-4,357531043,-19
32-5,357534949,-21
32-6,357538855,-5
32-7,357542761,-11
32-8,357546667,-53
32-9,357550573,-61
32-10,357554479,-28
32-11,357558385,-3
32-12,357562291,-19
32-13,357566197,-35
32-14,357570103,-4
32-15,357574009,-2
32-16,357577915,-56
32-17,357581821,-54
32-18,357585727,-9
32-19,357589633,2
32-20,357593539,-13
32-21,357597445,-31
32-22,357601351,-57
32-23,357605257,-89
32-24,357609163,-103
32-25,357613069,-93
32-26,357616975,-82
32-27,357620881,-71
32-28,357624787,-46
32-29,357628693,-19
32-30,357632599,-14
32-31,357636505,-13
32-32,357640411,-4
32-1,357644322,-14
32-2,357648228,-19
32-3,357652134,2
32-4,357656040,-1
32-5,357659946,0
32-6,357663852,11
32-7,357667758,-31
32-8,357671664,-77
32-9,357675570,-80
32-10,357679476,-75
32-11,357683382,-56
32-12,357687288,-22
32-13,357691194,-3
32-14,357695100,-19
32-15,357699006,-54
32-16,357702912,-64
32-17,357706818,-59
32-18,357710724,-59
32-19,357714630,-43
32-20,357718536,-19
32-21,357722442,-26
32-22,357726348,-57
32-23,357730254,-57
32-24,357734160,-26
32-25,357738066,0
32-26,357741972,17
32-27,357745878,12
32-28,357749784,6
32-29,357753690,-3
32-30,357757596,-37
32-31,357761502,-60
32-32,357765408,-58
32-1,357769381,-29
32-2,357773287,11
32-3,357777193,12
32-4,357781099,28
32-5,357785005,53
32-6,357788911,27
32-7,357792817,23
32-8,357796723,45
32-9,357800629,33
32-10,357804535,21
32-11,357808441,27
32-12,357812347,22
32-13,357816253,-1
32-14,357820159,-18
32-15,357824065,-4
32-16,357827971,14
32-17,357831877,16
32-18,357835783,19
32-19,357839689,24
32-20,357843595,10
32-21,357847501,-22
32-22,357851407,-42
32-23,357855313,-14
32-24,357859219,39
32-25,357863125,56
32-26,357867031,40
32-27,357870937,8
32-28,357874843,-8
32-29,357878749,13
32-30,357882655,25
32-31,357886561,26
32-32,357890467,58
32-1,357894317,78
32-2,357898223,61
32-3,357902129,33
32-4,357906035,3
32-5,357909941,-19
32-6,357913847,-11
32-7,357917753,19
32-8,357921659,28
32-9,357925565,19
32-10,357929471,21
32-11,357933377,3
32-12,357937283,-41
32-13,357941189,-62
32-14,357945095,-51
32-15,357949001,-26
32-16,357952907,-15
32-17,357956813,-20
32-18,357960719,-9
32-19,357964625,-21
32-20,357968531,-70
32-21,357972437,-87
32-22,357976343,-80
32-23,357980249,-65
32-24,357984155,-17
32-25,357988061,22
32-26,357991967,13
32-27,357995873,-28
32-28,357999779,-52
32-29,358003685,-49
32-30,358007591,-40
32-31,358011497,-14
32-32,358015403,9
32-1,358019315,4
32-2,358023221,12
32-3,358027127,15
32-4,358031033,-4
32-5,358034939,12
32-6,358038845,47
32-7,358042751,56
32-8,358046657,57
32-9,358050563,44
32-10,358054469,1
32-11,358058375,-32
32-12,358062281,-34
32-13,358066187,-22
32-14,358070093,-2
32-15,358073999,18
32-16,358077905,31
32-17,358081811,22
32-18,358085717,-21
32-19,358089623,-74
32-20,358093529,-68
32-21,358097435,-4
32-22,358101341,19
32-23,358105247,6
32-24,358109153,14
32-25,358113059,24
32-26,358116965,20
32-27,358120871,17
32-28,358124777,47
32-29,358128683,58
32-30,358132589,9
32-31,358136495,-9
32-32,358140401,40
32-1,358144313,45
32-2,358148219,-15
32-3,358152125,-44
32-4,358156031,-30
32-5,358159937,-18
32-6,358163843,-2
32-7,358167749,10
32-8,358171655,7
32-9,358175561,-18
32-10,358179467,-48
32-11,358183373,-42
32-12,358187279,6
32-13,358191185,52
32-14,358195091,66
32-15,358198997,61
32-16,358202903,49
32-17,358206809,-2
32-18,358210715,-66
32-19,358214621,-65
32-20,358218527,-27
32-21,358222433,-27
32-22,358226339,-38
32-23,358230245,-28
32-24,358234151,-53
32-25,358238057,-89
32-26,358241963,-75
32-27,358245869,-55
32-28,358249775,-55
32-29,358253681,-56
32-30,358257587,-50
32-31,358261493,-31
32-32,358265399,-38
32-1,358269310,-69
32-2,358273216,-83
32-3,358277122,-72
32-4,358281028,-38
32-5,358284934,-24
32-6,358288840,-30
32-7,358292746,-18
32-8,358296652,-35
32-9,358300558,-69
32-10,358304464,-43
32-11,358308370,9
32-12,358312276,2
32-13,358316182,-59
32-14,358320088,-69
32-15,358323994,-43
32-16,358327900,-77
32-17,358331806,-99
32-18,358335712,-58
32-19,358339618,-25
32-20,358343524,-22
32-21,358347430,-23
32-22,358351336,-9
32-23,358355242,-19
32-24,358359148,-64
32-25,358363054,-71
32-26,358366960,-66
32-27,358370866,-52
32-28,358374772,-6
32-29,358378678,-2
32-30,358382584,-35
32-31,358386490,-59
32-32,358390396,-64
32-1,358394613,-43
32-2,358398519,-18
32-3,358402425,1
32-4,358406331,27
32-5,358410237,29
32-6,358414143,-14
32-7,358418049,-72
32-8,358421955,-87
32-9,358425861,-44
32-10,358429767,4
32-11,358433673,20
32-12,358437579,20
32-13,358441485,27
32-14,358445391,21
32-15,358449297,-13
32-16,358453203,-39
32-17,358457109,-30
32-18,358461015,5
32-19,358464921,26
32-20,358468827,23
32-21,358472733,5
32-22,358476639,-41
32-23,358480545,-72
32-24,358484451,-48
32-25,358488357,-23
32-26,358492263,-24
32-27,358496169,-29
32-28,358500075,2
32-29,358503981,33
32-30,358507887,-1
32-31,358511793,-42
32-32,358515699,-41
32-1,358519306,-35
32-2,358523212,-22
32-3,358527118,2
32-4,358531024,16
32-5,358534930,5
32-6,358538836,-5
32-7,358542742,29
32-8,358546648,59
32-9,358550554,43
32-10,358554460,25
32-11,358558366,27
32-12,358562272,31
32-13,358566178,17
32-14,358570084,-1
32-15,358573990,-8
32-16,358577896,-4
32-17,358581802,-10
32-18,358585708,-37
32-19,358589614,-35
32-20,358593520,-11
32-21,358597426,-50
32-22,358601332,-81
32-23,358605238,-34
32-24,358609144,-4
32-25,358613050,-12
32-26,358616956,-18
32-27,358620862,-44
32-28,358624768,-65
32-29,358628674,-54
32-30,358632580,-52
32-31,358636486,-40
32-32,358640392,-3
32-1,358644303,1
32-2,358648209,-15
32-3,358652115,-32
32-4,358656021,-72
32-5,358659927,-90
32-6,358663833,-99
32-7,358667739,-108
32-8,358671645,-61
32-9,358675551,-13
32-10,358679457,-13
32-11,358683363,-33
32-12,358687269,-59
32-13,358691175,-51
32-14,358695081,-23
32-15,358698987,-18
32-16,358702893,-15
32-17,358706799,-2
32-18,358710705,15
32-19,358714611,-4
32-20,358718517,-46
32-21,358722423,-40
32-22,358726329,-16
32-23,358730235,-18
32-24,358734141,-26
32-25,358738047,-28
32-26,358741953,-38
32-27,358745859,-74
32-28,358749765,-87
32-29,358753671,-72
32-30,358757577,-64
32-31,358761483,-55
32-32,358765389,-41
32-1,358769301,-25
32-2,358773207,-32
32-3,358777113,-64
32-4,358781019,-85
32-5,358784925,-78
32-6,358788831,-35
32-7,358792737,-3
32-8,358796643,-7
32-9,358800549,-15
32-10,358804455,-36
32-11,358808361,-50
32-12,358812267,-47
32-13,358816173,-29
32-14,358820079,3
32-15,358823985,-3
32-16,358827891,-14
32-17,358831797,6
32-18,358835703,-13
32-19,358839609,-55
32-20,358843515,-43
32-21,358847421,-2
32-22,358851327,10
32-23,358855233,15
32-24,358859139,42
32-25,358863045,40
32-26,358866951,-18
32-27,358870857,-43
32-28,358874763,-1
32-29,358878669,2
32-30,358882575,-36
32-31,358886481,-17
32-32,358890387,34
32-1,358894298,36
32-2,358898204,-5
32-3,358902110,-41
32-4,358906016,-49
32-5,358909922,-34
32-6,358913828,-29
32-7,358917734,-34
32-8,358921640,-29
32-9,358925546,-53
32-10,358929452,-80
32-11,358933358,-31
32-12,358937264,26
32-13,358941170,20
32-14,358945076,3
32-15,358948982,-2
32-16,358952888,-30
32-17,358956794,-74
32-18,358960700,-96
32-19,358964606,-94
32-20,358968512,-69
32-21,358972418,-45
32-22,358976324,-62
32-23,358980230,-70
32-24,358984136,-66
32-25,358988042,-91
32-26,358991948,-104
32-27,358995854,-72
32-28,358999760,-22
32-29,359003666,-1
32-30,359007572,-12
32-31,359011478,-15
32-32,359015384,-27
32-1,359019449,-51
32-2,359023355,-63
32-3,359027261,-62
32-4,359031167,-37
32-5,359035073,-21
32-6,359038979,-25
32-7,359042885,-16
32-8,359046791,-32
32-9,359050697,-76
32-10,359054603,-72
32-11,359058509,-39
32-12,359062415,-36
32-13,359066321,-41
32-14,359070227,-46
32-15,359074133,-70
32-16,359078039,-101
32-17,359081945,-118
32-18,359085851,-98
32-19,359089757,-55
32-20,359093663,-29
32-21,359097569,-11
32-22,359101475,-16
32-23,359105381,-59
32-24,359109287,-97
32-25,359113193,-95
32-26,359117099,-72
32-27,359121005,-65
32-28,359124911,-54
32-29,359128817,-23
32-30,359132723,-28
32-31,359136629,-61
32-32,359140535,-83
32-1,359144324,-94
32-2,359148230,-70
32-3,359152136,-40
32-4,359156042,-35
32-5,359159948,-16
32-6,359163854,-8
32-7,359167760,-63
32-8,359171666,-92
32-9,359175572,-51
32-10,359179478,-32
32-11,359183384,-40
32-12,359187290,-21
32-13,359191196,-19
32-14,359195102,-61
32-15,359199008,-94
32-16,359202914,-87
32-17,359206820,-52
32-18,359210726,-25
32-19,359214632,-35
32-20,359218538,-47
32-21,359222444,-42
32-22,359226350,-64
32-23,359230256,-81
32-24,359234162,-54
32-25,359238068,-19
32-26,359241974,4
32-27,359245880,12
32-28,359249786,12
32-29,359253692,1
32-30,359257598,-43
32-31,359261504,-85
32-32,359265410,-77
32-1,359269291,-44
32-2,359273197,-30
32-3,359277103,-26
32-4,359281009,-30
32-5,359284915,-63
32-6,359288821,-75
32-7,359292727,-44
32-8,359296633,-29
32-9,359300539,-19
32-10,359304445,-2
32-11,359308351,-14
32-12,359312257,-43
32-13,359316163,-81
32-14,359320069,-120
32-15,359323975,-122
32-16,359327881,-95
32-17,359331787,-75
32-18,359335693,-75
32-19,359339599,-67
32-20,359343505,-68
32-21,359347411,-87
32-22,359351317,-79
32-23,359355223,-56
32-24,359359129,-35
32-25,359363035,-17
32-26,359366941,-13
32-27,359370847,-8
32-28,359374753,-12
32-29,359378659,-15
32-30,359382565,-12
32-31,359386471,-22
32-32,359390377,-12
32-1,359394289,13
32-2,359398195,14
32-3,359402101,-3
32-4,359406007,-53
32-5,359409913,-85
32-6,359413819,-60
32-7,359417725,-35
32-8,359421631,-22
32-9,359425537,5
32-10,359429443,21
32-11,359433349,-19
32-12,359437255,-77
32-13,359441161,-85
32-14,359445067,-56
32-15,359448973,-34
32-16,359452879,-15
32-17,359456785,13
32-18,359460691,36
32-19,359464597,-6
32-20,359468503,-75
32-21,359472409,-87
32-22,359476315,-63
32-23,359480221,-49
32-24,359484127,-24
32-25,359488033,11
32-26,359491939,16
32-27,359495845,-21
32-28,359499751,-37
32-29,359503657,-20
32-30,359507563,-24
32-31,359511469,-14
32-32,359515375,14
32-1,359519287,34
32-2,359523193,60
32-3,359527099,40
32-4,359531005,-8
32-5,359534911,3
32-6,359538817,49
32-7,359542723,60
32-8,359546629,22
32-9,359550535,-24
32-10,359554441,-47
32-11,359558347,-56
32-12,359562253,-52
32-13,359566159,-29
32-14,359570065,-6
32-15,359573971,1
32-16,359577877,8
32-17,359581783,17
32-18,359585689,-9
32-19,359589595,-61
32-20,359593501,-74
32-21,359597407,-35
32-22,359601313,-4
32-23,359605219,-19
32-24,359609125,-35
32-25,359613031,-40
32-26,359616937,-77
32-27,359620843,-99
32-28,359624749,-60
32-29,359628655,-22
32-30,359632561,-26
32-31,359636467,-45
32-32,359640373,-34
32-1,359644437,-10
32-2,359648343,-44
32-3,359652249,-75
32-4,359656155,-43
32-5,359660061,3
32-6,359663967,40
32-7,359667873,44
32-8,359671779,20
32-9,359675685,-2
32-10,359679591,-35
32-11,359683497,-49
32-12,359687403,-36
32-13,359691309,-38
32-14,359695215,-33
32-15,359699121,0
32-16,359703027,12
32-17,359706933,-9
32-18,359710839,-30
32-19,359714745,-25
32-20,359718651,23
32-21,359722557,72
32-22,359726463,82
32-23,359730369,83
32-24,359734275,53
32-25,359738181,-7
32-26,359742087,-47
32-27,359745993,-69
32-28,359749899,-46
32-29,359753805,10
32-30,359757711,21
32-31,359761617,-4
32-32,359765523,-43
32-1,359769282,-79
32-2,359773188,-70
32-3,359777094,-53
32-4,359781000,-46
32-5,359784906,-53
32-6,359788812,-89
32-7,359792718,-124
32-8,359796624,-137
32-9,359800530,-117
32-10,359804436,-50
32-11,359808342,4
32-12,359812248,-4
32-13,359816154,-24
32-14,359820060,-12
32-15,359823966,-16
32-16,359827872,-67
32-17,359831778,-98
32-18,359835684,-65
32-19,359839590,-17
32-20,359843496,1
32-21,359847402,-7
32-22,359851308,-2
32-23,359855214,-6
32-24,359859120,-49
32-25,359863026,-53
32-26,359866932,-22
32-27,359870838,-20
32-28,359874744,-32
32-29,359878650,-48
32-30,359882556,-59
32-31,359886462,-54
32-32,359890368,-49
32-1,359894310,-42
32-2,359898216,-31
32-3,359902122,-14
32-4,359906028,8
32-5,359909934,10
32-6,359913840,-10
32-7,359917746,-18
32-8,359921652,8
32-9,359925558,25
32-10,359929464,24
32-11,359933370,29
32-12,359937276,43
32-13,359941182,59
32-14,359945088,31
32-15,359948994,-21
32-16,359952900,-21
32-17,359956806,21
32-18,359960712,37
32-19,359964618,2
32-20,359968524,-13
32-21,359972430,-7
32-22,359976336,-49
32-23,359980242,-85
32-24,359984148,-62
32-25,359988054,-28
32-26,359991960,-36
32-27,359995866,-67
32-28,359999772,-44
32-29,360003678,-9
32-30,360007584,-35
32-31,360011490,-62
32-32,360015396,-55
32-1,360019277,-36
32-2,360023183,-19
32-3,360027089,-37
32-4,360030995,-54
32-5,360034901,-63
32-6,360038807,-105
32-7,360042713,-101
32-8,360046619,-58
32-9,360050525,-72
32-10,360054431,-103
32-11,360058337,-85
32-12,360062243,-47
32-13,360066149,-38
32-14,360070055,-59
32-15,360073961,-58
32-16,360077867,-32
32-17,360081773,-26
32-18,360085679,-31
32-19,360089585,-23
32-20,360093491,-42
32-21,360097397,-91
32-22,360101303,-108
32-23,360105209,-78
32-24,360109115,-41
32-25,360113021,-28
32-26,360116927,-28
32-27,360120833,-16
32-28,360124739,5
32-29,360128645,-3
32-30,360132551,-45
32-31,360136457,-56
32-32,360140363,-39
32-1,360144275,-59
32-2,360148181,-80
32-3,360152087,-65
32-4,360155993,-44
32-5,360159899,-51
32-6,360163805,-66
32-7,360167711,-50
32-8,360171617,-22
32-9,360175523,-23
32-10,360179429,-38
32-11,360183335,-48
32-12,360187241,-77
32-13,360191147,-89
32-14,360195053,-49
32-15,360198959,-48
32-16,360202865,-82
32-17,360206771,-77
32-18,360210677,-74
32-19,360214583,-106
32-20,360218489,-153
32-21,360222395,-158
32-22,360226301,-103
32-23,360230207,-67
32-24,360234113,-73
32-25,360238019,-70
32-26,360241925,-66
32-27,360245831,-78
32-28,360249737,-84
32-29,360253643,-82
32-30,360257549,-76
32-31,360261455,-48
32-32,360265361,-24
32-1,360269272,-49
32-2,360273178,-78
32-3,360277084,-99
32-4,360280990,-139
32-5,360284896,-134
32-6,360288802,-71
32-7,360292708,-48
32-8,360296614,-52
32-9,360300520,-9
32-10,360304426,-8
32-11,360308332,-85
32-12,360312238,-112
32-13,360316144,-102
32-14,360320050,-100
32-15,360323956,-74
32-16,360327862,-52
32-17,360331768,-38
32-18,360335674,-50
32-19,360339580,-92
32-20,360343486,-96
32-21,360347392,-72
32-22,360351298,-48
32-23,360355204,-21
32-24,360359110,-24
32-25,360363016,-57
32-26,360366922,-85
32-27,360370828,-94
32-28,360374734,-60
32-29,360378640,-19
32-30,360382546,-31
32-31,360386452,-43
32-32,360390358,-27
32-1,360394270,-55
32-2,360398176,-100
32-3,360402082,-91
32-4,360405988,-54
32-5,360409894,-36
32-6,360413800,-37
32-7,360417706,-28
32-8,360421612,-25
32-9,360425518,-70
32-10,360429424,-105
32-11,360433330,-71
32-12,360437236,-24
32-13,360441142,-16
32-14,360445048,-23
32-15,360448954,-33
32-16,360452860,-48
32-17,360456766,-76
32-18,360460672,-108
32-19,360464578,-101
32-20,360468484,-48
32-21,360472390,-37
32-22,360476296,-70
32-23,360480202,-67
32-24,360484108,-72
32-25,360488014,-106
32-26,360491920,-103
32-27,360495826,-73
32-28,360499732,-44
32-29,360503638,-34
32-30,360507544,-42
32-31,360511450,-49
32-32,360515356,-67
32-1,360519268,-72
32-2,360523174,-52
32-3,360527080,-25
32-4,360530986,15
32-5,360534892,31
32-6,360538798,21
32-7,360542704,-5
32-8,360546610,-70
32-9,360550516,-116
32-10,360554422,-92
32-11,360558328,-52
32-12,360562234,-46
32-13,360566140,-71
32-14,360570046,-84
32-15,360573952,-102
32-16,360577858,-140
32-17,360581764,-143
32-18,360585670,-110
32-19,360589576,-96
32-20,360593482,-86
32-21,360597388,-66
32-22,360601294,-59
32-23,360605200,-78
32-24,360609106,-113
32-25,360613012,-123
32-26,360616918,-117
32-27,360620824,-116
32-28,360624730,-95
32-29,360628636,-73
32-30,360632542,-74
32-31,360636448,-98
32-32,360640354,-124
32-1,360644296,-115
