32-1,49266802,1576
32-2,49270708,1020
32-3,49274614,25
32-4,49278520,132
32-5,49282426,925
32-6,49286332,858
32-7,49290238,-151
32-8,49294144,-287
32-9,49298050,688
32-10,49301956,902
32-11,49305862,-133
32-12,49309768,-637
32-13,49313674,147
32-14,49317580,721
32-15,49321486,70
32-16,49325392,-602
32-17,49329298,-62
32-18,49333204,706
32-19,49337110,327
32-20,49341016,-614
32-21,49344922,-447
32-22,49348828,533
32-23,49352734,469
32-24,49356640,-625
32-25,49360546,-836
32-26,49364452,53
32-27,49368358,367
32-28,49372264,-567
32-29,49376170,-1134
32-30,49380076,-220
32-31,49383982,576
32-32,49387888,-82
32-1,49391800,-939
32-2,49395706,-542
32-3,49399612,266
32-4,49403518,-35
32-5,49407424,-1028
32-6,49411330,-932
32-7,49415236,101
32-8,49419142,217
32-9,49423048,-769
32-10,49426954,-1018
32-11,49430860,-139
32-12,49434766,190
32-13,49438672,-689
32-14,49442578,-1303
32-15,49446484,-643
32-16,49450390,124
32-17,49454296,-349
32-18,49458202,-1236
32-19,49462108,-834
32-20,49466014,196
32-21,49469920,79
32-22,49473826,-843
32-23,49477732,-764
32-24,49481638,252
32-25,49485544,466
32-26,49489450,-434
32-27,49493356,-733
32-28,49497262,139
32-29,49501168,652
32-30,49505074,40
32-31,49508980,-481
32-32,49512886,117
32-1,49516798,876
32-2,49520704,468
32-3,49524610,-468
32-4,49528516,-330
32-5,49532422,501
32-6,49536328,428
32-7,49540234,-552
32-8,49544140,-724
32-9,49548046,189
32-10,49551952,523
32-11,49555858,-340
32-12,49559764,-856
32-13,49563670,-123
32-14,49567576,508
32-15,49571482,-91
32-16,49575388,-786
32-17,49579294,-250
32-18,49583200,558
32-19,49587106,215
32-20,49591012,-692
32-21,49594918,-531
32-22,49598824,494
32-23,49602730,685
32-24,49606636,-223
32-25,49610542,-512
32-26,49614448,327
32-27,49618354,715
32-28,49622260,-152
32-29,49626166,-801
32-30,49630072,-18
32-31,49633978,790
32-32,49637884,141
32-1,49641795,-783
32-2,49645701,-418
32-3,49649607,392
32-4,49653513,142
32-5,49657419,-780
32-6,49661325,-670
32-7,49665231,279
32-8,49669137,345
32-9,49673043,-586
32-10,49676949,-841
32-11,49680855,76
32-12,49684761,637
32-13,49688667,-90
32-14,49692573,-703
32-15,49696479,36
32-16,49700385,869
32-17,49704291,334
32-18,49708197,-612
32-19,49712103,-261
32-20,49716009,695
32-21,49719915,525
32-22,49723821,-496
32-23,49727727,-599
32-24,49731633,299
32-25,49735539,551
32-26,49739445,-368
32-27,49743351,-760
32-28,49747257,143
32-29,49751163,601
32-30,49755069,-261
32-31,49758975,-897
32-32,49762881,-230
32-1,49766793,549
32-2,49770699,69
32-3,49774605,-876
32-4,49778511,-597
32-5,49782417,332
32-6,49786323,232
32-7,49790229,-729
32-8,49794135,-861
32-9,49798041,68
32-10,49801947,466
32-11,49805853,-374
32-12,49809759,-909
32-13,49813665,-125
32-14,49817571,544
32-15,49821477,-73
32-16,49825383,-829
32-17,49829289,-314
32-18,49833195,583
32-19,49837101,264
32-20,49841007,-722
32-21,49844913,-613
32-22,49848819,314
32-23,49852725,424
32-24,49856631,-432
32-25,49860537,-698
32-26,49864443,142
32-27,49868349,579
32-28,49872255,-332
32-29,49876161,-897
32-30,49880067,135
32-31,49883973,1021
32-32,49887879,453
32-1,49891791,-335
32-2,49895697,43
32-3,49899603,892
32-4,49903509,650
32-5,49907415,-413
32-6,49911321,-456
32-7,49915227,488
32-8,49919133,678
32-9,49923039,-253
32-10,49926945,-665
32-11,49930851,157
32-12,49934757,685
32-13,49938663,-112
32-14,49942569,-822
32-15,49946475,-177
32-16,49950381,600
32-17,49954287,126
32-18,49958193,-735
32-19,49962099,-397
32-20,49966005,543
32-21,49969911,375
32-22,49973817,-672
32-23,49977723,-719
32-24,49981629,341
32-25,49985535,698
32-26,49989441,-193
32-27,49993347,-721
32-28,49997253,-25
32-29,50001159,771
32-30,50005065,517
32-31,50008971,-111
32-32,50012877,351
32-1,50016758,1182
32-2,50020664,688
32-3,50024570,-393
32-4,50028476,-176
32-5,50032382,861
32-6,50036288,921
32-7,50040194,-85
32-8,50044100,-345
32-9,50048006,612
32-10,50051912,1025
32-11,50055818,141
32-12,50059724,-375
32-13,50063630,373
32-14,50067536,945
32-15,50071442,216
32-16,50075348,-692
32-17,50079254,-308
32-18,50083160,573
32-19,50087066,350
32-20,50090972,-610
32-21,50094878,-547
32-22,50098784,413
32-23,50102690,511
32-24,50106596,-436
32-25,50110502,-714
32-26,50114408,135
32-27,50118314,596
32-28,50122220,-235
32-29,50126126,-1000
32-30,50130032,-322
32-31,50133938,577
32-32,50137844,53
32-1,50141755,-880
32-2,50145661,-393
32-3,50149567,646
32-4,50153473,478
32-5,50157379,-464
32-6,50161285,-487
32-7,50165191,394
32-8,50169097,582
32-9,50173003,-375
32-10,50176909,-873
32-11,50180815,-152
32-12,50184721,362
32-13,50188627,-384
32-14,50192533,-1138
32-15,50196439,-462
32-16,50200345,518
32-17,50204251,150
32-18,50208157,-776
32-19,50212063,-481
32-20,50215969,552
32-21,50219875,538
32-22,50223781,-479
32-23,50227687,-630
32-24,50231593,341
32-25,50235499,629
32-26,50239405,-320
32-27,50243311,-804
32-28,50247217,-49
32-29,50251123,644
32-30,50255029,265
32-31,50258935,-392
32-32,50262841,51
32-1,50266753,935
32-2,50270659,602
32-3,50274565,-419
32-4,50278471,-298
32-5,50282377,662
32-6,50286283,696
32-7,50290189,-333
32-8,50294095,-586
32-9,50298001,412
32-10,50301907,941
32-11,50305813,157
32-12,50309719,-473
32-13,50313625,162
32-14,50317531,830
32-15,50321437,259
32-16,50325343,-586
32-17,50329249,-194
32-18,50333155,716
32-19,50337061,465
32-20,50340967,-569
32-21,50344873,-473
32-22,50348779,561
32-23,50352685,671
32-24,50356591,-303
32-25,50360497,-647
32-26,50364403,201
32-27,50368309,756
32-28,50372215,-35
32-29,50376121,-823
32-30,50380027,-106
32-31,50383933,878
32-32,50387839,427
32-1,50391751,-545
32-2,50395657,-288
32-3,50399563,609
32-4,50403469,451
32-5,50407375,-649
32-6,50411281,-839
32-7,50415187,111
32-8,50419093,378
32-9,50422999,-561
32-10,50426905,-949
32-11,50430811,-65
32-12,50434717,532
32-13,50438623,-191
32-14,50442529,-997
32-15,50446435,-476
32-16,50450341,400
32-17,50454247,46
32-18,50458153,-903
32-19,50462059,-727
32-20,50465965,271
32-21,50469871,382
32-22,50473777,-525
32-23,50477683,-637
32-24,50481589,362
32-25,50485495,657
32-26,50489401,-226
32-27,50493307,-605
32-28,50497213,128
32-29,50501119,597
32-30,50505025,-15
32-31,50508931,-670
32-32,50512837,-150
32-1,50516748,705
32-2,50520654,426
32-3,50524560,-489
32-4,50528466,-416
32-5,50532372,466
32-6,50536278,547
32-7,50540184,-396
32-8,50544090,-628
32-9,50547996,332
32-10,50551902,785
32-11,50555808,-39
32-12,50559714,-609
32-13,50563620,145
32-14,50567526,895
32-15,50571432,298
32-16,50575338,-585
32-17,50579244,-176
32-18,50583150,722
32-19,50587056,508
32-20,50590962,-449
32-21,50594868,-433
32-22,50598774,530
32-23,50602680,703
32-24,50606586,-247
32-25,50610492,-586
32-26,50614398,266
32-27,50618304,780
32-28,50622210,9
32-29,50626116,-793
32-30,50630022,-244
32-31,50633928,571
32-32,50637834,88
32-1,50641746,-843
32-2,50645652,-583
32-3,50649558,311
32-4,50653464,273
32-5,50657370,-641
32-6,50661276,-787
32-7,50665182,104
32-8,50669088,411
32-9,50672994,-514
32-10,50676900,-1054
32-11,50680806,-256
32-12,50684712,361
32-13,50688618,-387
32-14,50692524,-1211
32-15,50696430,-687
32-16,50700336,163
32-17,50704242,-172
32-18,50708148,-1067
32-19,50712054,-842
32-20,50715960,180
32-21,50719866,226
32-22,50723772,-783
32-23,50727678,-982
32-24,50731584,21
32-25,50735490,458
32-26,50739396,-395
32-27,50743302,-913
32-28,50747208,-143
32-29,50751114,789
32-30,50755020,680
32-31,50758926,30
32-32,50762832,365
32-1,50766743,1210
32-2,50770649,834
32-3,50774555,-262
32-4,50778461,-182
32-5,50782367,824
32-6,50786273,977
32-7,50790179,-12
32-8,50794085,-432
32-9,50797991,422
32-10,50801897,1026
32-11,50805803,308
32-12,50809709,-386
32-13,50813615,250
32-14,50817521,1023
32-15,50821427,455
32-16,50825333,-572
32-17,50829239,-301
32-18,50833145,671
32-19,50837051,570
32-20,50840957,-380
32-21,50844863,-437
32-22,50848769,444
32-23,50852675,648
32-24,50856581,-308
32-25,50860487,-828
32-26,50864393,3
32-27,50868299,707
32-28,50872205,-51
32-29,50876111,-959
32-30,50880017,-316
32-31,50883923,728
32-32,50887829,354
32-1,50891741,-668
32-2,50895647,-510
32-3,50899553,420
32-4,50903459,465
32-5,50907365,-451
32-6,50911271,-675
32-7,50915177,186
32-8,50919083,493
32-9,50922989,-434
32-10,50926895,-934
32-11,50930801,-61
32-12,50934707,678
32-13,50938613,34
32-14,50942519,-829
32-15,50946425,-351
32-16,50950331,574
32-17,50954237,249
32-18,50958143,-799
32-19,50962049,-712
32-20,50965955,234
32-21,50969861,263
32-22,50973767,-702
32-23,50977673,-947
32-24,50981579,-36
32-25,50985485,474
32-26,50989391,-291
32-27,50993297,-837
32-28,50997203,-93
32-29,51001109,592
32-30,51005015,128
32-31,51008921,-561
32-32,51012827,-154
32-1,51016708,780
32-2,51020614,613
32-3,51024520,-402
32-4,51028426,-392
32-5,51032332,602
32-6,51036238,806
32-7,51040144,-142
32-8,51044050,-519
32-9,51047956,337
32-10,51051862,808
32-11,51055768,-34
32-12,51059674,-748
32-13,51063580,-128
32-14,51067486,646
32-15,51071392,159
32-16,51075298,-801
32-17,51079204,-578
32-18,51083110,344
32-19,51087016,314
32-20,51090922,-600
32-21,51094828,-697
32-22,51098734,266
32-23,51102640,615
32-24,51106546,-264
32-25,51110452,-720
32-26,51114358,107
32-27,51118264,728
32-28,51122170,5
32-29,51126076,-847
32-30,51129982,-332
32-31,51133888,626
32-32,51137794,341
32-1,51141706,-620
32-2,51145612,-458
32-3,51149518,503
32-4,51153424,553
32-5,51157330,-371
32-6,51161236,-566
32-7,51165142,372
32-8,51169048,827
32-9,51172954,-15
32-10,51176860,-600
32-11,51180766,155
32-12,51184672,785
32-13,51188578,77
32-14,51192484,-678
32-15,51196390,-97
32-16,51200296,774
32-17,51204202,399
32-18,51208108,-628
32-19,51212014,-468
32-20,51215920,635
32-21,51219826,807
32-22,51223732,-147
32-23,51227638,-480
32-24,51231544,348
32-25,51235450,799
32-26,51239356,-4
32-27,51243262,-603
32-28,51247168,69
32-29,51251074,807
32-30,51254980,466
32-31,51258886,-240
32-32,51262792,103
32-1,51266703,1003
32-2,51270609,778
32-3,51274515,-295
32-4,51278421,-315
32-5,51282327,684
32-6,51286233,935
32-7,51290139,26
32-8,51294045,-388
32-9,51297951,426
32-10,51301857,939
32-11,51305763,156
32-12,51309669,-598
32-13,51313575,-25
32-14,51317481,868
32-15,51321387,499
32-16,51325293,-575
32-17,51329199,-514
32-18,51333105,417
32-19,51337011,441
32-20,51340917,-500
32-21,51344823,-608
32-22,51348729,356
32-23,51352635,629
32-24,51356541,-303
32-25,51360447,-739
32-26,51364353,181
32-27,51368259,914
32-28,51372165,136
32-29,51376071,-741
32-30,51379977,-47
32-31,51383883,901
32-32,51387789,436
32-1,51391701,-553
32-2,51395607,-362
32-3,51399513,578
32-4,51403419,536
32-5,51407325,-518
32-6,51411231,-758
32-7,51415137,135
32-8,51419043,523
32-9,51422949,-309
32-10,51426855,-925
32-11,51430761,-193
32-12,51434667,578
32-13,51438573,-9
32-14,51442479,-830
32-15,51446385,-346
32-16,51450291,566
32-17,51454197,325
32-18,51458103,-655
32-19,51462009,-565
32-20,51465915,486
32-21,51469821,643
32-22,51473727,-319
32-23,51477633,-635
32-24,51481539,202
32-25,51485445,614
32-26,51489351,-222
32-27,51493257,-936
32-28,51497163,-408
32-29,51501069,491
32-30,51504975,471
32-31,51508881,-155
32-32,51512787,141
32-1,51516699,1054
32-2,51520605,858
32-3,51524511,-213
32-4,51528417,-259
32-5,51532323,744
32-6,51536229,976
32-7,51540135,-28
32-8,51544041,-511
32-9,51547947,311
32-10,51551853,860
32-11,51555759,73
32-12,51559665,-718
32-13,51563571,-194
32-14,51567477,540
32-15,51571383,77
32-16,51575289,-786
32-17,51579195,-516
32-18,51583101,298
32-19,51587007,134
32-20,51590913,-889
32-21,51594819,-1154
32-22,51598725,-334
32-23,51602631,6
32-24,51606537,-845
32-25,51610443,-1371
32-26,51614349,-615
32-27,51618255,80
32-28,51622161,-513
32-29,51626067,-1333
32-30,51629973,-822
32-31,51633879,149
32-32,51637785,-120
32-1,51641696,-1099
32-2,51645602,-959
32-3,51649508,47
32-4,51653414,126
32-5,51657320,-827
32-6,51661226,-972
32-7,51665132,73
32-8,51669038,505
32-9,51672944,-426
32-10,51676850,-1050
32-11,51680756,-269
32-12,51684662,511
32-13,51688568,-18
32-14,51692474,-911
32-15,51696380,-607
32-16,51700286,336
32-17,51704192,164
32-18,51708098,-906
32-19,51712004,-872
32-20,51715910,166
32-21,51719816,294
32-22,51723722,-678
32-23,51727628,-1024
32-24,51731534,-156
32-25,51735440,448
32-26,51739346,-244
32-27,51743252,-953
32-28,51747158,-369
32-29,51751064,459
32-30,51754970,131
32-31,51758876,-673
32-32,51762782,-357
32-1,51766694,572
32-2,51770600,403
32-3,51774506,-592
32-4,51778412,-597
32-5,51782318,403
32-6,51786224,700
32-7,51790130,-171
32-8,51794036,-611
32-9,51797942,199
32-10,51801848,827
32-11,51805754,143
32-12,51809660,-623
32-13,51813566,-4
32-14,51817472,933
32-15,51821378,568
32-16,51825284,-386
32-17,51829190,-194
32-18,51833096,705
32-19,51837002,590
32-20,51840908,-496
32-21,51844814,-713
32-22,51848720,214
32-23,51852626,537
32-24,51856532,-389
32-25,51860438,-992
32-26,51864344,-246
32-27,51868250,541
32-28,51872156,-23
32-29,51876062,-953
32-30,51879968,-536
32-31,51883874,510
32-32,51887780,341
32-1,51891692,-646
32-2,51895598,-428
32-3,51899504,694
32-4,51903410,751
32-5,51907316,-264
32-6,51911222,-518
32-7,51915128,405
32-8,51919034,902
32-9,51922940,76
32-10,51926846,-676
32-11,51930752,-104
32-12,51934658,584
32-13,51938564,-4
32-14,51942470,-873
32-15,51946376,-437
32-16,51950282,503
32-17,51954188,267
32-18,51958094,-817
32-19,51962000,-879
32-20,51965906,122
32-21,51969812,365
32-22,51973718,-523
32-23,51977624,-842
32-24,51981530,-9
32-25,51985436,470
32-26,51989342,-275
32-27,51993248,-940
32-28,51997154,-361
32-29,52001060,344
32-30,52004966,-127
32-31,52008872,-940
32-32,52012778,-580
32-1,52016659,337
32-2,52020565,247
32-3,52024471,-710
32-4,52028377,-853
32-5,52032283,54
32-6,52036189,326
32-7,52040095,-565
32-8,52044001,-950
32-9,52047907,-135
32-10,52051813,426
32-11,52055719,-247
32-12,52059625,-1026
32-13,52063531,-537
32-14,52067437,342
32-15,52071343,52
32-16,52075249,-844
32-17,52079155,-596
32-18,52083061,466
32-19,52086967,541
32-20,52090873,-513
32-21,52094779,-742
32-22,52098685,430
32-23,52102591,1035
32-24,52106497,109
32-25,52110403,-548
32-26,52114309,200
32-27,52118215,905
32-28,52122121,302
32-29,52126027,-593
32-30,52129933,-265
32-31,52133839,601
32-32,52137745,400
32-1,52141656,-547
32-2,52145562,-498
32-3,52149468,462
32-4,52153374,602
32-5,52157280,-359
32-6,52161186,-699
32-7,52165092,167
32-8,52168998,695
32-9,52172904,-35
32-10,52176810,-693
32-11,52180716,-88
32-12,52184622,638
32-13,52188528,180
32-14,52192434,-631
32-15,52196340,-274
32-16,52200246,728
32-17,52204152,687
32-18,52208058,-271
32-19,52211964,-295
32-20,52215870,716
32-21,52219776,1009
32-22,52223682,102
32-23,52227588,-339
32-24,52231494,524
32-25,52235400,1105
32-26,52239306,314
32-27,52243212,-556
32-28,52247118,-114
32-29,52251024,972
32-30,52254930,1122
32-31,52258836,427
32-32,52262742,585
32-1,52266654,1401
32-2,52270560,1222
32-3,52274466,158
32-4,52278372,-119
32-5,52282278,664
32-6,52286184,941
32-7,52290090,17
32-8,52293996,-605
32-9,52297902,53
32-10,52301808,701
32-11,52305714,90
32-12,52309620,-748
32-13,52313526,-236
32-14,52317432,768
32-15,52321338,538
32-16,52325244,-437
32-17,52329150,-378
32-18,52333056,502
32-19,52336962,574
32-20,52340868,-372
32-21,52344774,-692
32-22,52348680,183
32-23,52352586,602
32-24,52356492,-309
32-25,52360398,-992
32-26,52364304,-281
32-27,52368210,555
32-28,52372116,34
32-29,52376022,-975
32-30,52379928,-680
32-31,52383834,331
32-32,52387740,231
32-1,52391652,-746
32-2,52395558,-688
32-3,52399464,384
32-4,52403370,613
32-5,52407276,-335
32-6,52411182,-687
32-7,52415088,210
32-8,52418994,752
32-9,52422900,-17
32-10,52426806,-711
32-11,52430712,-125
32-12,52434618,643
32-13,52438524,239
32-14,52442430,-627
32-15,52446336,-381
32-16,52450242,492
32-17,52454148,351
32-18,52458054,-616
32-19,52461960,-624
32-20,52465866,408
32-21,52469772,715
32-22,52473678,-160
32-23,52477584,-589
32-24,52481490,219
32-25,52485396,846
32-26,52489302,107
32-27,52493208,-701
32-28,52497114,-121
32-29,52501020,538
32-30,52504926,-78
32-31,52508832,-988
32-32,52512738,-769
32-1,52516649,143
32-2,52520555,215
32-3,52524461,-709
32-4,52528367,-938
32-5,52532273,13
32-6,52536179,517
32-7,52540085,-319
32-8,52543991,-888
32-9,52547897,-21
32-10,52551803,729
32-11,52555709,64
32-12,52559615,-808
32-13,52563521,-401
32-14,52567427,487
32-15,52571333,319
32-16,52575239,-530
32-17,52579145,-445
32-18,52583051,450
32-19,52586957,511
32-20,52590863,-497
32-21,52594769,-767
32-22,52598675,223
32-23,52602581,789
32-24,52606487,96
32-25,52610393,-508
32-26,52614299,121
32-27,52618205,948
32-28,52622111,499
32-29,52626017,-514
32-30,52629923,-244
32-31,52633829,736
32-32,52637735,565
32-1,52641647,-460
32-2,52645553,-505
32-3,52649459,397
32-4,52653365,586
32-5,52657271,-288
32-6,52661177,-709
32-7,52665083,-7
32-8,52668989,531
32-9,52672895,-111
32-10,52676801,-834
32-11,52680707,-306
32-12,52684613,514
32-13,52688519,106
32-14,52692425,-876
32-15,52696331,-635
32-16,52700237,424
32-17,52704143,426
32-18,52708049,-601
32-19,52711955,-816
32-20,52715861,32
32-21,52719767,333
32-22,52723673,-499
32-23,52727579,-1043
32-24,52731485,-413
32-25,52735391,145
32-26,52739297,-545
32-27,52743203,-1315
32-28,52747109,-789
32-29,52751015,-59
32-30,52754921,-375
32-31,52758827,-1089
32-32,52762733,-857
32-1,52766644,135
32-2,52770550,302
32-3,52774456,-576
32-4,52778362,-720
32-5,52782268,173
32-6,52786174,492
32-7,52790080,-327
32-8,52793986,-906
32-9,52797892,-238
32-10,52801798,525
32-11,52805704,12
32-12,52809610,-862
32-13,52813516,-494
32-14,52817422,346
32-15,52821328,82
32-16,52825234,-793
32-17,52829140,-620
32-18,52833046,399
32-19,52836952,541
32-20,52840858,-460
32-21,52844764,-775
32-22,52848670,198
32-23,52852576,756
32-24,52856482,12
32-25,52860388,-585
32-26,52864294,139
32-27,52868200,983
32-28,52872106,493
32-29,52876012,-520
32-30,52879918,-242
32-31,52883824,779
32-32,52887730,633
32-1,52891642,-396
32-2,52895548,-370
32-3,52899454,624
32-4,52903360,786
32-5,52907266,-201
32-6,52911172,-641
32-7,52915078,181
32-8,52918984,762
32-9,52922890,76
32-10,52926796,-625
32-11,52930702,-78
32-12,52934608,698
32-13,52938514,254
32-14,52942420,-706
32-15,52946326,-416
32-16,52950232,635
32-17,52954138,606
32-18,52958044,-411
32-19,52961950,-580
32-20,52965856,337
32-21,52969762,676
32-22,52973668,-192
32-23,52977574,-739
32-24,52981480,24
32-25,52985386,656
32-26,52989292,-34
32-27,52993198,-813
32-28,52997104,-330
32-29,53001010,656
32-30,53004916,701
32-31,53008822,-61
32-32,53012728,36
32-1,53016609,1012
32-2,53020515,1098
32-3,53024421,72
32-4,53028327,-233
32-5,53032233,683
32-6,53036139,1080
32-7,53040045,121
32-8,53043951,-539
32-9,53047857,232
32-10,53051763,967
32-11,53055669,325
32-12,53059575,-571
32-13,53063481,-121
32-14,53067387,851
32-15,53071293,631
32-16,53075199,-398
32-17,53079105,-466
32-18,53083011,370
32-19,53086917,473
32-20,53090823,-519
32-21,53094729,-955
32-22,53098635,-87
32-23,53102541,527
32-24,53106447,-160
32-25,53110353,-858
32-26,53114259,-229
32-27,53118165,663
32-28,53122071,159
32-29,53125977,-807
32-30,53129883,-300
32-31,53133789,797
32-32,53137695,609
32-1,53141607,-436
32-2,53145513,-475
32-3,53149419,496
32-4,53153325,687
32-5,53157231,-305
32-6,53161137,-767
32-7,53165043,69
32-8,53168949,677
32-9,53172855,-64
32-10,53176761,-877
32-11,53180667,-317
32-12,53184573,597
32-13,53188479,227
32-14,53192385,-758
32-15,53196291,-527
32-16,53200197,479
32-17,53204103,480
32-18,53208009,-518
32-19,53211915,-727
32-20,53215821,159
32-21,53219727,466
32-22,53223633,-377
32-23,53227539,-812
32-24,53231445,20
32-25,53235351,694
32-26,53239257,50
32-27,53243163,-759
32-28,53247069,-366
32-29,53250975,480
32-30,53254881,390
32-31,53258787,-407
32-32,53262693,-284
32-1,53266604,731
32-2,53270510,906
32-3,53274416,-56
32-4,53278322,-422
32-5,53282228,421
32-6,53286134,875
32-7,53290040,26
32-8,53293946,-627
32-9,53297852,86
32-10,53301758,845
32-11,53305664,288
32-12,53309570,-644
32-13,53313476,-355
32-14,53317382,543
32-15,53321288,388
32-16,53325194,-588
32-17,53329100,-631
32-18,53333006,270
32-19,53336912,471
32-20,53340818,-411
32-21,53344724,-775
32-22,53348630,160
32-23,53352536,803
32-24,53356442,-54
32-25,53360348,-977
32-26,53364254,-440
32-27,53368160,415
32-28,53372066,-84
32-29,53375972,-1095
32-30,53379878,-667
32-31,53383784,519
32-32,53387690,444
32-1,53391602,-604
32-2,53395508,-688
32-3,53399414,251
32-4,53403320,558
32-5,53407226,-290
32-6,53411132,-820
32-7,53415038,-81
32-8,53418944,599
32-9,53422850,-48
32-10,53426756,-874
32-11,53430662,-335
32-12,53434568,625
32-13,53438474,326
32-14,53442380,-670
32-15,53446286,-571
32-16,53450192,377
32-17,53454098,450
32-18,53458004,-513
32-19,53461910,-695
32-20,53465816,311
32-21,53469722,755
32-22,53473628,-107
32-23,53477534,-787
32-24,53481440,-172
32-25,53485346,555
32-26,53489252,19
32-27,53493158,-842
32-28,53497064,-470
32-29,53500970,298
32-30,53504876,-60
32-31,53508782,-1016
32-32,53512688,-932
32-1,53516600,61
32-2,53520506,313
32-3,53524412,-543
32-4,53528318,-820
32-5,53532224,93
32-6,53536130,582
32-7,53540036,-190
32-8,53543942,-848
32-9,53547848,-293
32-10,53551754,436
32-11,53555660,29
32-12,53559566,-826
32-13,53563472,-539
32-14,53567378,394
32-15,53571284,265
32-16,53575190,-732
32-17,53579096,-741
32-18,53583002,302
32-19,53586908,639
32-20,53590814,-189
32-21,53594720,-581
32-22,53598626,240
32-23,53602532,799
32-24,53606438,61
32-25,53610344,-691
32-26,53614250,-158
32-27,53618156,653
32-28,53622062,179
32-29,53625968,-865
32-30,53629874,-505
32-31,53633780,639
32-32,53637686,567
32-1,53641597,-484
32-2,53645503,-642
32-3,53649409,319
32-4,53653315,734
32-5,53657221,-89
32-6,53661127,-578
32-7,53665033,233
32-8,53668939,883
32-9,53672845,185
32-10,53676751,-621
32-11,53680657,-80
32-12,53684563,814
32-13,53688469,493
32-14,53692375,-551
32-15,53696281,-567
32-16,53700187,372
32-17,53704093,497
32-18,53707999,-501
32-19,53711905,-816
32-20,53715811,93
32-21,53719717,608
32-22,53723623,-171
32-23,53727529,-831
32-24,53731435,-47
32-25,53735341,859
32-26,53739247,313
32-27,53743153,-645
32-28,53747059,-258
32-29,53750965,930
32-30,53754871,1136
32-31,53758777,289
32-32,53762683,157
32-1,53766595,948
32-2,53770501,1047
32-3,53774407,53
32-4,53778313,-432
32-5,53782219,328
32-6,53786125,821
32-7,53790031,1
32-8,53793937,-814
32-9,53797843,-280
32-10,53801749,539
32-11,53805655,127
32-12,53809561,-765
32-13,53813467,-423
32-14,53817373,616
32-15,53821279,605
32-16,53825185,-334
32-17,53829091,-409
32-18,53832997,544
32-19,53836903,775
32-20,53840809,-244
32-21,53844715,-828
32-22,53848621,-63
32-23,53852527,598
32-24,53856433,-26
32-25,53860339,-781
32-26,53864245,-268
32-27,53868151,619
32-28,53872057,260
32-29,53875963,-802
32-30,53879869,-571
32-31,53883775,590
32-32,53887681,714
32-1,53891593,-193
32-2,53895499,-389
32-3,53899405,468
32-4,53903311,831
32-5,53907217,-33
32-6,53911123,-616
32-7,53915029,97
32-8,53918935,756
32-9,53922841,95
32-10,53926747,-820
32-11,53930653,-397
32-12,53934559,598
32-13,53938465,419
32-14,53942371,-641
32-15,53946277,-662
32-16,53950183,367
32-17,53954089,511
32-18,53957995,-557
32-19,53961901,-899
32-20,53965807,29
32-21,53969713,433
32-22,53973619,-467
32-23,53977525,-1120
32-24,53981431,-435
32-25,53985337,317
32-26,53989243,-228
32-27,53993149,-1060
32-28,53997055,-663
32-29,54000961,208
32-30,54004867,128
32-31,54008773,-672
32-32,54012679,-599
32-1,54016590,427
32-2,54020496,619
32-3,54024402,-382
32-4,54028308,-751
32-5,54032214,106
32-6,54036120,595
32-7,54040026,-218
32-8,54043932,-973
32-9,54047838,-301
32-10,54051744,636
32-11,54055650,237
32-12,54059556,-686
32-13,54063462,-418
32-14,54067368,486
32-15,54071274,356
32-16,54075180,-617
32-17,54079086,-651
32-18,54082992,327
32-19,54086898,576
32-20,54090804,-358
32-21,54094710,-850
32-22,54098616,-46
32-23,54102522,594
32-24,54106428,-113
32-25,54110334,-911
32-26,54114240,-344
32-27,54118146,613
32-28,54122052,304
32-29,54125958,-753
32-30,54129864,-618
32-31,54133770,409
32-32,54137676,404
32-1,54141557,-587
32-2,54145463,-721
32-3,54149369,225
32-4,54153275,581
32-5,54157181,-257
32-6,54161087,-817
32-7,54164993,-106
32-8,54168899,615
32-9,54172805,44
32-10,54176711,-798
32-11,54180617,-311
32-12,54184523,697
32-13,54188429,506
32-14,54192335,-514
32-15,54196241,-511
32-16,54200147,437
32-17,54204053,555
32-18,54207959,-434
32-19,54211865,-765
32-20,54215771,174
32-21,54219677,697
32-22,54223583,-142
32-23,54227489,-874
32-24,54231395,-243
32-25,54235301,546
32-26,54239207,39
32-27,54243113,-854
32-28,54247019,-555
32-29,54250925,296
32-30,54254831,234
32-31,54258737,-594
32-32,54262643,-597
32-1,54266555,368
32-2,54270461,605
32-3,54274367,-350
32-4,54278273,-829
32-5,54282179,-13
32-6,54286085,613
32-7,54289991,-116
32-8,54293897,-863
32-9,54297803,-188
32-10,54301709,729
32-11,54305615,334
32-12,54309521,-594
32-13,54313427,-333
32-14,54317333,644
32-15,54321239,620
32-16,54325145,-322
32-17,54329051,-449
32-18,54332957,449
32-19,54336863,743
32-20,54340769,-113
32-21,54344675,-568
32-22,54348581,231
32-23,54352487,905
32-24,54356393,301
32-25,54360299,-527
32-26,54364205,-126
32-27,54368111,729
32-28,54372017,389
32-29,54375923,-647
32-30,54379829,-456
32-31,54383735,653
32-32,54387641,763
32-1,54391553,-262
32-2,54395459,-551
32-3,54399365,408
32-4,54403271,884
32-5,54407177,27
32-6,54411083,-588
32-7,54414989,181
32-8,54418895,970
32-9,54422801,365
32-10,54426707,-594
32-11,54430613,-200
32-12,54434519,787
32-13,54438425,574
32-14,54442331,-459
32-15,54446237,-394
32-16,54450143,634
32-17,54454049,824
32-18,54457955,-183
32-19,54461861,-675
32-20,54465767,152
32-21,54469673,672
32-22,54473579,-177
32-23,54477485,-893
32-24,54481391,-222
32-25,54485297,579
32-26,54489203,154
32-27,54493109,-725
32-28,54497015,-494
32-29,54500921,681
32-30,54504827,1047
32-31,54508733,117
32-32,54512639,-82
32-1,54516550,948
32-2,54520456,1191
32-3,54524362,167
32-4,54528268,-302
32-5,54532174,560
32-6,54536080,1215
32-7,54539986,526
32-8,54543892,-200
32-9,54547798,420
32-10,54551704,1195
32-11,54555610,635
32-12,54559516,-409
32-13,54563422,-263
32-14,54567328,638
32-15,54571234,634
32-16,54575140,-350
32-17,54579046,-609
32-18,54582952,207
32-19,54586858,444
32-20,54590764,-490
32-21,54594670,-960
32-22,54598576,-80
32-23,54602482,634
32-24,54606388,-85
32-25,54610294,-1108
32-26,54614200,-769
32-27,54618106,158
32-28,54622012,-138
32-29,54625918,-1149
32-30,54629824,-850
32-31,54633730,399
32-32,54637636,582
32-1,54641548,-397
32-2,54645454,-676
32-3,54649360,256
32-4,54653266,706
32-5,54657172,-181
32-6,54661078,-785
32-7,54664984,-15
32-8,54668890,706
32-9,54672796,153
32-10,54676702,-703
32-11,54680608,-334
32-12,54684514,646
32-13,54688420,501
32-14,54692326,-499
32-15,54696232,-430
32-16,54700138,689
32-17,54704044,977
32-18,54707950,57
32-19,54711856,-318
32-20,54715762,482
32-21,54719668,907
32-22,54723574,51
32-23,54727480,-687
32-24,54731386,-74
32-25,54735292,684
32-26,54739198,228
32-27,54743104,-634
32-28,54747010,-405
32-29,54750916,477
32-30,54754822,479
32-31,54758728,-412
32-32,54762634,-501
32-1,54766546,486
32-2,54770452,811
32-3,54774358,-122
32-4,54778264,-664
32-5,54782170,65
32-6,54786076,643
32-7,54789982,-53
32-8,54793888,-857
32-9,54797794,-344
32-10,54801700,570
32-11,54805606,282
32-12,54809512,-672
32-13,54813418,-456
32-14,54817324,621
32-15,54821230,645
32-16,54825136,-446
32-17,54829042,-677
32-18,54832948,323
32-19,54836854,724
32-20,54840760,-218
32-21,54844666,-874
32-22,54848572,-133
32-23,54852478,591
32-24,54856384,-28
32-25,54860290,-890
32-26,54864196,-435
32-27,54868102,518
32-28,54872008,225
32-29,54875914,-771
32-30,54879820,-488
32-31,54883726,630
32-32,54887632,706
32-1,54891543,-212
32-2,54895449,-439
32-3,54899355,409
32-4,54903261,818
32-5,54907167,-40
32-6,54911073,-735
32-7,54914979,-37
32-8,54918885,767
32-9,54922791,273
32-10,54926697,-572
32-11,54930603,-216
32-12,54934509,738
32-13,54938415,616
32-14,54942321,-474
32-15,54946227,-656
32-16,54950133,261
32-17,54954039,498
32-18,54957945,-421
32-19,54961851,-826
32-20,54965757,37
32-21,54969663,626
32-22,54973569,-141
32-23,54977475,-946
32-24,54981381,-402
32-25,54985287,379
32-26,54989193,-151
32-27,54993099,-1114
32-28,54997005,-862
32-29,55000911,-53
32-30,55004817,-143
32-31,55008723,-1009
32-32,55012629,-1137
32-1,55016541,-155
32-2,55020447,252
32-3,55024353,-645
32-4,55028259,-1162
32-5,55032165,-388
32-6,55036071,262
32-7,55039977,-364
32-8,55043883,-1147
32-9,55047789,-581
32-10,55051695,416
32-11,55055601,183
32-12,55059507,-766
32-13,55063413,-637
32-14,55067319,357
32-15,55071225,473
32-16,55075131,-474
32-17,55079037,-792
32-18,55082943,49
32-19,55086849,504
32-20,55090755,-306
32-21,55094661,-942
32-22,55098567,-245
32-23,55102473,523
32-24,55106379,-16
32-25,55110285,-885
32-26,55114191,-416
32-27,55118097,599
32-28,55122003,346
32-29,55125909,-756
32-30,55129815,-755
32-31,55133721,281
32-32,55137627,470
32-1,55141508,-508
32-2,55145414,-815
32-3,55149320,179
32-4,55153226,788
32-5,55157132,-5
32-6,55161038,-763
32-7,55164944,-157
32-8,55168850,605
32-9,55172756,83
32-10,55176662,-819
32-11,55180568,-479
32-12,55184474,509
32-13,55188380,420
32-14,55192286,-589
32-15,55196192,-592
32-16,55200098,503
32-17,55204004,835
32-18,55207910,-89
32-19,55211816,-593
32-20,55215722,213
32-21,55219628,834
32-22,55223534,85
32-23,55227440,-726
32-24,55231346,-206
32-25,55235252,587
32-26,55239158,207
32-27,55243064,-714
32-28,55246970,-517
32-29,55250876,602
32-30,55254782,872
32-31,55258688,-41
32-32,55262594,-300
32-1,55266506,630
32-2,55270412,988
32-3,55274318,59
32-4,55278224,-516
32-5,55282130,205
32-6,55286036,811
32-7,55289942,122
32-8,55293848,-728
32-9,55297754,-188
32-10,55301660,775
32-11,55305566,432
32-12,55309472,-567
32-13,55313378,-414
32-14,55317284,561
32-15,55321190,632
32-16,55325096,-322
32-17,55329002,-587
32-18,55332908,322
32-19,55336814,774
32-20,55340720,-113
32-21,55344626,-765
32-22,55348532,6
32-23,55352438,730
32-24,55356344,83
32-25,55360250,-862
32-26,55364156,-508
32-27,55368062,504
32-28,55371968,326
32-29,55375874,-724
32-30,55379780,-607
32-31,55383686,410
32-32,55387592,498
32-1,55391503,-458
32-2,55395409,-866
32-3,55399315,-70
32-4,55403221,491
32-5,55407127,-257
32-6,55411033,-972
32-7,55414939,-346
32-8,55418845,445
32-9,55422751,46
32-10,55426657,-742
32-11,55430563,-388
32-12,55434469,637
32-13,55438375,644
32-14,55442281,-359
32-15,55446187,-531
32-16,55450093,350
32-17,55453999,519
32-18,55457905,-487
32-19,55461811,-985
32-20,55465717,-180
32-21,55469623,444
32-22,55473529,-246
32-23,55477435,-1076
32-24,55481341,-555
32-25,55485247,328
32-26,55489153,-52
32-27,55493059,-953
32-28,55496965,-701
32-29,55500871,205
32-30,55504777,195
32-31,55508683,-681
32-32,55512589,-699
32-1,55516501,410
32-2,55520407,856
32-3,55524313,-51
32-4,55528219,-736
32-5,55532125,-74
32-6,55536031,689
32-7,55539937,163
32-8,55543843,-650
32-9,55547749,-152
32-10,55551655,838
32-11,55555561,614
32-12,55559467,-393
32-13,55563373,-263
32-14,55567279,830
32-15,55571185,957
32-16,55575091,-85
32-17,55578997,-419
32-18,55582903,526
32-19,55586809,1034
32-20,55590715,158
32-21,55594621,-551
32-22,55598527,144
32-23,55602433,879
32-24,55606339,300
32-25,55610245,-537
32-26,55614151,-59
32-27,55618057,971
32-28,55621963,800
32-29,55625869,-294
32-30,55629775,-364
32-31,55633681,645
32-32,55637587,892
32-1,55641498,-63
32-2,55645404,-541
32-3,55649310,290
32-4,55653216,906
32-5,55657122,84
32-6,55661028,-786
32-7,55664934,-138
32-8,55668840,839
32-9,55672746,430
32-10,55676652,-621
32-11,55680558,-500
32-12,55684464,414
32-13,55688370,383
32-14,55692276,-598
32-15,55696182,-689
32-16,55700088,350
32-17,55703994,740
32-18,55707900,-85
32-19,55711806,-524
32-20,55715712,361
32-21,55719618,1087
32-22,55723524,360
32-23,55727430,-463
32-24,55731336,125
32-25,55735242,988
32-26,55739148,544
32-27,55743054,-520
32-28,55746960,-362
32-29,55750866,666
32-30,55754772,733
32-31,55758678,-224
32-32,55762584,-440
32-1,55766496,488
32-2,55770402,912
32-3,55774308,82
32-4,55778214,-485
32-5,55782120,264
32-6,55786026,938
32-7,55789932,244
32-8,55793838,-641
32-9,55797744,-191
32-10,55801650,660
32-11,55805556,361
32-12,55809462,-584
32-13,55813368,-498
32-14,55817274,511
32-15,55821180,664
32-16,55825086,-523
32-17,55828992,-1005
32-18,55832898,100
32-19,55836804,756
32-20,55840710,-24
32-21,55844616,-641
32-22,55848522,6
32-23,55852428,772
32-24,55856334,253
32-25,55860240,-683
32-26,55864146,-251
32-27,55868052,804
32-28,55871958,584
32-29,55875864,-620
32-30,55879770,-753
32-31,55883676,327
32-32,55887582,661
32-1,55891494,-281
32-2,55895400,-718
32-3,55899306,122
32-4,55903212,652
32-5,55907118,-101
32-6,55911024,-758
32-7,55914930,-112
32-8,55918836,719
32-9,55922742,354
32-10,55926648,-543
32-11,55930554,-323
32-12,55934460,622
32-13,55938366,567
32-14,55942272,-418
32-15,55946178,-510
32-16,55950084,502
32-17,55953990,860
32-18,55957896,-34
32-19,55961802,-558
32-20,55965708,214
32-21,55969614,884
32-22,55973520,250
32-23,55977426,-624
32-24,55981332,-246
32-25,55985238,532
32-26,55989144,182
32-27,55993050,-877
32-28,55996956,-922
32-29,56000862,231
32-30,56004768,751
32-31,56008674,-97
32-32,56012580,-499
32-1,56016491,357
32-2,56020397,780
32-3,56024303,-194
32-4,56028209,-939
32-5,56032115,-225
32-6,56036021,490
32-7,56039927,-106
32-8,56043833,-987
32-9,56047739,-612
32-10,56051645,340
32-11,56055551,117
32-12,56059457,-932
32-13,56063363,-922
32-14,56067269,37
32-15,56071175,218
32-16,56075081,-699
32-17,56078987,-1115
32-18,56082893,-293
32-19,56086799,332
32-20,56090705,-332
32-21,56094611,-998
32-22,56098517,-368
32-23,56102423,386
32-24,56106329,-87
32-25,56110235,-970
32-26,56114141,-685
32-27,56118047,286
32-28,56121953,152
32-29,56125859,-860
32-30,56129765,-776
32-31,56133671,265
32-32,56137577,482
32-1,56141458,-423
32-2,56145364,-866
32-3,56149270,22
32-4,56153176,746
32-5,56157082,44
32-6,56160988,-749
32-7,56164894,-149
32-8,56168800,709
32-9,56172706,271
32-10,56176612,-727
32-11,56180518,-617
32-12,56184424,262
32-13,56188330,291
32-14,56192236,-650
32-15,56196142,-856
32-16,56200048,77
32-17,56203954,478
32-18,56207860,-383
32-19,56211766,-937
32-20,56215672,-134
32-21,56219578,593
32-22,56223484,-33
32-23,56227390,-898
32-24,56231296,-452
32-25,56235202,498
32-26,56239108,291
32-27,56243014,-650
32-28,56246920,-564
32-29,56250826,481
32-30,56254732,775
32-31,56258638,-141
32-32,56262544,-482
32-1,56266456,490
32-2,56270362,979
32-3,56274268,87
32-4,56278174,-620
32-5,56282080,-5
32-6,56285986,728
32-7,56289892,279
32-8,56293798,-563
32-9,56297704,-341
32-10,56301610,503
32-11,56305516,416
32-12,56309422,-550
32-13,56313328,-614
32-14,56317234,294
32-15,56321140,439
32-16,56325046,-472
32-17,56328952,-812
32-18,56332858,74
32-19,56336764,679
32-20,56340670,-37
32-21,56344576,-746
32-22,56348482,-162
32-23,56352388,583
32-24,56356294,114
32-25,56360200,-827
32-26,56364106,-647
32-27,56368012,253
32-28,56371918,141
32-29,56375824,-849
32-30,56379730,-768
32-31,56383636,369
32-32,56387542,687
32-1,56391454,-256
32-2,56395360,-790
32-3,56399266,78
32-4,56403172,874
32-5,56407078,245
32-6,56410984,-607
32-7,56414890,-112
32-8,56418796,786
32-9,56422702,454
32-10,56426608,-552
32-11,56430514,-485
32-12,56434420,386
32-13,56438326,385
32-14,56442232,-569
32-15,56446138,-780
32-16,56450044,83
32-17,56453950,421
32-18,56457856,-429
32-19,56461762,-1032
32-20,56465668,-358
32-21,56469574,401
32-22,56473480,-62
32-23,56477386,-859
32-24,56481292,-417
32-25,56485198,509
32-26,56489104,265
32-27,56493010,-676
32-28,56496916,-607
32-29,56500822,363
32-30,56504728,625
32-31,56508634,-239
32-32,56512540,-607
32-1,56516451,284
32-2,56520357,844
32-3,56524263,77
32-4,56528169,-587
32-5,56532075,61
32-6,56535981,812
32-7,56539887,258
32-8,56543793,-722
32-9,56547699,-432
32-10,56551605,498
32-11,56555511,317
32-12,56559417,-759
32-13,56563323,-890
32-14,56567229,34
32-15,56571135,247
32-16,56575041,-685
32-17,56578947,-1089
32-18,56582853,-250
32-19,56586759,342
32-20,56590665,-366
32-21,56594571,-1108
32-22,56598477,-481
32-23,56602383,428
32-24,56606289,25
32-25,56610195,-995
32-26,56614101,-785
32-27,56618007,288
32-28,56621913,304
32-29,56625819,-605
32-30,56629725,-556
32-31,56633631,417
32-32,56637537,689
32-1,56641449,-179
32-2,56645355,-730
32-3,56649261,76
32-4,56653167,865
32-5,56657073,280
32-6,56660979,-506
32-7,56664885,53
32-8,56668791,967
32-9,56672697,599
32-10,56676603,-383
32-11,56680509,-216
32-12,56684415,735
32-13,56688321,741
32-14,56692227,-301
32-15,56696133,-650
32-16,56700039,178
32-17,56703945,607
32-18,56707851,-212
32-19,56711757,-875
32-20,56715663,-210
32-21,56719569,602
32-22,56723475,145
32-23,56727381,-714
32-24,56731287,-310
32-25,56735193,632
32-26,56739099,488
32-27,56743005,-416
32-28,56746911,-417
32-29,56750817,821
32-30,56754723,1490
32-31,56758629,606
32-32,56762535,90
32-1,56766447,917
32-2,56770353,1388
32-3,56774259,597
32-4,56778165,-133
32-5,56782071,429
32-6,56785977,1206
32-7,56789883,644
32-8,56793789,-425
32-9,56797695,-157
32-10,56801601,837
32-11,56805507,694
32-12,56809413,-385
32-13,56813319,-545
32-14,56817225,372
32-15,56821131,615
32-16,56825037,-402
32-17,56828943,-938
32-18,56832849,-133
32-19,56836755,440
32-20,56840661,-244
32-21,56844567,-997
32-22,56848473,-509
32-23,56852379,366
32-24,56856285,120
32-25,56860191,-778
32-26,56864097,-642
32-27,56868003,329
32-28,56871909,372
32-29,56875815,-613
32-30,56879721,-711
32-31,56883627,364
32-32,56887533,804
32-1,56891444,-78
32-2,56895350,-698
32-3,56899256,75
32-4,56903162,824
32-5,56907068,149
32-6,56910974,-772
32-7,56914880,-355
32-8,56918786,467
32-9,56922692,94
32-10,56926598,-945
32-11,56930504,-904
32-12,56934410,32
32-13,56938316,150
32-14,56942222,-765
32-15,56946128,-1014
32-16,56950034,-96
32-17,56953940,397
32-18,56957846,-336
32-19,56961752,-884
32-20,56965658,-180
32-21,56969564,542
32-22,56973470,-51
32-23,56977376,-955
32-24,56981282,-519
32-25,56985188,441
32-26,56989094,249
32-27,56993000,-708
32-28,56996906,-787
32-29,57000812,110
32-30,57004718,457
32-31,57008624,-399
32-32,57012530,-837
32-1,57016442,105
32-2,57020348,764
32-3,57024254,43
32-4,57028160,-606
32-5,57032066,22
32-6,57035972,754
32-7,57039878,233
32-8,57043784,-752
32-9,57047690,-548
32-10,57051596,355
32-11,57055502,239
32-12,57059408,-763
32-13,57063314,-888
32-14,57067220,60
32-15,57071126,433
32-16,57075032,-420
32-17,57078938,-902
32-18,57082844,-5
32-19,57086750,764
32-20,57090656,134
32-21,57094562,-680
32-22,57098468,-177
32-23,57102374,693
32-24,57106280,345
32-25,57110186,-648
32-26,57114092,-494
32-27,57117998,590
32-28,57121904,688
32-29,57125810,-339
32-30,57129716,-485
32-31,57133622,534
32-32,57137528,898
32-1,57141409,-31
32-2,57145315,-682
32-3,57149221,37
32-4,57153127,770
32-5,57157033,159
32-6,57160939,-726
32-7,57164845,-273
32-8,57168751,720
32-9,57172657,518
32-10,57176563,-482
32-11,57180469,-422
32-12,57184375,556
32-13,57188281,673
32-14,57192187,-267
32-15,57196093,-516
32-16,57199999,457
32-17,57203905,1031
32-18,57207811,269
32-19,57211717,-400
32-20,57215623,303
32-21,57219529,1128
32-22,57223435,572
32-23,57227341,-436
32-24,57231247,-158
32-25,57235153,724
32-26,57239059,502
32-27,57242965,-439
32-28,57246871,-451
32-29,57250777,379
32-30,57254683,574
32-31,57258589,-275
32-32,57262495,-659
32-1,57266407,177
32-2,57270313,704
32-3,57274219,-26
32-4,57278125,-666
32-5,57282031,5
32-6,57285937,862
32-7,57289843,374
32-8,57293749,-658
32-9,57297655,-422
32-10,57301561,542
32-11,57305467,430
32-12,57309373,-622
32-13,57313279,-748
32-14,57317185,211
32-15,57321091,513
32-16,57324997,-365
32-17,57328903,-847
32-18,57332809,-84
32-19,57336715,475
32-20,57340621,-274
32-21,57344527,-1087
32-22,57348433,-559
32-23,57352339,380
32-24,57356245,139
32-25,57360151,-850
32-26,57364057,-799
32-27,57367963,163
32-28,57371869,187
32-29,57375775,-848
32-30,57379681,-921
32-31,57383587,217
32-32,57387493,647
32-1,57391404,-159
32-2,57395310,-627
32-3,57399216,151
32-4,57403122,841
32-5,57407028,208
32-6,57410934,-677
32-7,57414840,-301
32-8,57418746,582
32-9,57422652,433
32-10,57426558,-481
32-11,57430464,-502
32-12,57434370,506
32-13,57438276,842
32-14,57442182,-54
32-15,57446088,-430
32-16,57449994,513
32-17,57453900,1108
32-18,57457806,314
32-19,57461712,-415
32-20,57465618,251
32-21,57469524,1095
32-22,57473430,591
32-23,57477336,-365
32-24,57481242,-24
32-25,57485148,936
32-26,57489054,800
32-27,57492960,-236
32-28,57496866,-435
32-29,57500772,676
32-30,57504678,1340
32-31,57508584,454
32-32,57512490,-205
32-1,57516402,469
32-2,57520308,871
32-3,57524214,25
32-4,57528120,-785
32-5,57532026,-271
32-6,57535932,584
32-7,57539838,187
32-8,57543744,-855
32-9,57547650,-739
32-10,57551556,228
32-11,57555462,258
32-12,57559368,-744
32-13,57563274,-972
32-14,57567180,-64
32-15,57571086,322
32-16,57574992,-507
32-17,57578898,-1005
32-18,57582804,-171
32-19,57586710,542
32-20,57590616,-159
32-21,57594522,-1068
32-22,57598428,-588
32-23,57602334,373
32-24,57606240,165
32-25,57610146,-787
32-26,57614052,-727
32-27,57617958,297
32-28,57621864,421
32-29,57625770,-576
32-30,57629676,-664
32-31,57633582,431
32-32,57637488,888
32-1,57641400,80
32-2,57645306,-594
32-3,57649212,37
32-4,57653118,809
32-5,57657024,249
32-6,57660930,-608
32-7,57664836,-148
32-8,57668742,721
32-9,57672648,407
32-10,57676554,-631
32-11,57680460,-646
32-12,57684366,364
32-13,57688272,596
32-14,57692178,-410
32-15,57696084,-804
32-16,57699990,128
32-17,57703896,681
32-18,57707802,-118
32-19,57711708,-875
32-20,57715614,-336
32-21,57719520,393
32-22,57723426,-93
32-23,57727332,-1015
32-24,57731238,-683
32-25,57735144,360
32-26,57739050,313
32-27,57742956,-649
32-28,57746862,-794
32-29,57750768,20
32-30,57754674,330
32-31,57758580,-481
32-32,57762486,-971
32-1,57766397,-124
32-2,57770303,555
32-3,57774209,-212
32-4,57778115,-1080
32-5,57782021,-533
32-6,57785927,354
32-7,57789833,-22
32-8,57793739,-947
32-9,57797645,-659
32-10,57801551,423
32-11,57805457,521
32-12,57809363,-473
32-13,57813269,-754
32-14,57817175,147
32-15,57821081,545
32-16,57824987,-298
32-17,57828893,-878
32-18,57832799,-176
32-19,57836705,532
32-20,57840611,-40
32-21,57844517,-904
32-22,57848423,-498
32-23,57852329,426
32-24,57856235,220
32-25,57860141,-782
32-26,57864047,-747
32-27,57867953,305
32-28,57871859,417
32-29,57875765,-689
32-30,57879671,-959
32-31,57883577,-4
32-32,57887483,388
32-1,57891395,-415
32-2,57895301,-1018
32-3,57899207,-335
32-4,57903113,437
32-5,57907019,-93
32-6,57910925,-986
32-7,57914831,-663
32-8,57918737,255
32-9,57922643,101
32-10,57926549,-910
32-11,57930455,-878
32-12,57934361,206
32-13,57938267,512
32-14,57942173,-355
32-15,57946079,-771
32-16,57949985,69
32-17,57953891,727
32-18,57957797,41
32-19,57961703,-712
32-20,57965609,-123
32-21,57969515,675
32-22,57973421,208
32-23,57977327,-737
32-24,57981233,-468
32-25,57985139,531
32-26,57989045,504
32-27,57992951,-506
32-28,57996857,-782
32-29,58000763,63
32-30,58004669,542
32-31,58008575,-209
32-32,58012481,-714
32-1,58016392,162
32-2,58020298,879
32-3,58024204,194
32-4,58028110,-617
32-5,58032016,-105
32-6,58035922,805
32-7,58039828,522
32-8,58043734,-426
32-9,58047640,-321
32-10,58051546,596
32-11,58055452,617
32-12,58059358,-395
32-13,58063264,-592
32-14,58067170,420
32-15,58071076,826
32-16,58074982,-93
32-17,58078888,-650
32-18,58082794,221
32-19,58086700,990
32-20,58090606,343
32-21,58094512,-581
32-22,58098418,-257
32-23,58102324,637
32-24,58106230,505
32-25,58110136,-505
32-26,58114042,-569
32-27,58117948,415
32-28,58121854,530
32-29,58125760,-417
32-30,58129666,-536
32-31,58133572,556
32-32,58137478,1247
32-1,58141360,593
32-2,58145266,-154
32-3,58149172,375
32-4,58153078,1084
32-5,58156984,555
32-6,58160890,-396
32-7,58164796,-200
32-8,58168702,672
32-9,58172608,579
32-10,58176514,-383
32-11,58180420,-415
32-12,58184326,616
32-13,58188232,858
32-14,58192138,-192
32-15,58196044,-641
32-16,58199950,266
32-17,58203856,848
32-18,58207762,121
32-19,58211668,-601
32-20,58215574,-14
32-21,58219480,822
32-22,58223386,419
32-23,58227292,-531
32-24,58231198,-332
32-25,58235104,648
32-26,58239010,686
32-27,58242916,-344
32-28,58246822,-699
32-29,58250728,357
32-30,58254634,1155
32-31,58258540,353
32-32,58262446,-379
32-1,58266357,409
32-2,58270263,1144
32-3,58274169,449
32-4,58278075,-468
32-5,58281981,-33
32-6,58285887,842
32-7,58289793,505
32-8,58293699,-516
32-9,58297605,-423
32-10,58301511,601
32-11,58305417,685
32-12,58309323,-388
32-13,58313229,-704
32-14,58317135,170
32-15,58321041,495
32-16,58324947,-454
32-17,58328853,-1091
32-18,58332759,-312
32-19,58336665,432
32-20,58340571,-165
32-21,58344477,-1025
32-22,58348383,-673
32-23,58352289,249
32-24,58356195,168
32-25,58360101,-777
32-26,58364007,-793
32-27,58367913,242
32-28,58371819,476
32-29,58375725,-524
32-30,58379631,-863
32-31,58383537,125
32-32,58387443,684
32-1,58391355,-134
32-2,58395261,-883
32-3,58399167,-309
32-4,58403073,442
32-5,58406979,-38
32-6,58410885,-927
32-7,58414791,-630
32-8,58418697,295
32-9,58422603,214
32-10,58426509,-770
32-11,58430415,-878
32-12,58434321,159
32-13,58438227,558
32-14,58442133,-344
32-15,58446039,-835
32-16,58449945,27
32-17,58453851,691
32-18,58457757,-26
32-19,58461663,-853
32-20,58465569,-329
32-21,58469475,583
32-22,58473381,289
32-23,58477287,-695
32-24,58481193,-599
32-25,58485099,367
32-26,58489005,442
32-27,58492911,-569
32-28,58496817,-903
32-29,58500723,-24
32-30,58504629,466
32-31,58508535,-287
32-32,58512441,-810
32-1,58516352,-34
32-2,58520258,728
32-3,58524164,196
32-4,58528070,-628
32-5,58531976,-195
32-6,58535882,716
32-7,58539788,437
32-8,58543694,-529
32-9,58547600,-339
32-10,58551506,713
32-11,58555412,755
32-12,58559318,-330
32-13,58563224,-688
32-14,58567130,216
32-15,58571036,700
32-16,58574942,-122
32-17,58578848,-734
32-18,58582754,10
32-19,58586660,793
32-20,58590566,303
32-21,58594472,-559
32-22,58598378,-251
32-23,58602284,655
32-24,58606190,485
32-25,58610096,-447
32-26,58614002,-288
32-27,58617908,641
32-28,58621814,553
32-29,58625720,-551
32-30,58629626,-946
32-31,58633532,18
32-32,58637438,708
32-1,58641350,-20
32-2,58645256,-731
32-3,58649162,-88
32-4,58653068,777
32-5,58656974,352
32-6,58660880,-654
32-7,58664786,-452
32-8,58668692,465
32-9,58672598,343
32-10,58676504,-661
32-11,58680410,-767
32-12,58684316,188
32-13,58688222,552
32-14,58692128,-214
32-15,58696034,-636
32-16,58699940,106
32-17,58703846,706
32-18,58707752,70
32-19,58711658,-699
32-20,58715564,-187
32-21,58719470,698
32-22,58723376,363
32-23,58727282,-656
32-24,58731188,-520
32-25,58735094,524
32-26,58739000,623
32-27,58742906,-298
32-28,58746812,-516
32-29,58750718,285
32-30,58754624,676
32-31,58758530,-122
32-32,58762436,-757
32-1,58766348,-8
32-2,58770254,763
32-3,58774160,194
32-4,58778066,-652
32-5,58781972,-290
32-6,58785878,570
32-7,58789784,337
32-8,58793690,-670
32-9,58797596,-670
32-10,58801502,295
32-11,58805408,460
32-12,58809314,-534
32-13,58813220,-918
32-14,58817126,-63
32-15,58821032,382
32-16,58824938,-441
32-17,58828844,-1100
32-18,58832750,-428
32-19,58836656,404
32-20,58840562,-20
32-21,58844468,-889
32-22,58848374,-517
32-23,58852280,512
32-24,58856186,441
32-25,58860092,-508
32-26,58863998,-497
32-27,58867904,581
32-28,58871810,886
32-29,58875716,-199
32-30,58879622,-728
32-31,58883528,223
32-32,58887434,822
32-1,58891345,62
32-2,58895251,-609
32-3,58899157,-1
32-4,58903063,768
32-5,58906969,350
32-6,58910875,-514
32-7,58914781,-221
32-8,58918687,774
32-9,58922593,712
32-10,58926499,-370
32-11,58930405,-579
32-12,58934311,363
32-13,58938217,747
32-14,58942123,-110
32-15,58946029,-666
32-16,58949935,144
32-17,58953841,885
32-18,58957747,229
32-19,58961653,-594
32-20,58965559,-46
32-21,58969465,856
32-22,58973371,479
32-23,58977277,-566
32-24,58981183,-439
32-25,58985089,539
32-26,58988995,610
32-27,58992901,-361
32-28,58996807,-736
32-29,59000713,257
32-30,59004619,1095
32-31,59008525,430
32-32,59012431,-257
32-1,59016343,429
32-2,59020249,1086
32-3,59024155,447
32-4,59028061,-378
32-5,59031967,72
32-6,59035873,989
32-7,59039779,740
32-8,59043685,-270
32-9,59047591,-236
32-10,59051497,738
32-11,59055403,915
32-12,59059309,-18
32-13,59063215,-419
32-14,59067121,443
32-15,59071027,1043
32-16,59074933,210
32-17,59078839,-636
32-18,59082745,-13
32-19,59086651,779
32-20,59090557,245
32-21,59094463,-703
32-22,59098369,-487
32-23,59102275,406
32-24,59106181,321
32-25,59110087,-733
32-26,59113993,-851
32-27,59117899,236
32-28,59121805,588
32-29,59125711,-423
32-30,59129617,-960
32-31,59133523,-99
32-32,59137429,574
32-1,59141310,-75
32-2,59145216,-789
32-3,59149122,-189
32-4,59153028,751
32-5,59156934,426
32-6,59160840,-590
32-7,59164746,-460
32-8,59168652,462
32-9,59172558,414
32-10,59176464,-574
32-11,59180370,-784
32-12,59184276,109
32-13,59188182,473
32-14,59192088,-419
32-15,59195994,-965
32-16,59199900,-172
32-17,59203806,529
32-18,59207712,-72
32-19,59211618,-919
32-20,59215524,-493
32-21,59219430,432
32-22,59223336,186
32-23,59227242,-769
32-24,59231148,-567
32-25,59235054,510
32-26,59238960,651
32-27,59242866,-277
32-28,59246772,-662
32-29,59250678,98
32-30,59254584,621
32-31,59258490,-151
32-32,59262396,-878
32-1,59266308,-191
32-2,59270214,647
32-3,59274120,124
32-4,59278026,-774
32-5,59281932,-333
32-6,59285838,657
32-7,59289744,447
32-8,59293650,-595
32-9,59297556,-670
32-10,59301462,264
32-11,59305368,471
32-12,59309274,-526
32-13,59313180,-962
32-14,59317086,-37
32-15,59320992,578
32-16,59324898,-274
32-17,59328804,-1092
32-18,59332710,-389
32-19,59336616,539
32-20,59340522,104
32-21,59344428,-798
32-22,59348334,-458
32-23,59352240,584
32-24,59356146,559
32-25,59360052,-467
32-26,59363958,-638
32-27,59367864,364
32-28,59371770,713
32-29,59375676,-302
32-30,59379582,-864
32-31,59383488,-34
32-32,59387394,570
32-1,59391305,-155
32-2,59395211,-994
32-3,59399117,-480
32-4,59403023,497
32-5,59406929,214
32-6,59410835,-789
32-7,59414741,-618
32-8,59418647,440
32-9,59422553,534
32-10,59426459,-469
32-11,59430365,-714
32-12,59434271,258
32-13,59438177,638
32-14,59442083,-362
32-15,59445989,-983
32-16,59449895,-128
32-17,59453801,643
32-18,59457707,25
32-19,59461613,-846
32-20,59465519,-414
32-21,59469425,534
32-22,59473331,349
32-23,59477237,-602
32-24,59481143,-553
32-25,59485049,331
32-26,59488955,414
32-27,59492861,-464
32-28,59496767,-849
32-29,59500673,-74
32-30,59504579,598
32-31,59508485,-25
32-32,59512391,-755
32-1,59516303,-181
32-2,59520209,569
32-3,59524115,14
32-4,59528021,-966
32-5,59531927,-599
32-6,59535833,454
32-7,59539739,391
32-8,59543645,-566
32-9,59547551,-633
32-10,59551457,397
32-11,59555363,770
32-12,59559269,-115
32-13,59563175,-548
32-14,59567081,248
32-15,59570987,760
32-16,59574893,7
32-17,59578799,-706
32-18,59582705,-113
32-19,59586611,666
32-20,59590517,226
32-21,59594423,-657
32-22,59598329,-417
32-23,59602235,448
32-24,59606141,387
32-25,59610047,-593
32-26,59613953,-865
32-27,59617859,42
32-28,59621765,427
32-29,59625671,-438
32-30,59629577,-731
32-31,59633483,324
32-32,59637389,1007
32-1,59641301,262
32-2,59645207,-626
32-3,59649113,-187
32-4,59653019,666
32-5,59656925,349
32-6,59660831,-576
32-7,59664737,-398
32-8,59668643,563
32-9,59672549,597
32-10,59676455,-406
32-11,59680361,-709
32-12,59684267,221
32-13,59688173,736
32-14,59692079,-71
32-15,59695985,-736
32-16,59699891,-85
32-17,59703797,635
32-18,59707703,70
32-19,59711609,-801
32-20,59715515,-391
32-21,59719421,503
32-22,59723327,223
32-23,59727233,-789
32-24,59731139,-727
32-25,59735045,266
32-26,59738951,515
32-27,59742857,-305
32-28,59746763,-663
32-29,59750669,430
32-30,59754575,1485
32-31,59758481,861
32-32,59762387,-52
32-1,59766298,448
32-2,59770204,1128
32-3,59774110,550
32-4,59778016,-386
32-5,59781922,-98
32-6,59785828,833
32-7,59789734,685
32-8,59793640,-398
32-9,59797546,-554
32-10,59801452,403
32-11,59805358,693
32-12,59809264,-252
32-13,59813170,-806
32-14,59817076,-27
32-15,59820982,652
32-16,59824888,-89
32-17,59828794,-959
32-18,59832700,-317
32-19,59836606,707
32-20,59840512,352
32-21,59844418,-685
32-22,59848324,-507
32-23,59852230,487
32-24,59856136,364
32-25,59860042,-830
32-26,59863948,-1137
32-27,59867854,-247
32-28,59871760,46
32-29,59875666,-946
32-30,59879572,-1475
32-31,59883478,-539
32-32,59887384,263
32-1,59891296,-304
32-2,59895202,-1072
32-3,59899108,-594
32-4,59903014,354
32-5,59906920,183
32-6,59910826,-793
32-7,59914732,-767
32-8,59918638,212
32-9,59922544,399
32-10,59926450,-457
32-11,59930356,-723
32-12,59934262,156
32-13,59938168,648
32-14,59942074,-146
32-15,59945980,-739
32-16,59949886,15
32-17,59953792,829
32-18,59957698,327
32-19,59961604,-602
32-20,59965510,-232
32-21,59969416,749
32-22,59973322,578
32-23,59977228,-371
32-24,59981134,-346
32-25,59985040,614
32-26,59988946,827
32-27,59992852,-62
32-28,59996758,-474
32-29,60000664,293
32-30,60004570,905
32-31,60008476,244
32-32,60012382,-572
32-1,60016294,-114
32-2,60020200,616
32-3,60024106,174
32-4,60028012,-724
32-5,60031918,-499
32-6,60035824,429
32-7,60039730,423
32-8,60043636,-494
32-9,60047542,-579
32-10,60051448,432
32-11,60055354,767
32-12,60059260,-237
32-13,60063166,-854
32-14,60067072,-124
32-15,60070978,469
32-16,60074884,-269
32-17,60078790,-1082
32-18,60082696,-454
32-19,60086602,487
32-20,60090508,133
32-21,60094414,-771
32-22,60098320,-595
32-23,60102226,319
32-24,60106132,399
32-25,60110038,-566
32-26,60113944,-863
32-27,60117850,89
32-28,60121756,544
32-29,60125662,-377
32-30,60129568,-958
32-31,60133474,-120
32-32,60137380,601
32-1,60141261,-65
32-2,60145167,-994
32-3,60149073,-608
32-4,60152979,303
32-5,60156885,38
32-6,60160791,-971
32-7,60164697,-915
32-8,60168603,113
32-9,60172509,372
32-10,60176415,-495
32-11,60180321,-747
32-12,60184227,228
32-13,60188133,770
32-14,60192039,-8
32-15,60195945,-642
32-16,60199851,80
32-17,60203757,925
32-18,60207663,435
32-19,60211569,-517
32-20,60215475,-254
32-21,60219381,616
32-22,60223287,434
32-23,60227193,-560
32-24,60231099,-577
32-25,60235005,454
32-26,60238911,739
32-27,60242817,-193
32-28,60246723,-702
32-29,60250629,-7
32-30,60254535,616
32-31,60258441,68
32-32,60262347,-614
32-1,60266258,6
32-2,60270164,931
32-3,60274070,547
32-4,60277976,-420
32-5,60281882,-185
32-6,60285788,785
32-7,60289694,661
32-8,60293600,-484
32-9,60297506,-694
32-10,60301412,307
32-11,60305318,656
32-12,60309224,-258
32-13,60313130,-776
32-14,60317036,-42
32-15,60320942,629
32-16,60324848,77
32-17,60328754,-718
32-18,60332660,-253
32-19,60336566,606
32-20,60340472,254
32-21,60344378,-677
32-22,60348284,-443
32-23,60352190,599
32-24,60356096,701
32-25,60360002,-285
32-26,60363908,-586
32-27,60367814,358
32-28,60371720,780
32-29,60375626,-235
32-30,60379532,-878
32-31,60383438,-14
32-32,60387344,759
32-1,60391256,169
32-2,60395162,-709
32-3,60399068,-332
32-4,60402974,565
32-5,60406880,330
32-6,60410786,-664
32-7,60414692,-664
32-8,60418598,307
32-9,60422504,530
32-10,60426410,-395
32-11,60430316,-699
32-12,60434222,235
32-13,60438128,736
32-14,60442034,-103
32-15,60445940,-827
32-16,60449846,-171
32-17,60453752,643
32-18,60457658,136
32-19,60461564,-805
32-20,60465470,-501
32-21,60469376,454
32-22,60473282,328
32-23,60477188,-696
32-24,60481094,-766
32-25,60485000,215
32-26,60488906,507
32-27,60492812,-453
32-28,60496718,-1036
32-29,60500624,-41
32-30,60504530,1003
32-31,60508436,448
32-32,60512342,-351
32-1,60516254,248
32-2,60520160,1081
32-3,60524066,627
32-4,60527972,-371
32-5,60531878,-164
32-6,60535784,851
32-7,60539690,867
32-8,60543596,-127
32-9,60547502,-277
32-10,60551408,712
32-11,60555314,1064
32-12,60559220,93
32-13,60563126,-493
32-14,60567032,351
32-15,60570938,1028
32-16,60574844,305
32-17,60578750,-517
32-18,60582656,-83
32-19,60586562,671
32-20,60590468,391
32-21,60594374,-462
32-22,60598280,-327
32-23,60602186,650
32-24,60606092,809
32-25,60609998,-126
32-26,60613904,-349
32-27,60617810,671
32-28,60621716,1045
32-29,60625622,88
32-30,60629528,-413
32-31,60633434,358
32-32,60637340,1017
32-1,60641251,485
32-2,60645157,-402
32-3,60649063,-120
32-4,60652969,752
32-5,60656875,573
32-6,60660781,-369
32-7,60664687,-365
32-8,60668593,575
32-9,60672499,761
32-10,60676405,-203
32-11,60680311,-634
32-12,60684217,165
32-13,60688123,669
32-14,60692029,-162
32-15,60695935,-945
32-16,60699841,-312
32-17,60703747,451
32-18,60707653,-94
32-19,60711559,-1012
32-20,60715465,-742
32-21,60719371,189
32-22,60723277,141
32-23,60727183,-851
32-24,60731089,-975
32-25,60734995,24
32-26,60738901,368
32-27,60742807,-484
32-28,60746713,-937
32-29,60750619,-171
32-30,60754525,500
32-31,60758431,-175
32-32,60762337,-1065
32-1,60766249,-534
32-2,60770155,376
32-3,60774061,49
32-4,60777967,-862
32-5,60781873,-705
32-6,60785779,307
32-7,60789685,452
32-8,60793591,-530
32-9,60797497,-839
32-10,60801403,92
32-11,60805309,571
32-12,60809215,-290
32-13,60813121,-917
32-14,60817027,-147
32-15,60820933,644
32-16,60824839,60
32-17,60828745,-813
32-18,60832651,-332
32-19,60836557,590
32-20,60840463,311
32-21,60844369,-640
32-22,60848275,-546
32-23,60852181,409
32-24,60856087,540
32-25,60859993,-394
32-26,60863899,-785
32-27,60867805,9
32-28,60871711,500
32-29,60875617,-375
32-30,60879523,-1067
32-31,60883429,-283
32-32,60887335,472
32-1,60891246,-141
32-2,60895152,-1064
32-3,60899058,-717
32-4,60902964,225
32-5,60906870,23
32-6,60910776,-1036
32-7,60914682,-1051
32-8,60918588,-14
32-9,60922494,271
32-10,60926400,-608
32-11,60930306,-952
32-12,60934212,-60
32-13,60938118,504
32-14,60942024,-226
32-15,60945930,-853
32-16,60949836,-86
32-17,60953742,901
32-18,60957648,526
32-19,60961554,-430
32-20,60965460,-147
32-21,60969366,851
32-22,60973272,778
32-23,60977178,-227
32-24,60981084,-323
32-25,60984990,656
32-26,60988896,998
32-27,60992802,165
32-28,60996708,-416
32-29,61000614,319
32-30,61004520,1241
32-31,61008426,779
32-32,61012332,-89
32-1,61016244,322
32-2,61020150,1098
32-3,61024056,694
32-4,61027962,-372
32-5,61031868,-311
32-6,61035774,714
32-7,61039680,767
32-8,61043586,-326
32-9,61047492,-630
32-10,61051398,269
32-11,61055304,643
32-12,61059210,-223
32-13,61063116,-835
32-14,61067022,-191
32-15,61070928,493
32-16,61074834,-22
32-17,61078740,-836
32-18,61082646,-379
32-19,61086552,631
32-20,61090458,444
32-21,61094364,-559
32-22,61098270,-463
32-23,61102176,605
32-24,61106082,840
32-25,61109988,-39
32-26,61113894,-358
32-27,61117800,529
32-28,61121706,1009
32-29,61125612,136
32-30,61129518,-477
32-31,61133424,312
32-32,61137330,1055
32-1,61141242,495
32-2,61145148,-359
32-3,61149054,18
32-4,61152960,955
32-5,61156866,765
32-6,61160772,-315
32-7,61164678,-456
32-8,61168584,480
32-9,61172490,718
32-10,61176396,-275
32-11,61180302,-752
32-12,61184208,126
32-13,61188114,786
32-14,61192020,74
32-15,61195926,-730
32-16,61199832,-158
32-17,61203738,766
32-18,61207644,411
32-19,61211550,-581
32-20,61215456,-407
32-21,61219362,570
32-22,61223268,553
32-23,61227174,-457
32-24,61231080,-621
32-25,61234986,338
32-26,61238892,720
32-27,61242798,-140
32-28,61246704,-701
32-29,61250610,225
32-30,61254516,1253
32-31,61258422,731
32-32,61262328,-176
32-1,61266209,289
32-2,61270115,1109
32-3,61274021,704
32-4,61277927,-281
32-5,61281833,-158
32-6,61285739,827
32-7,61289645,916
32-8,61293551,-84
32-9,61297457,-347
32-10,61301363,595
32-11,61305269,1029
32-12,61309175,173
32-13,61313081,-489
32-14,61316987,149
32-15,61320893,799
32-16,61324799,111
32-17,61328705,-889
32-18,61332611,-567
32-19,61336517,354
32-20,61340423,152
32-21,61344329,-924
32-22,61348235,-1031
32-23,61352141,-106
32-24,61356047,129
32-25,61359953,-747
32-26,61363859,-1103
32-27,61367765,-215
32-28,61371671,301
32-29,61375577,-555
32-30,61379483,-1237
32-31,61383389,-522
32-32,61387295,348
32-1,61391206,-6
32-2,61395112,-892
32-3,61399018,-677
32-4,61402924,216
32-5,61406830,82
32-6,61410736,-940
32-7,61414642,-987
32-8,61418548,48
32-9,61422454,356
32-10,61426360,-523
32-11,61430266,-979
32-12,61434172,-249
32-13,61438078,296
32-14,61441984,-442
32-15,61445890,-1213
32-16,61449796,-572
32-17,61453702,359
32-18,61457608,28
32-19,61461514,-822
32-20,61465420,-525
32-21,61469326,450
32-22,61473232,432
32-23,61477138,-537
32-24,61481044,-695
32-25,61484950,279
32-26,61488856,696
32-27,61492762,-154
32-28,61496668,-840
32-29,61500574,-168
32-30,61504480,757
32-31,61508386,299
32-32,61512292,-614
32-1,61516204,-193
32-2,61520110,660
32-3,61524016,280
32-4,61527922,-755
32-5,61531828,-652
32-6,61535734,380
32-7,61539640,538
32-8,61543546,-436
32-9,61547452,-751
32-10,61551358,213
32-11,61555264,760
32-12,61559170,-6
32-13,61563076,-582
32-14,61566982,126
32-15,61570888,881
32-16,61574794,320
32-17,61578700,-699
32-18,61582606,-450
32-19,61586512,499
32-20,61590418,339
32-21,61594324,-674
32-22,61598230,-661
32-23,61602136,312
32-24,61606042,467
32-25,61609948,-520
32-26,61613854,-848
32-27,61617760,155
32-28,61621666,655
32-29,61625572,-152
32-30,61629478,-633
32-31,61633384,113
32-32,61637290,853
32-1,61641202,371
32-2,61645108,-572
32-3,61649014,-288
32-4,61652920,686
32-5,61656826,566
32-6,61660732,-470
32-7,61664638,-565
32-8,61668544,441
32-9,61672450,710
32-10,61676356,-243
32-11,61680262,-692
32-12,61684168,95
32-13,61688074,691
32-14,61691980,-13
32-15,61695886,-874
32-16,61699792,-380
32-17,61703698,494
32-18,61707604,147
32-19,61711510,-781
32-20,61715416,-585
32-21,61719322,386
32-22,61723228,415
32-23,61727134,-591
32-24,61731040,-880
32-25,61734946,-42
32-26,61738852,321
32-27,61742758,-472
32-28,61746664,-1076
32-29,61750570,-474
32-30,61754476,316
32-31,61758382,-36
32-32,61762288,-762
32-1,61766199,-316
32-2,61770105,602
32-3,61774011,385
32-4,61777917,-605
32-5,61781823,-564
32-6,61785729,413
32-7,61789635,545
32-8,61793541,-437
32-9,61797447,-834
32-10,61801353,-10
32-11,61805259,480
32-12,61809165,-274
32-13,61813071,-835
32-14,61816977,-92
32-15,61820883,704
32-16,61824789,198
32-17,61828695,-730
32-18,61832601,-374
32-19,61836507,643
32-20,61840413,530
32-21,61844319,-487
32-22,61848225,-528
32-23,61852131,461
32-24,61856037,714
32-25,61859943,-220
32-26,61863849,-676
32-27,61867755,154
32-28,61871661,655
32-29,61875567,-63
32-30,61879473,-481
32-31,61883379,286
32-32,61887285,982
32-1,61891197,474
32-2,61895103,-462
32-3,61899009,-246
32-4,61902915,661
32-5,61906821,644
32-6,61910727,-292
32-7,61914633,-529
32-8,61918539,327
32-9,61922445,628
32-10,61926351,-344
32-11,61930257,-870
32-12,61934163,38
32-13,61938069,760
32-14,61941975,32
32-15,61945881,-781
32-16,61949787,-139
32-17,61953693,858
32-18,61957599,547
32-19,61961505,-491
32-20,61965411,-452
32-21,61969317,459
32-22,61973223,482
32-23,61977129,-557
32-24,61981035,-866
32-25,61984941,-20
32-26,61988847,367
32-27,61992753,-443
32-28,61996659,-1054
32-29,62000565,-219
32-30,62004471,833
32-31,62008377,428
32-32,62012283,-435
32-1,62016195,-24
32-2,62020101,816
32-3,62024007,562
32-4,62027913,-335
32-5,62031819,-286
32-6,62035725,674
32-7,62039631,936
32-8,62043537,44
32-9,62047443,-318
32-10,62051349,553
32-11,62055255,1002
32-12,62059161,185
32-13,62063067,-420
32-14,62066973,276
32-15,62070879,1081
32-16,62074785,612
32-17,62078691,-380
32-18,62082597,-176
32-19,62086503,759
32-20,62090409,657
32-21,62094315,-290
32-22,62098221,-317
32-23,62102127,585
32-24,62106033,784
32-25,62109939,-211
32-26,62113845,-811
32-27,62117751,-52
32-28,62121657,514
32-29,62125563,-246
32-30,62129469,-943
32-31,62133375,-331
32-32,62137281,490
32-1,62141192,76
32-2,62145098,-924
32-3,62149004,-735
32-4,62152910,291
32-5,62156816,376
32-6,62160722,-551
32-7,62164628,-698
32-8,62168534,321
32-9,62172440,744
32-10,62176346,-123
32-11,62180252,-640
32-12,62184158,73
32-13,62188064,588
32-14,62191970,-146
32-15,62195876,-953
32-16,62199782,-404
32-17,62203688,574
32-18,62207594,298
32-19,62211500,-690
32-20,62215406,-564
32-21,62219312,363
32-22,62223218,389
32-23,62227124,-578
32-24,62231030,-832
32-25,62234936,79
32-26,62238842,482
32-27,62242748,-399
32-28,62246654,-1096
32-29,62250560,-435
32-30,62254466,447
32-31,62258372,11
32-32,62262278,-868
32-1,62266159,-407
32-2,62270065,574
32-3,62273971,324
32-4,62277877,-709
32-5,62281783,-712
32-6,62285689,255
32-7,62289595,448
32-8,62293501,-491
32-9,62297407,-786
32-10,62301313,231
32-11,62305219,799
32-12,62309125,-57
32-13,62313031,-790
32-14,62316937,-195
32-15,62320843,514
32-16,62324749,28
32-17,62328655,-806
32-18,62332561,-486
32-19,62336467,409
32-20,62340373,282
32-21,62344279,-773
32-22,62348185,-925
32-23,62352091,51
32-24,62355997,306
32-25,62359903,-646
32-26,62363809,-1101
32-27,62367715,-276
32-28,62371621,349
32-29,62375527,-384
32-30,62379433,-1172
32-31,62383339,-541
32-32,62387245,379
32-1,62391157,34
32-2,62395063,-879
32-3,62398969,-635
32-4,62402875,406
32-5,62406781,463
32-6,62410687,-489
32-7,62414593,-653
32-8,62418499,279
32-9,62422405,647
32-10,62426311,-241
32-11,62430217,-777
32-12,62434123,80
32-13,62438029,820
32-14,62441935,220
32-15,62445841,-541
32-16,62449747,-85
32-17,62453653,696
32-18,62457559,273
32-19,62461465,-817
32-20,62465371,-805
32-21,62469277,121
32-22,62473183,253
32-23,62477089,-731
32-24,62480995,-1111
32-25,62484901,-221
32-26,62488807,312
32-27,62492713,-426
32-28,62496619,-1089
32-29,62500525,-499
32-30,62504431,312
32-31,62508337,-100
32-32,62512243,-921
32-1,62516155,-442
32-2,62520061,609
32-3,62523967,470
32-4,62527873,-532
32-5,62531779,-537
32-6,62535685,518
32-7,62539591,816
32-8,62543497,-100
32-9,62547403,-494
32-10,62551309,310
32-11,62555215,715
32-12,62559121,-147
32-13,62563027,-875
32-14,62566933,-251
32-15,62570839,597
32-16,62574745,186
32-17,62578651,-730
32-18,62582557,-384
32-19,62586463,674
32-20,62590369,620
32-21,62594275,-378
32-22,62598181,-506
32-23,62602087,413
32-24,62605993,689
32-25,62609899,-250
32-26,62613805,-686
32-27,62617711,266
32-28,62621617,891
32-29,62625523,167
32-30,62629429,-394
32-31,62633335,401
32-32,62637241,1334
32-1,62641152,926
32-2,62645058,-132
32-3,62648964,-46
32-4,62652870,883
32-5,62656776,917
32-6,62660682,-126
32-7,62664588,-446
32-8,62668494,489
32-9,62672400,854
32-10,62676306,-123
32-11,62680212,-723
32-12,62684118,18
32-13,62688024,690
32-14,62691930,70
32-15,62695836,-849
32-16,62699742,-482
32-17,62703648,443
32-18,62707554,190
32-19,62711460,-823
32-20,62715366,-761
32-21,62719272,212
32-22,62723178,362
32-23,62727084,-581
32-24,62730990,-871
32-25,62734896,110
32-26,62738802,704
32-27,62742708,-67
32-28,62746614,-791
32-29,62750520,-30
32-30,62754426,1055
32-31,62758332,688
32-32,62762238,-256
32-1,62766150,65
32-2,62770056,914
32-3,62773962,622
32-4,62777868,-476
32-5,62781774,-640
32-6,62785680,230
32-7,62789586,472
32-8,62793492,-448
32-9,62797398,-917
32-10,62801304,-86
32-11,62805210,494
32-12,62809116,-279
32-13,62813022,-1017
32-14,62816928,-365
32-15,62820834,552
32-16,62824740,144
32-17,62828646,-899
32-18,62832552,-722
32-19,62836458,273
32-20,62840364,212
32-21,62844270,-808
32-22,62848176,-800
32-23,62852082,320
32-24,62855988,691
32-25,62859894,-182
32-26,62863800,-699
32-27,62867706,64
32-28,62871612,664
32-29,62875518,-8
32-30,62879424,-652
32-31,62883330,-38
32-32,62887236,835
32-1,62891148,529
32-2,62895054,-472
32-3,62898960,-405
32-4,62902866,546
32-5,62906772,621
32-6,62910678,-378
32-7,62914584,-685
32-8,62918490,217
32-9,62922396,657
32-10,62926302,-176
32-11,62930208,-816
32-12,62934114,-189
32-13,62938020,495
32-14,62941926,-33
32-15,62945832,-879
32-16,62949738,-539
32-17,62953644,320
32-18,62957550,123
32-19,62961456,-817
32-20,62965362,-776
32-21,62969268,193
32-22,62973174,345
32-23,62977080,-670
32-24,62980986,-1056
32-25,62984892,-131
32-26,62988798,446
32-27,62992704,-316
32-28,62996610,-1067
32-29,63000516,-528
32-30,63004422,259
32-31,63008328,-129
32-32,63012234,-1007
32-1,63016145,-753
32-2,63020051,136
32-3,63023957,-1
32-4,63027863,-966
32-5,63031769,-1045
32-6,63035675,-115
32-7,63039581,196
32-8,63043487,-688
32-9,63047393,-1072
32-10,63051299,-77
32-11,63055205,628
32-12,63059111,-69
32-13,63063017,-803
32-14,63066923,-253
32-15,63070829,529
32-16,63074735,125
32-17,63078641,-750
32-18,63082547,-450
32-19,63086453,554
32-20,63090359,478
32-21,63094265,-609
32-22,63098171,-756
32-23,63102077,292
32-24,63105983,715
32-25,63109889,-147
32-26,63113795,-664
32-27,63117701,180
32-28,63121607,878
32-29,63125513,252
32-30,63129419,-452
32-31,63133325,81
32-32,63137231,908
32-1,63141143,589
32-2,63145049,-396
32-3,63148955,-379
32-4,63152861,495
32-5,63156767,593
32-6,63160673,-330
32-7,63164579,-610
32-8,63168485,262
32-9,63172391,645
32-10,63176297,-252
32-11,63180203,-862
32-12,63184109,-84
32-13,63188015,707
32-14,63191921,184
32-15,63195827,-643
32-16,63199733,-259
32-17,63203639,588
32-18,63207545,334
32-19,63211451,-675
32-20,63215357,-722
32-21,63219263,200
32-22,63223169,379
32-23,63227075,-573
32-24,63230981,-883
32-25,63234887,69
32-26,63238793,677
32-27,63242699,72
32-28,63246605,-583
32-29,63250511,38
32-30,63254417,1072
32-31,63258323,733
32-32,63262229,-276
32-1,63266110,36
32-2,63270016,1042
32-3,63273922,917
32-4,63277828,-115
32-5,63281734,-228
32-6,63285640,682
32-7,63289546,896
32-8,63293452,-15
32-9,63297358,-455
32-10,63301264,400
32-11,63305170,1105
32-12,63309076,450
32-13,63312982,-362
32-14,63316888,156
32-15,63320794,1030
32-16,63324700,656
32-17,63328606,-356
32-18,63332512,-230
32-19,63336418,666
32-20,63340324,618
32-21,63344230,-378
32-22,63348136,-589
32-23,63352042,368
32-24,63355948,875
32-25,63359854,81
32-26,63363760,-536
32-27,63367666,194
32-28,63371572,867
32-29,63375478,244
32-30,63379384,-436
32-31,63383290,145
32-32,63387196,995
32-1,63391108,658
32-2,63395014,-347
32-3,63398920,-270
32-4,63402826,688
32-5,63406732,743
32-6,63410638,-303
32-7,63414544,-668
32-8,63418450,215
32-9,63422356,658
32-10,63426262,-248
32-11,63430168,-948
32-12,63434074,-268
32-13,63437980,469
32-14,63441886,-65
32-15,63445792,-926
32-16,63449698,-527
32-17,63453604,439
32-18,63457510,261
32-19,63461416,-727
32-20,63465322,-670
32-21,63469228,365
32-22,63473134,546
32-23,63477040,-427
32-24,63480946,-774
32-25,63484852,100
32-26,63488758,663
32-27,63492664,-55
32-28,63496570,-847
32-29,63500476,-263
32-30,63504382,725
32-31,63508288,400
32-32,63512194,-565
32-1,63516105,-367
32-2,63520011,558
32-3,63523917,493
32-4,63527823,-506
32-5,63531729,-576
32-6,63535635,499
32-7,63539541,840
32-8,63543447,-60
32-9,63547353,-457
32-10,63551259,449
32-11,63555165,1147
32-12,63559071,462
32-13,63562977,-363
32-14,63566883,159
32-15,63570789,950
32-16,63574695,539
32-17,63578601,-404
32-18,63582507,-285
32-19,63586413,700
32-20,63590319,787
32-21,63594225,-305
32-22,63598131,-549
32-23,63602037,529
32-24,63605943,959
32-25,63609849,-12
32-26,63613755,-702
32-27,63617661,21
32-28,63621567,733
32-29,63625473,107
32-30,63629379,-663
32-31,63633285,-141
32-32,63637191,742
32-1,63641103,479
32-2,63645009,-540
32-3,63648915,-534
32-4,63652821,469
32-5,63656727,616
32-6,63660633,-417
32-7,63664539,-799
32-8,63668445,30
32-9,63672351,450
32-10,63676257,-355
32-11,63680163,-1047
32-12,63684069,-441
32-13,63687975,346
32-14,63691881,-190
32-15,63695787,-1174
32-16,63699693,-834
32-17,63703599,164
32-18,63707505,49
32-19,63711411,-939
32-20,63715317,-1003
32-21,63719223,-48
32-22,63723129,199
32-23,63727035,-719
32-24,63730941,-1044
32-25,63734847,-45
32-26,63738753,589
32-27,63742659,-96
32-28,63746565,-784
32-29,63750471,-308
32-30,63754377,453
32-31,63758283,157
32-32,63762189,-678
32-1,63766100,-395
32-2,63770006,555
32-3,63773912,412
32-4,63777818,-614
32-5,63781724,-720
32-6,63785630,238
32-7,63789536,628
32-8,63793442,-184
32-9,63797348,-720
32-10,63801254,58
32-11,63805160,802
32-12,63809066,143
32-13,63812972,-736
32-14,63816878,-204
32-15,63820784,705
32-16,63824690,358
32-17,63828596,-580
32-18,63832502,-422
32-19,63836408,496
32-20,63840314,483
32-21,63844220,-505
32-22,63848126,-697
32-23,63852032,294
32-24,63855938,756
32-25,63859844,-175
32-26,63863750,-935
32-27,63867656,-231
32-28,63871562,556
32-29,63875468,-93
32-30,63879374,-1034
32-31,63883280,-565
32-32,63887186,417
32-1,63891098,201
32-2,63895004,-829
32-3,63898910,-782
32-4,63902816,325
32-5,63906722,566
32-6,63910628,-348
32-7,63914534,-639
32-8,63918440,206
32-9,63922346,724
32-10,63926252,27
32-11,63930158,-684
32-12,63934064,-167
32-13,63937970,590
32-14,63941876,199
32-15,63945782,-709
32-16,63949688,-423
32-17,63953594,677
32-18,63957500,686
32-19,63961406,-328
32-20,63965312,-407
32-21,63969218,532
32-22,63973124,731
32-23,63977030,-236
32-24,63980936,-721
32-25,63984842,84
32-26,63988748,693
32-27,63992654,50
32-28,63996560,-679
32-29,64000466,-196
32-30,64004372,675
32-31,64008278,413
32-32,64012184,-511
32-1,64016096,-313
32-2,64020002,664
32-3,64023908,667
32-4,64027814,-300
32-5,64031720,-472
32-6,64035626,472
32-7,64039532,831
32-8,64043438,-55
32-9,64047344,-649
32-10,64051250,-16
32-11,64055156,556
32-12,64059062,-123
32-13,64062968,-930
32-14,64066874,-364
32-15,64070780,566
32-16,64074686,262
32-17,64078592,-684
32-18,64082498,-603
32-19,64086404,310
32-20,64090310,363
32-21,64094216,-686
32-22,64098122,-1026
32-23,64102028,-78
32-24,64105934,469
32-25,64109840,-351
32-26,64113746,-1055
32-27,64117652,-306
32-28,64121558,526
32-29,64125464,-74
32-30,64129370,-987
32-31,64133276,-608
32-32,64137182,330
32-1,64141093,254
32-2,64144999,-672
32-3,64148905,-749
32-4,64152811,210
32-5,64156717,511
32-6,64160623,-383
32-7,64164529,-763
32-8,64168435,118
32-9,64172341,666
32-10,64176247,-78
32-11,64180153,-745
32-12,64184059,-50
32-13,64187965,840
32-14,64191871,397
32-15,64195777,-528
32-16,64199683,-270
32-17,64203589,689
32-18,64207495,646
32-19,64211401,-443
32-20,64215307,-620
32-21,64219213,449
32-22,64223119,825
32-23,64227025,-122
32-24,64230931,-704
32-25,64234837,45
32-26,64238743,730
32-27,64242649,75
32-28,64246555,-704
32-29,64250461,27
32-30,64254367,1199
32-31,64258273,963
32-32,64262179,-55
32-1,64266060,59
32-2,64269966,1034
32-3,64273872,1103
32-4,64277778,89
32-5,64281684,-248
32-6,64285590,542
32-7,64289496,806
32-8,64293402,-166
32-9,64297308,-796
32-10,64301214,-55
32-11,64305120,647
32-12,64309026,56
32-13,64312932,-765
32-14,64316838,-358
32-15,64320744,534
32-16,64324650,342
32-17,64328556,-644
32-18,64332462,-661
32-19,64336368,314
32-20,64340274,502
32-21,64344180,-462
32-22,64348086,-750
32-23,64351992,213
32-24,64355898,721
32-25,64359804,-62
32-26,64363710,-687
32-27,64367616,-2
32-28,64371522,722
32-29,64375428,81
32-30,64379334,-883
32-31,64383240,-569
32-32,64387146,267
32-1,64391058,63
32-2,64394964,-843
32-3,64398870,-785
32-4,64402776,188
32-5,64406682,485
32-6,64410588,-316
32-7,64414494,-749
32-8,64418400,19
32-9,64422306,591
32-10,64426212,-136
32-11,64430118,-836
32-12,64434024,-247
32-13,64437930,473
32-14,64441836,-29
32-15,64445742,-983
32-16,64449648,-779
32-17,64453554,162
32-18,64457460,179
32-19,64461366,-727
32-20,64465272,-788
32-21,64469178,249
32-22,64473084,636
32-23,64476990,-204
32-24,64480896,-650
32-25,64484802,111
32-26,64488708,692
32-27,64492614,23
32-28,64496520,-836
32-29,64500426,-444
32-30,64504332,423
32-31,64508238,134
32-32,64512144,-826
32-1,64516056,-636
32-2,64519962,380
32-3,64523868,402
32-4,64527774,-603
32-5,64531680,-784
32-6,64535586,225
32-7,64539492,732
32-8,64543398,-23
32-9,64547304,-603
32-10,64551210,69
32-11,64555116,729
32-12,64559022,73
32-13,64562928,-846
32-14,64566834,-530
32-15,64570740,293
32-16,64574646,120
32-17,64578552,-823
32-18,64582458,-835
32-19,64586364,156
32-20,64590270,369
32-21,64594176,-516
32-22,64598082,-737
32-23,64601988,105
32-24,64605894,469
32-25,64609800,-233
32-26,64613706,-760
32-27,64617612,-94
32-28,64621518,671
32-29,64625424,80
32-30,64629330,-910
32-31,64633236,-557
32-32,64637142,404
32-1,64641053,267
32-2,64644959,-738
32-3,64648865,-810
32-4,64652771,210
32-5,64656677,558
32-6,64660583,-297
32-7,64664489,-709
32-8,64668395,179
32-9,64672301,892
32-10,64676207,255
32-11,64680113,-444
32-12,64684019,225
32-13,64687925,1091
32-14,64691831,643
32-15,64695737,-307
32-16,64699643,-137
32-17,64703549,771
32-18,64707455,758
32-19,64711361,-326
32-20,64715267,-658
32-21,64719173,248
32-22,64723079,649
32-23,64726985,-208
32-24,64730891,-730
32-25,64734797,13
32-26,64738703,680
32-27,64742609,162
32-28,64746515,-626
32-29,64750421,-213
32-30,64754327,768
32-31,64758233,560
32-32,64762139,-405
32-1,64766051,-219
32-2,64769957,812
32-3,64773863,904
32-4,64777769,-50
32-5,64781675,-338
32-6,64785581,518
32-7,64789487,945
32-8,64793393,116
32-9,64797299,-545
32-10,64801205,123
32-11,64805111,887
32-12,64809017,349
32-13,64812923,-576
32-14,64816829,-252
32-15,64820735,653
32-16,64824641,475
32-17,64828547,-432
32-18,64832453,-325
32-19,64836359,642
32-20,64840265,746
32-21,64844171,-269
32-22,64848077,-711
32-23,64851983,97
32-24,64855889,658
32-25,64859795,-49
32-26,64863701,-710
32-27,64867607,-41
32-28,64871513,737
32-29,64875419,111
32-30,64879325,-952
32-31,64883231,-670
32-32,64887137,304
32-1,64891049,175
32-2,64894955,-861
32-3,64898861,-889
32-4,64902767,229
32-5,64906673,617
32-6,64910579,-292
32-7,64914485,-773
32-8,64918391,91
32-9,64922297,744
32-10,64926203,-4
32-11,64930109,-825
32-12,64934015,-288
32-13,64937921,587
32-14,64941827,294
32-15,64945733,-515
32-16,64949639,-228
32-17,64953545,735
32-18,64957451,758
32-19,64961357,-222
32-20,64965263,-497
32-21,64969169,400
32-22,64973075,781
32-23,64976981,-144
32-24,64980887,-782
32-25,64984793,-110
32-26,64988699,579
32-27,64992605,65
32-28,64996511,-690
32-29,65000417,-164
32-30,65004323,832
32-31,65008229,589
32-32,65012135,-432
32-1,65016046,-427
32-2,65019952,475
32-3,65023858,552
32-4,65027764,-438
32-5,65031670,-733
32-6,65035576,202
32-7,65039482,690
32-8,65043388,-140
32-9,65047294,-769
32-10,65051200,-75
32-11,65055106,637
32-12,65059012,133
32-13,65062918,-659
32-14,65066824,-306
32-15,65070730,545
32-16,65074636,340
32-17,65078542,-649
32-18,65082448,-694
32-19,65086354,254
32-20,65090260,493
32-21,65094166,-421
32-22,65098072,-844
32-23,65101978,-42
32-24,65105884,515
32-25,65109790,-220
32-26,65113696,-932
32-27,65117602,-311
32-28,65121508,408
32-29,65125414,-49
32-30,65129320,-756
32-31,65133226,-413
32-32,65137132,460
32-1,65141044,379
32-2,65144950,-656
32-3,65148856,-846
32-4,65152762,41
32-5,65156668,300
32-6,65160574,-553
32-7,65164480,-988
32-8,65168386,-190
32-9,65172292,486
32-10,65176198,-82
32-11,65180104,-798
32-12,65184010,-304
32-13,65187916,519
32-14,65191822,187
32-15,65195728,-739
32-16,65199634,-563
32-17,65203540,417
32-18,65207446,492
32-19,65211352,-451
32-20,65215258,-686
32-21,65219164,251
32-22,65223070,731
32-23,65226976,-54
32-24,65230882,-552
32-25,65234788,240
32-26,65238694,920
32-27,65242600,369
32-28,65246506,-416
32-29,65250412,-105
32-30,65254318,638
32-31,65258224,400
32-32,65262130,-468
32-1,65266011,-376
32-2,65269917,538
32-3,65273823,628
32-4,65277729,-336
32-5,65281635,-629
32-6,65285541,254
32-7,65289447,679
32-8,65293353,-150
32-9,65297259,-776
32-10,65301165,-109
32-11,65305071,618
32-12,65308977,77
32-13,65312883,-850
32-14,65316789,-558
32-15,65320695,393
32-16,65324601,326
32-17,65328507,-666
32-18,65332413,-772
32-19,65336319,193
32-20,65340225,424
32-21,65344131,-484
32-22,65348037,-806
32-23,65351943,39
32-24,65355849,603
32-25,65359755,-23
32-26,65363661,-721
32-27,65367567,-186
32-28,65371473,636
32-29,65375379,192
32-30,65379285,-756
32-31,65383191,-438
32-32,65387097,575
32-1,65391009,531
32-2,65394915,-408
32-3,65398821,-486
32-4,65402727,417
32-5,65406633,708
32-6,65410539,-125
32-7,65414445,-600
32-8,65418351,224
32-9,65422257,943
32-10,65426163,296
32-11,65430069,-516
32-12,65433975,-34
32-13,65437881,790
32-14,65441787,445
32-15,65445693,-481
32-16,65449599,-292
32-17,65453505,702
32-18,65457411,742
32-19,65461317,-264
32-20,65465223,-486
32-21,65469129,438
32-22,65473035,794
32-23,65476941,-101
32-24,65480847,-697
32-25,65484753,-12
32-26,65488659,623
32-27,65492565,51
32-28,65496471,-738
32-29,65500377,-396
32-30,65504283,403
32-31,65508189,199
32-32,65512095,-779
32-1,65516006,-878
32-2,65519912,-5
32-3,65523818,188
32-4,65527724,-695
32-5,65531630,-991
32-6,65535536,-122
32-7,65539442,352
32-8,65543348,-428
32-9,65547254,-1067
32-10,65551160,-421
32-11,65555066,314
32-12,65558972,-156
32-13,65562878,-1006
32-14,65566784,-718
32-15,65570690,209
32-16,65574596,180
32-17,65578502,-675
32-18,65582408,-651
32-19,65586314,337
32-20,65590220,610
32-21,65594126,-225
32-22,65598032,-565
32-23,65601938,218
32-24,65605844,758
32-25,65609750,79
32-26,65613656,-680
32-27,65617562,-69
32-28,65621468,817
32-29,65625374,264
32-30,65629280,-822
32-31,65633186,-584
32-32,65637092,396
32-1,65641004,334
32-2,65644910,-683
32-3,65648816,-842
32-4,65652722,195
32-5,65656628,729
32-6,65660534,-56
32-7,65664440,-632
32-8,65668346,87
32-9,65672252,737
32-10,65676158,130
32-11,65680064,-631
32-12,65683970,-169
32-13,65687876,732
32-14,65691782,577
32-15,65695688,-259
32-16,65699594,-107
32-17,65703500,874
32-18,65707406,964
32-19,65711312,-49
32-20,65715218,-434
32-21,65719124,373
32-22,65723030,799
32-23,65726936,-47
32-24,65730842,-647
32-25,65734748,99
32-26,65738654,842
32-27,65742560,260
32-28,65746466,-768
32-29,65750372,-321
32-30,65754278,1008
32-31,65758184,930
32-32,65762090,-190
32-1,65766001,-193
32-2,65769907,733
32-3,65773813,807
32-4,65777719,-216
32-5,65781625,-607
32-6,65785531,232
32-7,65789437,748
32-8,65793343,36
32-9,65797249,-631
32-10,65801155,11
32-11,65805061,819
32-12,65808967,285
32-13,65812873,-648
32-14,65816779,-311
32-15,65820685,588
32-16,65824591,429
32-17,65828497,-551
32-18,65832403,-651
32-19,65836309,264
32-20,65840215,493
32-21,65844121,-460
32-22,65848027,-929
32-23,65851933,-156
32-24,65855839,415
32-25,65859745,-245
32-26,65863651,-980
32-27,65867557,-405
32-28,65871463,439
32-29,65875369,-112
32-30,65879275,-1225
32-31,65883181,-1006
32-32,65887087,30
32-1,65890999,44
32-2,65894905,-966
32-3,65898811,-1145
32-4,65902717,-131
32-5,65906623,365
32-6,65910529,-331
32-7,65914435,-817
32-8,65918341,-139
32-9,65922247,580
32-10,65926153,83
32-11,65930059,-676
32-12,65933965,-206
32-13,65937871,663
32-14,65941777,407
32-15,65945683,-575
32-16,65949589,-580
32-17,65953495,327
32-18,65957401,369
32-19,65961307,-673
32-20,65965213,-968
32-21,65969119,-30
32-22,65973025,487
32-23,65976931,-264
32-24,65980837,-838
32-25,65984743,-122
32-26,65988649,614
32-27,65992555,99
32-28,65996461,-770
32-29,66000367,-481
32-30,66004273,455
32-31,66008179,434
32-32,66012085,-440
32-1,66015997,-480
32-2,66019903,388
32-3,66023809,556
32-4,66027715,-275
32-5,66031621,-574
32-6,66035527,153
32-7,66039433,592
32-8,66043339,-40
32-9,66047245,-648
32-10,66051151,-64
32-11,66055057,692
32-12,66058963,249
32-13,66062869,-556
32-14,66066775,-286
32-15,66070681,476
32-16,66074587,359
32-17,66078493,-475
32-18,66082399,-536
32-19,66086305,308
32-20,66090211,602
32-21,66094117,-85
32-22,66098023,-468
32-23,66101929,100
32-24,66105835,564
32-25,66109741,-38
32-26,66113647,-852
32-27,66117553,-456
32-28,66121459,353
32-29,66125365,-44
32-30,66129271,-936
32-31,66133177,-682
32-32,66137083,197
32-1,66140994,214
32-2,66144900,-578
32-3,66148806,-704
32-4,66152712,101
32-5,66156618,526
32-6,66160524,-69
32-7,66164430,-524
32-8,66168336,198
32-9,66172242,968
32-10,66176148,448
32-11,66180054,-401
32-12,66183960,-15
32-13,66187866,883
32-14,66191772,623
32-15,66195678,-412
32-16,66199584,-363
32-17,66203490,671
32-18,66207396,865
32-19,66211302,-82
32-20,66215208,-401
32-21,66219114,433
32-22,66223020,858
32-23,66226926,70
32-24,66230832,-582
32-25,66234738,39
32-26,66238644,748
32-27,66242550,238
32-28,66246456,-644
32-29,66250362,-384
32-30,66254268,517
32-31,66258174,397
32-32,66262080,-569
32-1,66265962,-544
32-2,66269868,451
32-3,66273774,695
32-4,66277680,-129
32-5,66281586,-489
32-6,66285492,261
32-7,66289398,786
32-8,66293304,103
32-9,66297210,-644
32-10,66301116,-99
32-11,66305022,792
32-12,66308928,495
32-13,66312834,-384
32-14,66316740,-128
32-15,66320646,887
32-16,66324552,908
32-17,66328458,-53
32-18,66332364,-211
32-19,66336270,731
32-20,66340176,1087
32-21,66344082,180
32-22,66347988,-354
32-23,66351894,400
32-24,66355800,1009
32-25,66359706,371
32-26,66363612,-461
32-27,66367518,24
32-28,66371424,954
32-29,66375330,466
32-30,66379236,-686
32-31,66383142,-504
32-32,66387048,483
32-1,66390959,507
32-2,66394865,-460
32-3,66398771,-681
32-4,66402677,250
32-5,66406583,649
32-6,66410489,-209
32-7,66414395,-824
32-8,66418301,-114
32-9,66422207,629
32-10,66426113,55
32-11,66430019,-776
32-12,66433925,-324
32-13,66437831,576
32-14,66441737,336
32-15,66445643,-629
32-16,66449549,-576
32-17,66453455,413
32-18,66457361,601
32-19,66461267,-356
32-20,66465173,-751
32-21,66469079,91
32-22,66472985,637
32-23,66476891,-103
32-24,66480797,-782
32-25,66484703,-146
32-26,66488609,621
32-27,66492515,138
32-28,66496421,-668
32-29,66500327,-242
32-30,66504233,716
32-31,66508139,619
32-32,66512045,-334
32-1,66515957,-472
32-2,66519863,402
32-3,66523769,609
32-4,66527675,-358
32-5,66531581,-820
32-6,66535487,-49
32-7,66539393,469
32-8,66543299,-272
32-9,66547205,-1040
32-10,66551111,-492
32-11,66555017,326
32-12,66558923,-59
32-13,66562829,-971
32-14,66566735,-795
32-15,66570641,171
32-16,66574547,256
32-17,66578453,-656
32-18,66582359,-769
32-19,66586265,250
32-20,66590171,686
32-21,66594077,-104
32-22,66597983,-601
32-23,66601889,162
32-24,66605795,876
32-25,66609701,312
32-26,66613607,-482
32-27,66617513,-23
32-28,66621419,820
32-29,66625325,454
32-30,66629231,-594
32-31,66633137,-547
32-32,66637043,412
32-1,66640954,506
32-2,66644860,-459
32-3,66648766,-712
32-4,66652672,190
32-5,66656578,694
32-6,66660484,-39
32-7,66664390,-680
32-8,66668296,7
32-9,66672202,782
32-10,66676108,163
32-11,66680014,-791
32-12,66683920,-354
32-13,66687826,669
32-14,66691732,522
32-15,66695638,-460
32-16,66699544,-422
32-17,66703450,647
32-18,66707356,865
32-19,66711262,-142
32-20,66715168,-521
32-21,66719074,293
32-22,66722980,702
32-23,66726886,-128
32-24,66730792,-835
32-25,66734698,-232
32-26,66738604,535
32-27,66742510,131
32-28,66746416,-713
32-29,66750322,-434
32-30,66754228,596
32-31,66758134,591
32-32,66762040,-440
32-1,66765952,-536
32-2,66769858,464
32-3,66773764,738
32-4,66777670,-216
32-5,66781576,-746
32-6,66785482,-14
32-7,66789388,560
32-8,66793294,-71
32-9,66797200,-781
32-10,66801106,-270
32-11,66805012,571
32-12,66808918,183
32-13,66812824,-826
32-14,66816730,-585
32-15,66820636,430
32-16,66824542,373
32-17,66828448,-635
32-18,66832354,-821
32-19,66836260,136
32-20,66840166,568
32-21,66844072,-297
32-22,66847978,-831
32-23,66851884,16
32-24,66855790,772
32-25,66859696,148
32-26,66863602,-740
32-27,66867508,-299
32-28,66871414,572
32-29,66875320,172
32-30,66879226,-897
32-31,66883132,-790
32-32,66887038,171
32-1,66890950,255
32-2,66894856,-625
32-3,66898762,-870
32-4,66902668,-10
32-5,66906574,530
32-6,66910480,-168
32-7,66914386,-793
32-8,66918292,-117
32-9,66922198,628
32-10,66926104,43
32-11,66930010,-911
32-12,66933916,-536
32-13,66937822,490
32-14,66941728,329
32-15,66945634,-743
32-16,66949540,-756
32-17,66953446,304
32-18,66957352,551
32-19,66961258,-374
32-20,66965164,-739
32-21,66969070,95
32-22,66972976,649
32-23,66976882,-103
32-24,66980788,-867
32-25,66984694,-296
32-26,66988600,460
32-27,66992506,41
32-28,66996412,-788
32-29,67000318,-526
32-30,67004224,490
32-31,67008130,545
32-32,67012036,-452
32-1,67015947,-564
32-2,67019853,456
32-3,67023759,788
32-4,67027665,-97
32-5,67031571,-545
32-6,67035477,302
32-7,67039383,928
32-8,67043289,197
32-9,67047195,-537
32-10,67051101,103
32-11,67055007,956
32-12,67058913,560
32-13,67062819,-350
32-14,67066725,-137
32-15,67070631,861
32-16,67074537,940
32-17,67078443,-22
32-18,67082349,-198
32-19,67086255,799
32-20,67090161,1159
32-21,67094067,236
32-22,67097973,-324
32-23,67101879,399
32-24,67105785,1027
32-25,67109691,305
32-26,67113597,-550
32-27,67117503,1
32-28,67121409,828
32-29,67125315,550
32-30,67129221,-159
32-31,67133127,3
32-32,67137033,882
32-1,67140945,962
32-2,67144851,-131
32-3,67148757,-528
32-4,67152663,431
32-5,67156569,944
32-6,67160475,112
32-7,67164381,-528
32-8,67168287,180
32-9,67172193,944
32-10,67176099,407
32-11,67180005,-487
32-12,67183911,-140
32-13,67187817,766
32-14,67191723,623
32-15,67195629,-285
32-16,67199535,-317
32-17,67203441,531
32-18,67207347,655
32-19,67211253,-294
32-20,67215159,-657
32-21,67219065,227
32-22,67222971,798
32-23,67226877,33
32-24,67230783,-723
32-25,67234689,-140
32-26,67238595,658
32-27,67242501,208
32-28,67246407,-781
32-29,67250313,-635
32-30,67254219,277
32-31,67258125,244
32-32,67262031,-747
32-1,67265912,-896
32-2,67269818,96
32-3,67273724,459
32-4,67277630,-430
32-5,67281536,-869
32-6,67285442,-51
32-7,67289348,540
32-8,67293254,-163
32-9,67297160,-975
32-10,67301066,-445
32-11,67304972,439
32-12,67308878,86
32-13,67312784,-873
32-14,67316690,-754
32-15,67320596,164
32-16,67324502,208
32-17,67328408,-749
32-18,67332314,-930
32-19,67336220,86
32-20,67340126,552
32-21,67344032,-348
32-22,67347938,-990
32-23,67351844,-293
32-24,67355750,416
32-25,67359656,-94
32-26,67363562,-920
32-27,67367468,-490
32-28,67371374,428
32-29,67375280,33
32-30,67379186,-1065
32-31,67383092,-976
32-32,67386998,-15
32-1,67390910,99
32-2,67394816,-836
32-3,67398722,-1111
32-4,67402628,-157
32-5,67406534,407
32-6,67410440,-335
32-7,67414346,-1004
32-8,67418252,-380
32-9,67422158,393
32-10,67426064,-49
32-11,67429970,-878
32-12,67433876,-509
32-13,67437782,427
32-14,67441688,276
32-15,67445594,-623
32-16,67449500,-591
32-17,67453406,353
32-18,67457312,623
32-19,67461218,-272
32-20,67465124,-682
32-21,67469030,205
32-22,67472936,797
32-23,67476842,69
32-24,67480748,-659
32-25,67484654,-66
32-26,67488560,802
32-27,67492466,437
32-28,67496372,-497
32-29,67500278,-298
32-30,67504184,666
32-31,67508090,671
32-32,67511996,-304
32-1,67515907,-469
32-2,67519813,472
32-3,67523719,814
32-4,67527625,-110
32-5,67531531,-727
32-6,67535437,-7
32-7,67539343,696
32-8,67543249,94
32-9,67547155,-688
32-10,67551061,-138
32-11,67554967,770
32-12,67558873,421
32-13,67562779,-612
32-14,67566685,-523
32-15,67570591,430
32-16,67574497,478
32-17,67578403,-435
32-18,67582309,-641
32-19,67586215,245
32-20,67590121,751
32-21,67594027,1
32-22,67597933,-636
32-23,67601839,37
32-24,67605745,808
32-25,67609651,307
32-26,67613557,-582
32-27,67617463,-231
32-28,67621369,647
32-29,67625275,453
32-30,67629181,-338
32-31,67633087,-230
32-32,67636993,614
32-1,67640905,741
32-2,67644811,-232
32-3,67648717,-697
32-4,67652623,119
32-5,67656529,627
32-6,67660435,-182
32-7,67664341,-865
32-8,67668247,-228
32-9,67672153,517
32-10,67676059,51
32-11,67679965,-799
32-12,67683871,-462
32-13,67687777,491
32-14,67691683,403
32-15,67695589,-502
32-16,67699495,-517
32-17,67703401,389
32-18,67707307,666
32-19,67711213,-93
32-20,67715119,-474
32-21,67719025,292
32-22,67722931,902
32-23,67726837,228
32-24,67730743,-589
32-25,67734649,-105
32-26,67738555,744
32-27,67742461,405
32-28,67746367,-554
32-29,67750273,-415
32-30,67754179,512
32-31,67758085,511
32-32,67761991,-466
32-1,67765903,-682
32-2,67769809,198
32-3,67773715,572
32-4,67777621,-335
32-5,67781527,-1020
32-6,67785433,-330
32-7,67789339,328
32-8,67793245,-305
32-9,67797151,-1096
32-10,67801057,-628
32-11,67804963,215
32-12,67808869,-59
32-13,67812775,-875
32-14,67816681,-705
32-15,67820587,156
32-16,67824493,291
32-17,67828399,-455
32-18,67832305,-681
32-19,67836211,16
32-20,67840117,388
32-21,67844023,-150
32-22,67847929,-621
32-23,67851835,-193
32-24,67855741,375
32-25,67859647,46
32-26,67863553,-638
32-27,67867459,-437
32-28,67871365,288
32-29,67875271,299
32-30,67879177,-329
32-31,67883083,-291
32-32,67886989,552
32-1,67890900,831
32-2,67894806,102
32-3,67898712,-333
32-4,67902618,198
32-5,67906524,621
32-6,67910430,63
32-7,67914336,-561
32-8,67918242,-145
32-9,67922148,533
32-10,67926054,258
32-11,67929960,-499
32-12,67933866,-446
32-13,67937772,248
32-14,67941678,344
32-15,67945584,-356
32-16,67949490,-553
32-17,67953396,167
32-18,67957302,498
32-19,67961208,-141
32-20,67965114,-516
32-21,67969020,102
32-22,67972926,690
32-23,67976832,260
32-24,67980738,-427
32-25,67984644,-170
32-26,67988550,466
32-27,67992456,269
32-28,67996362,-501
32-29,68000268,-402
32-30,68004174,584
32-31,68008080,809
32-32,68011986,-85
32-1,68015898,-408
32-2,68019804,288
32-3,68023710,565
32-4,68027616,-177
32-5,68031522,-718
32-6,68035428,-170
32-7,68039334,439
32-8,68043240,-11
32-9,68047146,-660
32-10,68051052,-249
32-11,68054958,529
32-12,68058864,356
32-13,68062770,-471
32-14,68066676,-489
32-15,68070582,332
32-16,68074488,529
32-17,68078394,-285
32-18,68082300,-579
32-19,68086206,261
32-20,68090112,740
32-21,68094018,8
32-22,68097924,-667
32-23,68101830,-200
32-24,68105736,412
32-25,68109642,-1
32-26,68113548,-739
32-27,68117454,-515
32-28,68121360,173
32-29,68125266,-33
32-30,68129172,-919
32-31,68133078,-981
32-32,68136984,-167
32-1,68140895,122
32-2,68144801,-515
32-3,68148707,-828
32-4,68152613,-225
32-5,68156519,209
32-6,68160425,-331
32-7,68164331,-951
32-8,68168237,-531
32-9,68172143,214
32-10,68176049,19
32-11,68179955,-656
32-12,68183861,-452
32-13,68187767,366
32-14,68191673,414
32-15,68195579,-392
32-16,68199485,-570
32-17,68203391,184
32-18,68207297,453
32-19,68211203,-292
32-20,68215109,-740
32-21,68219015,-131
32-22,68222921,429
32-23,68226827,-51
32-24,68230733,-688
32-25,68234639,-314
32-26,68238545,394
32-27,68242451,212
32-28,68246357,-631
32-29,68250263,-630
32-30,68254169,344
32-31,68258075,624
32-32,68261981,-144
32-1,68265893,-368
32-2,68269799,343
32-3,68273705,692
32-4,68277611,45
32-5,68281517,-499
32-6,68285423,-8
32-7,68289329,581
32-8,68293235,173
32-9,68297141,-528
32-10,68301047,-244
32-11,68304953,497
32-12,68308859,368
32-13,68312765,-403
32-14,68316671,-389
32-15,68320577,385
32-16,68324483,541
32-17,68328389,-191
32-18,68332295,-480
32-19,68336201,209
32-20,68340107,654
32-21,68344013,43
32-22,68347919,-541
32-23,68351825,-77
32-24,68355731,562
32-25,68359637,241
32-26,68363543,-472
32-27,68367449,-271
32-28,68371355,426
32-29,68375261,344
32-30,68379167,-348
32-31,68383073,-387
32-32,68386979,336
32-1,68390860,583
32-2,68394766,-142
32-3,68398672,-557
32-4,68402578,82
32-5,68406484,576
32-6,68410390,-9
32-7,68414296,-649
32-8,68418202,-210
32-9,68422108,474
32-10,68426014,189
32-11,68429920,-561
32-12,68433826,-430
32-13,68437732,344
32-14,68441638,415
32-15,68445544,-334
32-16,68449450,-511
32-17,68453356,198
32-18,68457262,517
32-19,68461168,-126
32-20,68465074,-624
32-21,68468980,-69
32-22,68472886,468
32-23,68476792,28
32-24,68480698,-474
32-25,68484604,-279
32-26,68488510,101
32-27,68492416,196
32-28,68496322,-197
32-29,68500228,-487
32-30,68504134,-40
32-31,68508040,331
32-32,68511946,-30
32-1,68515858,-296
32-2,68519764,-57
32-3,68523670,157
32-4,68527576,29
32-5,68531482,-235
32-6,68535388,-169
32-7,68539294,101
32-8,68543200,43
32-9,68547106,-258
32-10,68551012,-269
32-11,68554918,-6
32-12,68558824,18
32-13,68562730,-284
32-14,68566636,-395
32-15,68570542,-128
32-16,68574448,47
32-17,68578354,-150
32-18,68582260,-348
32-19,68586166,-198
32-20,68590072,37
32-21,68593978,-59
32-22,68597884,-313
32-23,68601790,-237
32-24,68605696,95
32-25,68609602,125
32-26,68613508,-177
32-27,68617414,-204
32-28,68621320,37
32-29,68625226,136
32-30,68629132,88
32-31,68633038,84
32-32,68636944,283
32-1,68640855,473
32-2,68644761,254
32-3,68648667,-30
32-4,68652573,104
32-5,68656479,354
32-6,68660385,236
32-7,68664291,-87
32-8,68668197,-62
32-9,68672103,239
32-10,68676009,263
32-11,68679915,-24
32-12,68683821,-105
32-13,68687727,134
32-14,68691633,251
32-15,68695539,12
32-16,68699445,-179
32-17,68703351,33
32-18,68707257,278
32-19,68711163,106
32-20,68715069,-190
32-21,68718975,-113
32-22,68722881,133
32-23,68726787,57
32-24,68730693,-219
32-25,68734599,-192
32-26,68738505,94
32-27,68742411,142
32-28,68746317,-179
32-29,68750223,-271
32-30,68754129,133
32-31,68758035,398
32-32,68761941,174
32-1,68765853,-52
32-2,68769759,102
32-3,68773665,337
32-4,68777571,202
32-5,68781477,-101
32-6,68785383,-36
32-7,68789289,255
32-8,68793195,218
32-9,68797101,-105
32-10,68801007,-138
32-11,68804913,144
32-12,68808819,220
32-13,68812725,-61
32-14,68816631,-207
32-15,68820537,36
32-16,68824443,214
32-17,68828349,18
32-18,68832255,-193
32-19,68836161,-58
32-20,68840067,197
32-21,68843973,118
32-22,68847879,-182
32-23,68851785,-170
32-24,68855691,129
32-25,68859597,164
32-26,68863503,-130
32-27,68867409,-167
32-28,68871315,63
32-29,68875221,158
32-30,68879127,116
32-31,68883033,104
32-32,68886939,258
32-1,68890851,431
32-2,68894757,239
32-3,68898663,-56
32-4,68902569,37
32-5,68906475,278
32-6,68910381,183
32-7,68914287,-134
32-8,68918193,-135
32-9,68922099,157
32-10,68926005,200
32-11,68929911,-107
32-12,68933817,-195
32-13,68937723,104
32-14,68941629,253
32-15,68945535,-1
32-16,68949441,-223
32-17,68953347,-75
32-18,68957253,163
32-19,68961159,48
32-20,68965065,-231
32-21,68968971,-161
32-22,68972877,105
32-23,68976783,36
32-24,68980689,-272
32-25,68984595,-293
32-26,68988501,-44
32-27,68992407,34
32-28,68996313,-239
32-29,69000219,-432
32-30,69004125,-190
32-31,69008031,48
32-32,69011937,-126
32-1,69015848,-300
32-2,69019754,-117
32-3,69023660,112
32-4,69027566,-13
32-5,69031472,-304
32-6,69035378,-265
32-7,69039284,4
32-8,69043190,-16
32-9,69047096,-322
32-10,69051002,-357
32-11,69054908,-45
32-12,69058814,87
32-13,69062720,-166
32-14,69066626,-333
32-15,69070532,-114
32-16,69074438,111
32-17,69078344,-46
32-18,69082250,-258
32-19,69086156,-110
32-20,69090062,126
32-21,69093968,6
32-22,69097874,-297
32-23,69101780,-273
32-24,69105686,7
32-25,69109592,26
32-26,69113498,-271
32-27,69117404,-318
32-28,69121310,-20
32-29,69125216,30
32-30,69129122,-283
32-31,69133028,-406
32-32,69136934,-136
32-1,69140846,116
32-2,69144752,-22
32-3,69148658,-264
32-4,69152564,-131
32-5,69156470,182
32-6,69160376,147
32-7,69164282,-171
32-8,69168188,-194
32-9,69172094,92
32-10,69176000,136
32-11,69179906,-165
32-12,69183812,-277
32-13,69187718,2
32-14,69191624,177
32-15,69195530,-77
32-16,69199436,-306
32-17,69203342,-114
32-18,69207248,133
32-19,69211154,6
32-20,69215060,-267
32-21,69218966,-196
32-22,69222872,98
32-23,69226778,70
32-24,69230684,-243
32-25,69234590,-260
32-26,69238496,27
32-27,69242402,122
32-28,69246308,-169
32-29,69250214,-398
32-30,69254120,-182
32-31,69258026,63
32-32,69261932,-129
32-1,69265844,-376
32-2,69269750,-211
32-3,69273656,78
32-4,69277562,-17
32-5,69281468,-316
32-6,69285374,-259
32-7,69289280,31
32-8,69293186,4
32-9,69297092,-307
32-10,69300998,-345
32-11,69304904,-56
32-12,69308810,54
32-13,69312716,-195
32-14,69316622,-364
32-15,69320528,-169
32-16,69324434,18
32-17,69328340,-172
32-18,69332246,-398
32-19,69336152,-220
32-20,69340058,70
32-21,69343964,-31
32-22,69347870,-327
32-23,69351776,-284
32-24,69355682,9
32-25,69359588,41
32-26,69363494,-260
32-27,69367400,-316
32-28,69371306,-17
32-29,69375212,41
32-30,69379118,-246
32-31,69383024,-333
32-32,69386930,-66
32-1,69390811,140
32-2,69394717,-34
32-3,69398623,-298
32-4,69402529,-194
32-5,69406435,91
32-6,69410341,60
32-7,69414247,-204
32-8,69418153,-178
32-9,69422059,122
32-10,69425965,192
32-11,69429871,-81
32-12,69433777,-179
32-13,69437683,98
32-14,69441589,268
32-15,69445495,33
32-16,69449401,-165
32-17,69453307,46
32-18,69457213,307
32-19,69461119,178
32-20,69465025,-111
32-21,69468931,-38
32-22,69472837,264
32-23,69476743,237
32-24,69480649,-73
32-25,69484555,-96
32-26,69488461,203
32-27,69492367,307
32-28,69496273,35
32-29,69500179,-136
32-30,69504085,106
32-31,69507991,348
32-32,69511897,182
32-1,69515808,-53
32-2,69519714,82
32-3,69523620,320
32-4,69527526,190
32-5,69531432,-125
32-6,69535338,-83
32-7,69539244,217
32-8,69543150,225
32-9,69547056,-60
32-10,69550962,-109
32-11,69554868,163
32-12,69558774,265
32-13,69562680,-6
32-14,69566586,-189
32-15,69570492,6
32-16,69574398,209
32-17,69578304,49
32-18,69582210,-199
32-19,69586116,-73
32-20,69590022,202
32-21,69593928,114
32-22,69597834,-196
32-23,69601740,-180
32-24,69605646,130
32-25,69609552,168
32-26,69613458,-178
32-27,69617364,-273
32-28,69621270,2
32-29,69625176,29
32-30,69629082,-287
32-31,69632988,-410
32-32,69636894,-156
32-1,69640806,78
32-2,69644712,-79
32-3,69648618,-331
32-4,69652524,-193
32-5,69656430,108
32-6,69660336,79
32-7,69664242,-179
32-8,69668148,-155
32-9,69672054,125
32-10,69675960,165
32-11,69679866,-122
32-12,69683772,-227
32-13,69687678,30
32-14,69691584,182
32-15,69695490,-65
32-16,69699396,-305
32-17,69703302,-142
32-18,69707208,124
32-19,69711114,9
32-20,69715020,-264
32-21,69718926,-172
32-22,69722832,114
32-23,69726738,89
32-24,69730644,-204
32-25,69734550,-242
32-26,69738456,37
32-27,69742362,154
32-28,69746268,-126
32-29,69750174,-356
32-30,69754080,-134
32-31,69757986,139
32-32,69761892,-34
32-1,69765804,-264
32-2,69769710,-91
32-3,69773616,161
32-4,69777522,60
32-5,69781428,-195
32-6,69785334,-119
32-7,69789240,213
32-8,69793146,278
32-9,69797052,-17
32-10,69800958,-93
32-11,69804864,219
32-12,69808770,343
32-13,69812676,51
32-14,69816582,-126
32-15,69820488,84
32-16,69824394,286
32-17,69828300,114
32-18,69832206,-120
32-19,69836112,14
32-20,69840018,266
32-21,69843924,184
32-22,69847830,-68
32-23,69851736,-9
32-24,69855642,296
32-25,69859548,326
32-26,69863454,11
32-27,69867360,-82
32-28,69871266,107
32-29,69875172,152
32-30,69879078,1
32-31,69882984,-79
32-32,69886890,118
32-1,69890801,364
32-2,69894707,215
32-3,69898613,-98
32-4,69902519,-24
32-5,69906425,254
32-6,69910331,186
32-7,69914237,-147
32-8,69918143,-172
32-9,69922049,115
32-10,69925955,183
32-11,69929861,-117
32-12,69933767,-254
32-13,69937673,20
32-14,69941579,203
32-15,69945485,-30
32-16,69949391,-232
32-17,69953297,-17
32-18,69957203,261
32-19,69961109,138
32-20,69965015,-160
32-21,69968921,-97
32-22,69972827,200
32-23,69976733,197
32-24,69980639,-77
32-25,69984545,-92
32-26,69988451,181
32-27,69992357,292
32-28,69996263,33
32-29,70000169,-227
32-30,70004075,-62
32-31,70007981,233
32-32,70011887,132
32-1,70015799,-116
32-2,70019705,-15
32-3,70023611,244
32-4,70027517,172
32-5,70031423,-122
32-6,70035329,-109
32-7,70039235,171
32-8,70043141,193
32-9,70047047,-89
32-10,70050953,-158
32-11,70054859,78
32-12,70058765,199
32-13,70062671,-9
32-14,70066577,-211
32-15,70070483,-51
32-16,70074389,185
32-17,70078295,74
32-18,70082201,-165
32-19,70086107,-88
32-20,70090013,141
32-21,70093919,106
32-22,70097825,-104
32-23,70101731,-141
32-24,70105637,57
32-25,70109543,180
32-26,70113449,-87
32-27,70117355,-259
32-28,70121261,-10
32-29,70125167,27
32-30,70129073,-200
32-31,70132979,-173
32-32,70136885,29
32-1,70140797,155
32-2,70144703,119
32-3,70148609,9
32-4,70152515,53
32-5,70156421,153
32-6,70160327,87
32-7,70164233,-47
32-8,70168139,-25
32-9,70172045,90
32-10,70175951,88
32-11,70179857,-31
32-12,70183763,-58
32-13,70187669,67
32-14,70191575,112
32-15,70195481,-42
32-16,70199387,-139
32-17,70203293,-48
32-18,70207199,16
32-19,70211105,-55
32-20,70215011,-141
32-21,70218917,-127
32-22,70222823,-32
32-23,70226729,-31
32-24,70230635,-135
32-25,70234541,-153
32-26,70238447,-46
32-27,70242353,-6
32-28,70246259,-174
32-29,70250165,-111
32-30,70254071,365
32-31,70257977,616
32-32,70261883,468
32-1,70265794,332
32-2,70269700,331
32-3,70273606,365
32-4,70277512,291
32-5,70281418,143
32-6,70285324,116
32-7,70289230,194
32-8,70293136,178
32-9,70297042,27
32-10,70300948,-18
32-11,70304854,86
32-12,70308760,105
32-13,70312666,-28
32-14,70316572,-124
32-15,70320478,-66
32-16,70324384,-3
32-17,70328290,-81
32-18,70332196,-194
32-19,70336102,-180
32-20,70340008,-101
32-21,70343914,-134
32-22,70347820,-263
32-23,70351726,-281
32-24,70355632,-180
32-25,70359538,-170
32-26,70363444,-292
32-27,70367350,-288
32-28,70371256,-184
32-29,70375162,-310
32-30,70379068,-539
32-31,70382974,-523
32-32,70386880,-349
32-1,70390761,-269
32-2,70394667,-353
32-3,70398573,-441
32-4,70402479,-367
32-5,70406385,-216
32-6,70410291,-195
32-7,70414197,-306
32-8,70418103,-300
32-9,70422009,-147
32-10,70425915,-97
32-11,70429821,-236
32-12,70433727,-327
32-13,70437633,-210
32-14,70441539,-80
32-15,70445445,-148
32-16,70449351,-257
32-17,70453257,-173
32-18,70457163,-2
32-19,70461069,-16
32-20,70464975,-168
32-21,70468881,-179
32-22,70472787,-43
32-23,70476693,-26
32-24,70480599,-162
32-25,70484505,-212
32-26,70488411,-101
32-27,70492317,-7
32-28,70496223,-162
32-29,70500129,-291
32-30,70504035,-10
32-31,70507941,266
32-32,70511847,157
32-1,70515759,-25
32-2,70519665,-8
32-3,70523571,118
32-4,70527477,99
32-5,70531383,-69
32-6,70535289,-93
32-7,70539195,62
32-8,70543101,125
32-9,70547007,-50
32-10,70550913,-183
32-11,70554819,-49
32-12,70558725,94
32-13,70562631,0
32-14,70566537,-160
32-15,70570443,-104
32-16,70574349,61
32-17,70578255,-3
32-18,70582161,-217
32-19,70586067,-225
32-20,70589973,-63
32-21,70593879,-55
32-22,70597785,-252
32-23,70601691,-313
32-24,70605597,-124
32-25,70609503,-41
32-26,70613409,-235
32-27,70617315,-337
32-28,70621221,-190
32-29,70625127,-111
32-30,70629033,-205
32-31,70632939,-270
32-32,70636845,-158
32-1,70640757,9
32-2,70644663,-67
32-3,70648569,-282
32-4,70652475,-245
32-5,70656381,2
32-6,70660287,78
32-7,70664193,-113
32-8,70668099,-192
32-9,70672005,9
32-10,70675911,131
32-11,70679817,-56
32-12,70683723,-228
32-13,70687629,-88
32-14,70691535,94
32-15,70695441,-20
32-16,70699347,-207
32-17,70703253,-87
32-18,70707159,136
32-19,70711065,71
32-20,70714971,-148
32-21,70718877,-163
32-22,70722783,10
32-23,70726689,67
32-24,70730595,-86
32-25,70734501,-159
32-26,70738407,15
32-27,70742313,187
32-28,70746219,9
32-29,70750125,-182
32-30,70754031,113
32-31,70757937,451
32-32,70761843,371
32-1,70765754,200
32-2,70769660,230
32-3,70773566,350
32-4,70777472,314
32-5,70781378,107
32-6,70785284,69
32-7,70789190,258
32-8,70793096,309
32-9,70797002,77
32-10,70800908,-60
32-11,70804814,126
32-12,70808720,269
32-13,70812626,64
32-14,70816532,-146
32-15,70820438,-42
32-16,70824344,133
32-17,70828250,58
32-18,70832156,-165
32-19,70836062,-162
32-20,70839968,46
32-21,70843874,30
32-22,70847780,-233
32-23,70851686,-298
32-24,70855592,-66
32-25,70859498,64
32-26,70863404,-129
32-27,70867310,-244
32-28,70871216,-65
32-29,70875122,15
32-30,70879028,-181
32-31,70882934,-291
32-32,70886840,-100
32-1,70890752,131
32-2,70894658,60
32-3,70898564,-202
32-4,70902470,-186
32-5,70906376,83
32-6,70910282,82
32-7,70914188,-234
32-8,70918094,-312
32-9,70922000,-51
32-10,70925906,54
32-11,70929812,-183
32-12,70933718,-326
32-13,70937624,-118
32-14,70941530,89
32-15,70945436,-62
32-16,70949342,-297
32-17,70953248,-199
32-18,70957154,36
32-19,70961060,-11
32-20,70964966,-252
32-21,70968872,-243
32-22,70972778,1
32-23,70976684,41
32-24,70980590,-181
32-25,70984496,-238
32-26,70988402,-2
32-27,70992308,140
32-28,70996214,-65
32-29,71000120,-267
32-30,71004026,-89
32-31,71007932,185
32-32,71011838,70
32-1,71015749,-197
32-2,71019655,-110
32-3,71023561,147
32-4,71027467,84
32-5,71031373,-224
32-6,71035279,-234
32-7,71039185,52
32-8,71043091,88
32-9,71046997,-197
32-10,71050903,-288
32-11,71054809,-17
32-12,71058715,171
32-13,71062621,-28
32-14,71066527,-232
32-15,71070433,-54
32-16,71074339,201
32-17,71078245,105
32-18,71082151,-147
32-19,71086057,-93
32-20,71089963,176
32-21,71093869,168
32-22,71097775,-117
32-23,71101681,-159
32-24,71105587,110
32-25,71109493,178
32-26,71113399,-81
32-27,71117305,-149
32-28,71121211,45
32-29,71125117,187
32-30,71129023,206
32-31,71132929,173
32-32,71136835,307
32-1,71140747,511
32-2,71144653,348
32-3,71148559,33
32-4,71152465,81
32-5,71156371,326
32-6,71160277,306
32-7,71164183,7
32-8,71168089,-74
32-9,71171995,167
32-10,71175901,248
32-11,71179807,-8
32-12,71183713,-159
32-13,71187619,45
32-14,71191525,228
32-15,71195431,43
32-16,71199337,-197
32-17,71203243,-80
32-18,71207149,167
32-19,71211055,79
32-20,71214961,-217
32-21,71218867,-191
32-22,71222773,93
32-23,71226679,124
32-24,71230585,-108
32-25,71234491,-166
32-26,71238397,40
32-27,71242303,186
32-28,71246209,-53
32-29,71250115,-322
32-30,71254021,-85
32-31,71257927,235
32-32,71261833,101
32-1,71265745,-130
32-2,71269651,-47
32-3,71273557,176
32-4,71277463,115
32-5,71281369,-207
32-6,71285275,-238
32-7,71289181,74
32-8,71293087,173
32-9,71296993,-98
32-10,71300899,-224
32-11,71304805,10
32-12,71308711,156
32-13,71312617,-60
32-14,71316523,-242
32-15,71320429,-69
32-16,71324335,158
32-17,71328241,53
32-18,71332147,-202
32-19,71336053,-152
32-20,71339959,117
32-21,71343865,122
32-22,71347771,-144
32-23,71351677,-206
32-24,71355583,37
32-25,71359489,127
32-26,71363395,-153
32-27,71367301,-253
32-28,71371207,-32
32-29,71375113,15
32-30,71379019,-170
32-31,71382925,-274
32-32,71386831,-102
32-1,71390712,141
32-2,71394618,43
32-3,71398524,-199
32-4,71402430,-131
32-5,71406336,111
32-6,71410242,104
32-7,71414148,-167
32-8,71418054,-242
32-9,71421960,-11
32-10,71425866,92
32-11,71429772,-150
32-12,71433678,-312
32-13,71437584,-72
32-14,71441490,154
32-15,71445396,-31
32-16,71449302,-255
32-17,71453208,-121
32-18,71457114,113
32-19,71461020,62
32-20,71464926,-185
32-21,71468832,-183
32-22,71472738,82
32-23,71476644,116
32-24,71480550,-155
32-25,71484456,-250
32-26,71488362,-25
32-27,71492268,151
32-28,71496174,-112
32-29,71500080,-383
32-30,71503986,-69
32-31,71507892,316
32-32,71511798,169
32-1,71515709,-108
32-2,71519615,-18
32-3,71523521,224
32-4,71527427,136
32-5,71531333,-178
32-6,71535239,-174
32-7,71539145,122
32-8,71543051,190
32-9,71546957,-90
32-10,71550863,-214
32-11,71554769,27
32-12,71558675,179
32-13,71562581,-61
32-14,71566487,-301
32-15,71570393,-167
32-16,71574299,44
32-17,71578205,-71
32-18,71582111,-324
32-19,71586017,-268
32-20,71589923,-10
32-21,71593829,-28
32-22,71597735,-304
32-23,71601641,-356
32-24,71605547,-101
32-25,71609453,29
32-26,71613359,-212
32-27,71617265,-349
32-28,71621171,-126
32-29,71625077,-107
32-30,71628983,-432
32-31,71632889,-561
32-32,71636795,-341
32-1,71640707,-105
32-2,71644613,-179
32-3,71648519,-422
32-4,71652425,-365
32-5,71656331,-75
32-6,71660237,-53
32-7,71664143,-312
32-8,71668049,-349
32-9,71671955,-87
32-10,71675861,30
32-11,71679767,-185
32-12,71683673,-352
32-13,71687579,-155
32-14,71691485,79
32-15,71695391,-78
32-16,71699297,-329
32-17,71703203,-178
32-18,71707109,111
32-19,71711015,46
32-20,71714921,-216
32-21,71718827,-191
32-22,71722733,92
32-23,71726639,161
32-24,71730545,-82
32-25,71734451,-153
32-26,71738357,97
32-27,71742263,257
32-28,71746169,81
32-29,71750075,-129
32-30,71753981,-14
32-31,71757887,229
32-32,71761793,145
32-1,71765705,-118
32-2,71769611,-41
32-3,71773517,225
32-4,71777423,153
32-5,71781329,-136
32-6,71785235,-124
32-7,71789141,153
32-8,71793047,226
32-9,71796953,-44
32-10,71800859,-192
32-11,71804765,56
32-12,71808671,270
32-13,71812577,70
32-14,71816483,-160
32-15,71820389,7
32-16,71824295,250
32-17,71828201,125
32-18,71832107,-164
32-19,71836013,-136
32-20,71839919,123
32-21,71843825,130
32-22,71847731,-109
32-23,71851637,-118
32-24,71855543,146
32-25,71859449,250
32-26,71863355,5
32-27,71867261,-119
32-28,71871167,105
32-29,71875073,162
32-30,71878979,-138
32-31,71882885,-310
32-32,71886791,-87
32-1,71890702,185
32-2,71894608,98
32-3,71898514,-157
32-4,71902420,-97
32-5,71906326,186
32-6,71910232,202
32-7,71914138,-79
32-8,71918044,-125
32-9,71921950,144
32-10,71925856,221
32-11,71929762,-71
32-12,71933668,-254
32-13,71937574,-23
32-14,71941480,218
32-15,71945386,47
32-16,71949292,-214
32-17,71953198,-99
32-18,71957104,182
32-19,71961010,128
32-20,71964916,-181
32-21,71968822,-192
32-22,71972728,86
32-23,71976634,115
32-24,71980540,-152
32-25,71984446,-194
32-26,71988352,95
32-27,71992258,289
32-28,71996164,70
32-29,72000070,-261
32-30,72003976,-171
32-31,72007882,120
32-32,72011788,24
32-1,72015700,-243
32-2,72019606,-132
32-3,72023512,159
32-4,72027418,105
32-5,72031324,-204
32-6,72035230,-237
32-7,72039136,24
32-8,72043042,114
32-9,72046948,-142
32-10,72050854,-285
32-11,72054760,-34
32-12,72058666,141
32-13,72062572,-116
32-14,72066478,-334
32-15,72070384,-141
32-16,72074290,94
32-17,72078196,-5
32-18,72082102,-212
32-19,72086008,-108
32-20,72089914,174
32-21,72093820,171
32-22,72097726,-98
32-23,72101632,-144
32-24,72105538,111
32-25,72109444,207
32-26,72113350,-58
32-27,72117256,-201
32-28,72121162,24
32-29,72125068,144
32-30,72128974,-81
32-31,72132880,-228
32-32,72136786,-28
32-1,72140698,247
32-2,72144604,210
32-3,72148510,-61
32-4,72152416,-61
32-5,72156322,214
32-6,72160228,223
32-7,72164134,-82
32-8,72168040,-140
32-9,72171946,142
32-10,72175852,269
32-11,72179758,39
32-12,72183664,-144
32-13,72187570,7
32-14,72191476,204
32-15,72195382,77
32-16,72199288,-141
32-17,72203194,-18
32-18,72207100,235
32-19,72211006,159
32-20,72214912,-123
32-21,72218818,-110
32-22,72222724,172
32-23,72226630,199
32-24,72230536,-93
32-25,72234442,-204
32-26,72238348,23
32-27,72242254,188
32-28,72246160,-51
32-29,72250066,-235
32-30,72253972,162
32-31,72257878,588
32-32,72261784,476
32-1,72265695,189
32-2,72269601,216
32-3,72273507,456
32-4,72277413,428
32-5,72281319,111
32-6,72285225,46
32-7,72289131,269
32-8,72293037,309
32-9,72296943,68
32-10,72300849,-29
32-11,72304755,169
32-12,72308661,296
32-13,72312567,98
32-14,72316473,-143
32-15,72320379,-44
32-16,72324285,192
32-17,72328191,94
32-18,72332097,-179
32-19,72336003,-126
32-20,72339909,141
32-21,72343815,140
32-22,72347721,-126
32-23,72351627,-171
32-24,72355533,92
32-25,72359439,179
32-26,72363345,-87
32-27,72367251,-193
32-28,72371157,12
32-29,72375063,150
32-30,72378969,124
32-31,72382875,114
32-32,72386781,269
32-1,72390662,452
32-2,72394568,329
32-3,72398474,43
32-4,72402380,70
32-5,72406286,330
32-6,72410192,338
32-7,72414098,32
32-8,72418004,-97
32-9,72421910,111
32-10,72425816,236
32-11,72429722,15
32-12,72433628,-163
32-13,72437534,5
32-14,72441440,181
32-15,72445346,25
32-16,72449252,-205
32-17,72453158,-115
32-18,72457064,118
32-19,72460970,45
32-20,72464876,-249
32-21,72468782,-265
32-22,72472688,-2
32-23,72476594,61
32-24,72480500,-209
32-25,72484406,-322
32-26,72488312,-93
32-27,72492218,32
32-28,72496124,-206
32-29,72500030,-448
32-30,72503936,-316
32-31,72507842,-44
32-32,72511748,-107
32-1,72515660,-339
32-2,72519566,-250
32-3,72523472,14
32-4,72527378,-20
32-5,72531284,-278
32-6,72535190,-259
32-7,72539096,7
32-8,72543002,54
32-9,72546908,-193
32-10,72550814,-302
32-11,72554720,-88
32-12,72558626,67
32-13,72562532,-129
32-14,72566438,-342
32-15,72570344,-201
32-16,72574250,31
32-17,72578156,-84
32-18,72582062,-379
32-19,72585968,-365
32-20,72589874,-104
32-21,72593780,-73
32-22,72597686,-333
32-23,72601592,-400
32-24,72605498,-115
32-25,72609404,37
32-26,72613310,-203
32-27,72617216,-321
32-28,72621122,-90
32-29,72625028,-12
32-30,72628934,-227
32-31,72632840,-305
32-32,72636746,-87
32-1,72640658,134
32-2,72644564,69
32-3,72648470,-167
32-4,72652376,-144
32-5,72656282,126
32-6,72660188,158
32-7,72664094,-133
32-8,72668000,-221
32-9,72671906,37
32-10,72675812,155
32-11,72679718,-81
32-12,72683624,-230
32-13,72687530,-19
32-14,72691436,182
32-15,72695342,19
32-16,72699248,-237
32-17,72703154,-164
32-18,72707060,67
32-19,72710966,24
32-20,72714872,-233
32-21,72718778,-246
32-22,72722684,14
32-23,72726590,90
32-24,72730496,-151
32-25,72734402,-231
32-26,72738308,18
32-27,72742214,167
32-28,72746120,-74
32-29,72750026,-372
32-30,72753932,-238
32-31,72757838,102
32-32,72761744,51
32-1,72765655,-206
32-2,72769561,-114
32-3,72773467,167
32-4,72777373,124
32-5,72781279,-194
32-6,72785185,-221
32-7,72789091,73
32-8,72792997,161
32-9,72796903,-80
32-10,72800809,-204
32-11,72804715,-10
32-12,72808621,131
32-13,72812527,-74
32-14,72816433,-294
32-15,72820339,-149
32-16,72824245,87
32-17,72828151,-12
32-18,72832057,-254
32-19,72835963,-174
32-20,72839869,117
32-21,72843775,117
32-22,72847681,-171
32-23,72851587,-217
32-24,72855493,49
32-25,72859399,138
32-26,72863305,-153
32-27,72867211,-312
32-28,72871117,-114
32-29,72875023,-81
32-30,72878929,-326
32-31,72882835,-397
32-32,72886741,-157
32-1,72890653,117
32-2,72894559,62
32-3,72898465,-212
32-4,72902371,-170
32-5,72906277,143
32-6,72910183,192
32-7,72914089,-84
32-8,72917995,-179
32-9,72921901,60
32-10,72925807,188
32-11,72929713,-37
32-12,72933619,-188
32-13,72937525,43
32-14,72941431,240
32-15,72945337,29
32-16,72949243,-223
32-17,72953149,-93
32-18,72957055,161
32-19,72960961,99
32-20,72964867,-184
32-21,72968773,-209
32-22,72972679,60
32-23,72976585,134
32-24,72980491,-140
32-25,72984397,-261
32-26,72988303,-31
32-27,72992209,125
32-28,72996115,-102
32-29,73000021,-400
32-30,73003927,-295
32-31,73007833,10
32-32,73011739,-39
32-1,73015651,-272
32-2,73019557,-147
32-3,73023463,155
32-4,73027369,102
32-5,73031275,-201
32-6,73035181,-213
32-7,73039087,56
32-8,73042993,120
32-9,73046899,-130
32-10,73050805,-211
32-11,73054711,42
32-12,73058617,181
32-13,73062523,-29
32-14,73066429,-236
32-15,73070335,-101
32-16,73074241,147
32-17,73078147,57
32-18,73082053,-232
32-19,73085959,-176
32-20,73089865,132
32-21,73093771,135
32-22,73097677,-166
32-23,73101583,-240
32-24,73105489,35
32-25,73109395,158
32-26,73113301,-100
32-27,73117207,-243
32-28,73121113,-59
32-29,73125019,168
32-30,73128925,200
32-31,73132831,78
32-32,73136737,166
32-1,73140648,411
32-2,73144554,322
32-3,73148460,16
32-4,73152366,0
32-5,73156272,226
32-6,73160178,233
32-7,73164084,-43
32-8,73167990,-137
32-9,73171896,92
32-10,73175802,195
32-11,73179708,-40
32-12,73183614,-218
32-13,73187520,-82
32-14,73191426,156
32-15,73195332,11
32-16,73199238,-156
32-17,73203144,410
32-18,73207050,935
32-19,73210956,447
32-20,73214862,-256
32-21,73218768,-11
32-22,73222674,678
32-23,73226580,508
32-24,73230486,-301
32-25,73234392,-338
32-26,73238298,374
32-27,73242204,509
32-28,73246110,-265
32-29,73250016,-605
32-30,73253922,100
32-31,73257828,594
32-32,73261734,2
32-1,73265646,-584
32-2,73269552,-84
32-3,73273458,559
32-4,73277364,162
32-5,73281270,-554
32-6,73285176,-278
32-7,73289082,474
32-8,73292988,380
32-9,73296894,-401
32-10,73300800,-459
32-11,73304706,282
32-12,73308612,451
32-13,73312518,-293
32-14,73316424,-637
32-15,73320330,-2
32-16,73324236,465
32-17,73328142,-92
32-18,73332048,-715
32-19,73335954,-266
32-20,73339860,412
32-21,73343766,67
32-22,73347672,-677
32-23,73351578,-484
32-24,73355484,259
32-25,73359390,237
32-26,73363296,-576
32-27,73367202,-725
32-28,73371108,14
32-29,73375014,161
32-30,73378920,-622
32-31,73382826,-969
32-32,73386732,-319
32-1,73390613,241
32-2,73394519,-193
32-3,73398425,-809
32-4,73402331,-422
32-5,73406237,301
32-6,73410143,116
32-7,73414049,-601
32-8,73417955,-484
32-9,73421861,311
32-10,73425767,411
32-11,73429673,-337
32-12,73433579,-547
32-13,73437485,190
32-14,73441391,601
32-15,73445297,2
32-16,73449203,-491
32-17,73453109,48
32-18,73457015,670
32-19,73460921,245
32-20,73464827,-467
32-21,73468733,-173
32-22,73472639,552
32-23,73476545,411
32-24,73480451,-359
32-25,73484357,-383
32-26,73488263,335
32-27,73492169,510
32-28,73496075,-237
32-29,73499981,-722
32-30,73503887,-154
32-31,73507793,441
32-32,73511699,-23
32-1,73515611,-623
32-2,73519517,-191
32-3,73523423,430
32-4,73527329,69
32-5,73531235,-626
32-6,73535141,-360
32-7,73539047,397
32-8,73542953,322
32-9,73546859,-471
32-10,73550765,-573
32-11,73554671,187
32-12,73558577,449
32-13,73562483,-262
32-14,73566389,-607
32-15,73570295,90
32-16,73574201,597
32-17,73578107,41
32-18,73582013,-559
32-19,73585919,-123
32-20,73589825,575
32-21,73593731,307
32-22,73597637,-481
32-23,73601543,-399
32-24,73605449,351
32-25,73609355,406
32-26,73613261,-360
32-27,73617167,-528
32-28,73621073,201
32-29,73624979,467
32-30,73628885,-202
32-31,73632791,-552
32-32,73636697,44
32-1,73640608,554
32-2,73644514,118
32-3,73648420,-525
32-4,73652326,-225
32-5,73656232,512
32-6,73660138,377
32-7,73664044,-401
32-8,73667950,-397
32-9,73671856,304
32-10,73675762,377
32-11,73679668,-333
32-12,73683574,-583
32-13,73687480,47
32-14,73691386,438
32-15,73695292,-138
32-16,73699198,-587
32-17,73703104,-20
32-18,73707010,534
32-19,73710916,39
32-20,73714822,-708
32-21,73718728,-322
32-22,73722634,564
32-23,73726540,323
32-24,73730446,-634
32-25,73734352,-593
32-26,73738258,331
32-27,73742164,502
32-28,73746070,-486
32-29,73749976,-805
32-30,73753882,313
32-31,73757788,996
32-32,73761694,223
32-1,73765606,-438
32-2,73769512,191
32-3,73773418,924
32-4,73777324,421
32-5,73781230,-483
32-6,73785136,-207
32-7,73789042,681
