32-1,754158875,-141
32-2,754162781,-215
32-3,754166687,-230
32-4,754170593,-101
32-5,754174499,81
32-6,754178405,111
32-7,754182311,74
32-8,754186217,57
32-9,754190123,23
32-10,754194029,-21
32-11,754197935,-43
32-12,754201841,42
32-13,754205747,136
32-14,754209653,106
32-15,754213559,9
32-16,754217465,-82
32-17,754221371,-131
32-18,754225277,-157
32-19,754229183,-96
32-20,754233089,69
32-21,754236995,130
32-22,754240901,76
32-23,754244807,32
32-24,754248713,-41
32-25,754252619,-124
32-26,754256525,-103
32-27,754260431,12
32-28,754264337,91
32-29,754268243,102
32-30,754272149,87
32-31,754276055,36
32-32,754279961,-22
32-1,754283872,-81
32-2,754287778,-92
32-3,754291684,7
32-4,754295590,76
32-5,754299496,53
32-6,754303402,-1
32-7,754307308,-72
32-8,754311214,-125
32-9,754315120,-174
32-10,754319026,-141
32-11,754322932,20
32-12,754326838,85
32-13,754330744,-1
32-14,754334650,-86
32-15,754338556,-134
32-16,754342462,-172
32-17,754346368,-182
32-18,754350274,-62
32-19,754354180,99
32-20,754358086,132
32-21,754361992,88
32-22,754365898,19
32-23,754369804,-40
32-24,754373710,-80
32-25,754377616,-86
32-26,754381522,23
32-27,754385428,95
32-28,754389334,55
32-29,754393240,82
32-30,754397146,92
32-31,754401052,5
32-32,754404958,-85
32-1,754408870,-92
32-2,754412776,10
32-3,754416682,64
32-4,754420588,31
32-5,754424494,-4
32-6,754428400,-55
32-7,754432306,-109
32-8,754436212,-157
32-9,754440118,-95
32-10,754444024,78
32-11,754447930,111
32-12,754451836,9
32-13,754455742,-78
32-14,754459648,-136
32-15,754463554,-181
32-16,754467460,-182
32-17,754471366,-41
32-18,754475272,100
32-19,754479178,75
32-20,754483084,-13
32-21,754486990,-100
32-22,754490896,-164
32-23,754494802,-190
32-24,754498708,-132
32-25,754502614,15
32-26,754506520,95
32-27,754510426,64
32-28,754514332,2
32-29,754518238,-12
32-30,754522144,-28
32-31,754526050,-134
32-32,754529956,-106
32-1,754533868,65
32-2,754537774,93
32-3,754541680,33
32-4,754545586,13
32-5,754549492,-21
32-6,754553398,-116
32-7,754557304,-197
32-8,754561210,-109
32-9,754565116,16
32-10,754569022,10
32-11,754572928,-32
32-12,754576834,-66
32-13,754580740,-112
32-14,754584646,-172
32-15,754588552,-149
32-16,754592458,18
32-17,754596364,98
32-18,754600270,20
32-19,754604176,-54
32-20,754608082,-101
32-21,754611988,-133
32-22,754615894,-159
32-23,754619800,-76
32-24,754623706,97
32-25,754627612,124
32-26,754631518,82
32-27,754635424,53
32-28,754639330,-14
32-29,754643236,-11
32-30,754647142,3
32-31,754651048,-7
32-32,754654954,57
32-1,754658957,88
32-2,754662863,56
32-3,754666769,15
32-4,754670675,-48
32-5,754674581,-137
32-6,754678487,-143
32-7,754682393,22
32-8,754686299,124
32-9,754690205,56
32-10,754694111,-14
32-11,754698017,-75
32-12,754701923,-128
32-13,754705829,-153
32-14,754709735,-88
32-15,754713641,76
32-16,754717547,135
32-17,754721453,67
32-18,754725359,-2
32-19,754729265,-52
32-20,754733171,-95
32-21,754737077,-112
32-22,754740983,-14
32-23,754744889,141
32-24,754748795,157
32-25,754752701,32
32-26,754756607,-41
32-27,754760513,-30
32-28,754764419,-73
32-29,754768325,-69
32-30,754772231,49
32-31,754776137,74
32-32,754780043,18
32-1,754783863,-8
32-2,754787769,-68
32-3,754791675,-153
32-4,754795581,-219
32-5,754799487,-174
32-6,754803393,-13
32-7,754807299,56
32-8,754811205,3
32-9,754815111,-60
32-10,754819017,-114
32-11,754822923,-147
32-12,754826829,-151
32-13,754830735,-45
32-14,754834641,117
32-15,754838547,155
32-16,754842453,95
32-17,754846359,12
32-18,754850265,-58
32-19,754854171,-102
32-20,754858077,-102
32-21,754861983,14
32-22,754865889,109
32-23,754869795,88
32-24,754873701,30
32-25,754877607,-59
32-26,754881513,-62
32-27,754885419,-4
32-28,754889325,17
32-29,754893231,120
32-30,754897137,175
32-31,754901043,106
32-32,754904949,84
32-1,754908860,64
32-2,754912766,-22
32-3,754916672,-81
32-4,754920578,-61
32-5,754924484,-51
32-6,754928390,-88
32-7,754932296,-105
32-8,754936202,-125
32-9,754940108,-140
32-10,754944014,-151
32-11,754947920,-140
32-12,754951826,3
32-13,754955732,125
32-14,754959638,76
32-15,754963544,49
32-16,754967450,87
32-17,754971356,58
32-18,754975262,-25
32-19,754979168,-45
32-20,754983074,22
32-21,754986980,18
32-22,754990886,-81
32-23,754994792,-110
32-24,754998698,-99
32-25,755002604,-141
32-26,755006510,-112
32-27,755010416,15
32-28,755014322,94
32-29,755018228,114
32-30,755022134,120
32-31,755026040,80
32-32,755029946,52
32-1,755033858,-5
32-2,755037764,-85
32-3,755041670,-23
32-4,755045576,33
32-5,755049482,-76
32-6,755053388,-185
32-7,755057294,-217
32-8,755061200,-207
32-9,755065106,-215
32-10,755069012,-180
32-11,755072918,4
32-12,755076824,122
32-13,755080730,76
32-14,755084636,36
32-15,755088542,-11
32-16,755092448,-115
32-17,755096354,-181
32-18,755100260,-90
32-19,755104166,61
32-20,755108072,75
32-21,755111978,-2
32-22,755115884,-75
32-23,755119790,-101
32-24,755123696,-116
32-25,755127602,-143
32-26,755131508,-25
32-27,755135414,120
32-28,755139320,76
32-29,755143226,-1
32-30,755147132,-50
32-31,755151038,-144
32-32,755154944,-232
32-1,755158856,-199
32-2,755162762,-37
32-3,755166668,52
32-4,755170574,31
32-5,755174480,9
32-6,755178386,-41
32-7,755182292,-109
32-8,755186198,-141
32-9,755190104,-66
32-10,755194010,75
32-11,755197916,105
32-12,755201822,22
32-13,755205728,-70
32-14,755209634,-119
32-15,755213540,-154
32-16,755217446,-159
32-17,755221352,-23
32-18,755225258,113
32-19,755229164,83
32-20,755233070,24
32-21,755236976,-16
32-22,755240882,-103
32-23,755244788,-184
32-24,755248694,-152
32-25,755252600,-5
32-26,755256506,97
32-27,755260412,88
32-28,755264318,56
32-29,755268224,51
32-30,755272130,10
32-31,755276036,-70
32-32,755279942,-53
32-1,755283853,-7
32-2,755287759,-63
32-3,755291665,-115
32-4,755295571,-109
32-5,755299477,-85
32-6,755303383,-89
32-7,755307289,-84
32-8,755311195,38
32-9,755315101,155
32-10,755319007,145
32-11,755322913,108
32-12,755326819,99
32-13,755330725,90
32-14,755334631,3
32-15,755338537,-85
32-16,755342443,-23
32-17,755346349,63
32-18,755350255,45
32-19,755354161,-37
32-20,755358067,-102
32-21,755361973,-118
32-22,755365879,-152
32-23,755369785,-104
32-24,755373691,52
32-25,755377597,79
32-26,755381503,30
32-27,755385409,15
32-28,755389315,-12
32-29,755393221,-15
32-30,755397127,-13
32-31,755401033,26
32-32,755404939,127
32-1,755408973,147
32-2,755412879,95
32-3,755416785,29
32-4,755420691,-48
32-5,755424597,-109
32-6,755428503,-94
32-7,755432409,32
32-8,755436315,119
32-9,755440221,74
32-10,755444127,-26
32-11,755448033,-135
32-12,755451939,-211
32-13,755455845,-231
32-14,755459751,-133
32-15,755463657,32
32-16,755467563,87
32-17,755471469,50
32-18,755475375,-12
32-19,755479281,-64
32-20,755483187,-94
32-21,755487093,-109
32-22,755490999,-14
32-23,755494905,127
32-24,755498811,123
32-25,755502717,-14
32-26,755506623,-94
32-27,755510529,-77
32-28,755514435,-123
32-29,755518341,-124
32-30,755522247,35
32-31,755526153,114
32-32,755530059,71
32-1,755533849,25
32-2,755537755,-17
32-3,755541661,-61
32-4,755545567,-131
32-5,755549473,-99
32-6,755553379,51
32-7,755557285,87
32-8,755561191,19
32-9,755565097,-26
32-10,755569003,-81
32-11,755572909,-154
32-12,755576815,-185
32-13,755580721,-95
32-14,755584627,27
32-15,755588533,29
32-16,755592439,-38
32-17,755596345,-113
32-18,755600251,-162
32-19,755604157,-190
32-20,755608063,-171
32-21,755611969,-38
32-22,755615875,49
32-23,755619781,31
32-24,755623687,1
32-25,755627593,-77
32-26,755631499,-107
32-27,755635405,-67
32-28,755639311,-40
32-29,755643217,60
32-30,755647123,128
32-31,755651029,47
32-32,755654935,-41
32-1,755658907,-93
32-2,755662813,-172
32-3,755666719,-232
32-4,755670625,-142
32-5,755674531,-1
32-6,755678437,29
32-7,755682343,14
32-8,755686249,-30
32-9,755690155,-108
32-10,755694061,-148
32-11,755697967,-124
32-12,755701873,2
32-13,755705779,125
32-14,755709685,106
32-15,755713591,-8
32-16,755717497,-102
32-17,755721403,-143
32-18,755725309,-188
32-19,755729215,-148
32-20,755733121,13
32-21,755737027,71
32-22,755740933,-10
32-23,755744839,-99
32-24,755748745,-163
32-25,755752651,-200
32-26,755756557,-170
32-27,755760463,-18
32-28,755764369,110
32-29,755768275,88
32-30,755772181,27
32-31,755776087,-6
32-32,755779993,-15
32-1,755783844,-60
32-2,755787750,-119
32-3,755791656,-22
32-4,755795562,117
32-5,755799468,126
32-6,755803374,72
32-7,755807280,-18
32-8,755811186,-110
32-9,755815092,-164
32-10,755818998,-142
32-11,755822904,-19
32-12,755826810,35
32-13,755830716,-15
32-14,755834622,-71
32-15,755838528,-145
32-16,755842434,-204
32-17,755846340,-231
32-18,755850246,-162
32-19,755854152,-17
32-20,755858058,22
32-21,755861964,-60
32-22,755865870,-167
32-23,755869776,-237
32-24,755873682,-269
32-25,755877588,-261
32-26,755881494,-129
32-27,755885400,6
32-28,755889306,9
32-29,755893212,-2
32-30,755897118,-5
32-31,755901024,-66
32-32,755904930,-170
32-1,755908841,-169
32-2,755912747,-32
32-3,755916653,5
32-4,755920559,-93
32-5,755924465,-133
32-6,755928371,-108
32-7,755932277,-102
32-8,755936183,-124
32-9,755940089,-50
32-10,755943995,96
32-11,755947901,139
32-12,755951807,109
32-13,755955713,90
32-14,755959619,81
32-15,755963525,52
32-16,755967431,-3
32-17,755971337,17
32-18,755975243,64
32-19,755979149,3
32-20,755983055,-112
32-21,755986961,-167
32-22,755990867,-169
32-23,755994773,-190
32-24,755998679,-142
32-25,756002585,-32
32-26,756006491,-11
32-27,756010397,-51
32-28,756014303,-111
32-29,756018209,-84
32-30,756022115,-9
32-31,756026021,-73
32-32,756029927,-61
32-1,756033839,101
32-2,756037745,148
32-3,756041651,116
32-4,756045557,106
32-5,756049463,102
32-6,756053369,55
32-7,756057275,-49
32-8,756061181,-42
32-9,756065087,46
32-10,756068993,13
32-11,756072899,-73
32-12,756076805,-111
32-13,756080711,-137
32-14,756084617,-177
32-15,756088523,-134
32-16,756092429,33
32-17,756096335,109
32-18,756100241,33
32-19,756104147,-40
32-20,756108053,-79
32-21,756111959,-124
32-22,756115865,-169
32-23,756119771,-87
32-24,756123677,89
32-25,756127583,128
32-26,756131489,92
32-27,756135395,109
32-28,756139301,97
32-29,756143207,41
32-30,756147113,-13
32-31,756151019,9
32-32,756154925,89
32-1,756158989,109
32-2,756162895,79
32-3,756166801,41
32-4,756170707,-12
32-5,756174613,-84
32-6,756178519,-111
32-7,756182425,-16
32-8,756186331,64
32-9,756190237,20
32-10,756194143,-79
32-11,756198049,-161
32-12,756201955,-201
32-13,756205861,-257
32-14,756209767,-212
32-15,756213673,-16
32-16,756217579,68
32-17,756221485,1
32-18,756225391,-77
32-19,756229297,-130
32-20,756233203,-177
32-21,756237109,-194
32-22,756241015,-71
32-23,756244921,84
32-24,756248827,83
32-25,756252733,4
32-26,756256639,-36
32-27,756260545,-41
32-28,756264451,-67
32-29,756268357,-52
32-30,756272263,35
32-31,756276169,60
32-32,756280075,22
32-1,756283956,-10
32-2,756287862,-64
32-3,756291768,-141
32-4,756295674,-205
32-5,756299580,-145
32-6,756303486,25
32-7,756307392,74
32-8,756311298,-31
32-9,756315204,-140
32-10,756319110,-179
32-11,756323016,-185
32-12,756326922,-182
32-13,756330828,-80
32-14,756334734,0
32-15,756338640,-88
32-16,756342546,-167
32-17,756346452,-158
32-18,756350358,-168
32-19,756354264,-203
32-20,756358170,-170
32-21,756362076,-69
32-22,756365982,-87
32-23,756369888,-173
32-24,756373794,-186
32-25,756377700,-209
32-26,756381606,-170
32-27,756385512,-89
32-28,756389418,-45
32-29,756393324,81
32-30,756397230,149
32-31,756401136,99
32-32,756405042,114
32-1,756408832,137
32-2,756412738,112
32-3,756416644,88
32-4,756420550,76
32-5,756424456,86
32-6,756428362,72
32-7,756432268,28
32-8,756436174,-19
32-9,756440080,-46
32-10,756443986,-88
32-11,756447892,-133
32-12,756451798,-53
32-13,756455704,62
32-14,756459610,73
32-15,756463516,33
32-16,756467422,-30
32-17,756471328,-87
32-18,756475234,-124
32-19,756479140,-92
32-20,756483046,46
32-21,756486952,120
32-22,756490858,75
32-23,756494764,12
32-24,756498670,-57
32-25,756502576,-138
32-26,756506482,-139
32-27,756510388,-2
32-28,756514294,79
32-29,756518200,29
32-30,756522106,-13
32-31,756526012,-68
32-32,756529918,-110
32-1,756533830,-111
32-2,756537736,-92
32-3,756541642,49
32-4,756545548,182
32-5,756549454,158
32-6,756553360,110
32-7,756557266,90
32-8,756561172,56
32-9,756565078,13
32-10,756568984,-3
32-11,756572890,22
32-12,756576796,28
32-13,756580702,8
32-14,756584608,-30
32-15,756588514,-88
32-16,756592420,-134
32-17,756596326,-164
32-18,756600232,-94
32-19,756604138,51
32-20,756608044,99
32-21,756611950,36
32-22,756615856,-57
32-23,756619762,-109
32-24,756623668,-156
32-25,756627574,-195
32-26,756631480,-76
32-27,756635386,68
32-28,756639292,69
32-29,756643198,46
32-30,756647104,28
32-31,756651010,-31
32-32,756654916,-110
32-1,756658827,-119
32-2,756662733,-6
32-3,756666639,87
32-4,756670545,59
32-5,756674451,-10
32-6,756678357,-70
32-7,756682263,-145
32-8,756686169,-216
32-9,756690075,-149
32-10,756693981,1
32-11,756697887,33
32-12,756701793,-19
32-13,756705699,-67
32-14,756709605,-118
32-15,756713511,-173
32-16,756717417,-194
32-17,756721323,-94
32-18,756725229,29
32-19,756729135,29
32-20,756733041,-34
32-21,756736947,-99
32-22,756740853,-163
32-23,756744759,-215
32-24,756748665,-175
32-25,756752571,-15
32-26,756756477,68
32-27,756760383,5
32-28,756764289,-58
32-29,756768195,-60
32-30,756772101,-69
32-31,756776007,-157
32-32,756779913,-164
32-1,756783825,-17
32-2,756787731,41
32-3,756791637,-17
32-4,756795543,-29
32-5,756799449,-21
32-6,756803355,-68
32-7,756807261,-95
32-8,756811167,-5
32-9,756815073,95
32-10,756818979,91
32-11,756822885,14
32-12,756826791,-84
32-13,756830697,-137
32-14,756834603,-179
32-15,756838509,-169
32-16,756842415,-7
32-17,756846321,111
32-18,756850227,90
32-19,756854133,34
32-20,756858039,-25
32-21,756861945,-55
32-22,756865851,-86
32-23,756869757,-42
32-24,756873663,91
32-25,756877569,104
32-26,756881475,71
32-27,756885381,53
32-28,756889287,-29
32-29,756893193,-63
32-30,756897099,-56
32-31,756901005,-22
32-32,756904911,56
32-1,756909189,37
32-2,756913095,-8
32-3,756917001,14
32-4,756920907,-6
32-5,756924813,-90
32-6,756928719,-110
32-7,756932625,8
32-8,756936531,100
32-9,756940437,46
32-10,756944343,-77
32-11,756948249,-159
32-12,756952155,-164
32-13,756956061,-182
32-14,756959967,-132
32-15,756963873,32
32-16,756967779,68
32-17,756971685,-15
32-18,756975591,-90
32-19,756979497,-137
32-20,756983403,-162
32-21,756987309,-177
32-22,756991215,-92
32-23,756995121,50
32-24,756999027,84
32-25,757002933,35
32-26,757006839,15
32-27,757010745,2
32-28,757014651,-69
32-29,757018557,-71
32-30,757022463,39
32-31,757026369,86
32-32,757030275,76
32-1,757033820,63
32-2,757037726,39
32-3,757041632,10
32-4,757045538,-62
32-5,757049444,-45
32-6,757053350,65
32-7,757057256,31
32-8,757061162,-77
32-9,757065068,-88
32-10,757068974,-69
32-11,757072880,-107
32-12,757076786,-147
32-13,757080692,-45
32-14,757084598,114
32-15,757088504,131
32-16,757092410,81
32-17,757096316,59
32-18,757100222,20
32-19,757104128,-71
32-20,757108034,-106
32-21,757111940,23
32-22,757115846,131
32-23,757119752,95
32-24,757123658,29
32-25,757127564,-45
32-26,757131470,-56
32-27,757135376,-17
32-28,757139282,-11
32-29,757143188,67
32-30,757147094,128
32-31,757151000,75
32-32,757154906,17
32-1,757158818,-47
32-2,757162724,-137
32-3,757166630,-182
32-4,757170536,-82
32-5,757174442,63
32-6,757178348,82
32-7,757182254,24
32-8,757186160,-62
32-9,757190066,-110
32-10,757193972,-111
32-11,757197878,-103
32-12,757201784,50
32-13,757205690,197
32-14,757209596,167
32-15,757213502,106
32-16,757217408,54
32-17,757221314,-16
32-18,757225220,-86
32-19,757229126,-69
32-20,757233032,49
32-21,757236938,97
32-22,757240844,64
32-23,757244750,23
32-24,757248656,-60
32-25,757252562,-148
32-26,757256468,-140
32-27,757260374,-15
32-28,757264280,95
32-29,757268186,113
32-30,757272092,99
32-31,757275998,69
32-32,757279904,21
32-1,757283815,-68
32-2,757287721,-128
32-3,757291627,-31
32-4,757295533,75
32-5,757299439,65
32-6,757303345,42
32-7,757307251,16
32-8,757311157,-32
32-9,757315063,-84
32-10,757318969,-71
32-11,757322875,49
32-12,757326781,119
32-13,757330687,75
32-14,757334593,3
32-15,757338499,-60
32-16,757342405,-116
32-17,757346311,-151
32-18,757350217,-69
32-19,757354123,85
32-20,757358029,130
32-21,757361935,88
32-22,757365841,32
32-23,757369747,-25
32-24,757373653,-70
32-25,757377559,-83
32-26,757381465,31
32-27,757385371,146
32-28,757389277,104
32-29,757393183,46
32-30,757397089,-4
32-31,757400995,-126
32-32,757404901,-245
32-1,757408813,-227
32-2,757412719,-55
32-3,757416625,69
32-4,757420531,63
32-5,757424437,23
32-6,757428343,-38
32-7,757432249,-131
32-8,757436155,-201
32-9,757440061,-117
32-10,757443967,46
32-11,757447873,64
32-12,757451779,17
32-13,757455685,-9
32-14,757459591,-59
32-15,757463497,-121
32-16,757467403,-136
32-17,757471309,-19
32-18,757475215,105
32-19,757479121,89
32-20,757483027,33
32-21,757486933,-3
32-22,757490839,-38
32-23,757494745,-95
32-24,757498651,-107
32-25,757502557,7
32-26,757506463,92
32-27,757510369,57
32-28,757514275,-6
32-29,757518181,-11
32-30,757522087,-30
32-31,757525993,-166
32-32,757529899,-163
32-1,757533811,58
32-2,757537717,158
32-3,757541623,122
32-4,757545529,86
32-5,757549435,46
32-6,757553341,-16
32-7,757557247,-80
32-8,757561153,-8
32-9,757565059,112
32-10,757568965,90
32-11,757572871,18
32-12,757576777,-40
32-13,757580683,-107
32-14,757584589,-180
32-15,757588495,-182
32-16,757592401,-37
32-17,757596307,75
32-18,757600213,40
32-19,757604119,-48
32-20,757608025,-134
32-21,757611931,-192
32-22,757615837,-247
32-23,757619743,-189
32-24,757623649,-7
32-25,757627555,38
32-26,757631461,-16
32-27,757635367,-55
32-28,757639273,-128
32-29,757643179,-154
32-30,757647085,-150
32-31,757650991,-124
32-32,757654897,-82
32-1,757658991,-155
32-2,757662897,-225
32-3,757666803,-198
32-4,757670709,-177
32-5,757674615,-201
32-6,757678521,-188
32-7,757682427,-27
32-8,757686333,123
32-9,757690239,123
32-10,757694145,102
32-11,757698051,85
32-12,757701957,59
32-13,757705863,5
32-14,757709769,-23
32-15,757713675,65
32-16,757717581,101
32-17,757721487,10
32-18,757725393,-75
32-19,757729299,-113
32-20,757733205,-138
32-21,757737111,-156
32-22,757741017,-51
32-23,757744923,111
32-24,757748829,100
32-25,757752735,-22
32-26,757756641,-57
32-27,757760547,-52
32-28,757764453,-125
32-29,757768359,-133
32-30,757772265,-21
32-31,757776171,21
32-32,757780077,9
32-1,757783806,13
32-2,757787712,3
32-3,757791618,-4
32-4,757795524,-65
32-5,757799430,-111
32-6,757803336,-26
32-7,757807242,58
32-8,757811148,23
32-9,757815054,-70
32-10,757818960,-133
32-11,757822866,-168
32-12,757826772,-190
32-13,757830678,-115
32-14,757834584,3
32-15,757838490,11
32-16,757842396,-35
32-17,757846302,-71
32-18,757850208,-136
32-19,757854114,-195
32-20,757858020,-181
32-21,757861926,-107
32-22,757865832,-87
32-23,757869738,-113
32-24,757873644,-115
32-25,757877550,-142
32-26,757881456,-115
32-27,757885362,-42
32-28,757889268,-17
32-29,757893174,70
32-30,757897080,144
32-31,757900986,97
32-32,757904892,68
32-1,757908804,60
32-2,757912710,9
32-3,757916616,-43
32-4,757920522,-25
32-5,757924428,43
32-6,757928334,43
32-7,757932240,-43
32-8,757936146,-120
32-9,757940052,-141
32-10,757943958,-175
32-11,757947864,-173
32-12,757951770,-25
32-13,757955676,88
32-14,757959582,73
32-15,757963488,28
32-16,757967394,-41
32-17,757971300,-94
32-18,757975206,-128
32-19,757979112,-99
32-20,757983018,17
32-21,757986924,51
32-22,757990830,9
32-23,757994736,-17
32-24,757998642,-46
32-25,758002548,-73
32-26,758006454,-79
32-27,758010360,6
32-28,758014266,131
32-29,758018172,133
32-30,758022078,65
32-31,758025984,38
32-32,758029890,13
32-1,758033801,-64
32-2,758037707,-82
32-3,758041613,31
32-4,758045519,95
32-5,758049425,67
32-6,758053331,18
32-7,758057237,-63
32-8,758061143,-135
32-9,758065049,-199
32-10,758068955,-189
32-11,758072861,-49
32-12,758076767,11
32-13,758080673,-49
32-14,758084579,-110
32-15,758088485,-165
32-16,758092391,-212
32-17,758096297,-245
32-18,758100203,-160
32-19,758104109,28
32-20,758108015,100
32-21,758111921,20
32-22,758115827,-92
32-23,758119733,-162
32-24,758123639,-211
32-25,758127545,-199
32-26,758131451,-37
32-27,758135357,93
32-28,758139263,72
32-29,758143169,58
32-30,758147075,41
32-31,758150981,-41
32-32,758154887,-145
32-1,758158799,-161
32-2,758162705,-18
32-3,758166611,71
32-4,758170517,-20
32-5,758174423,-122
32-6,758178329,-173
32-7,758182235,-213
32-8,758186141,-229
32-9,758190047,-135
32-10,758193953,22
32-11,758197859,78
32-12,758201765,80
32-13,758205671,86
32-14,758209577,42
32-15,758213483,-63
32-16,758217389,-137
32-17,758221295,-46
32-18,758225201,72
32-19,758229107,41
32-20,758233013,-40
32-21,758236919,-94
32-22,758240825,-122
32-23,758244731,-154
32-24,758248637,-125
32-25,758252543,51
32-26,758256449,147
32-27,758260355,58
32-28,758264261,6
32-29,758268167,27
32-30,758272073,7
32-31,758275979,-79
32-32,758279885,-74
32-1,758283796,45
32-2,758287702,71
32-3,758291608,10
32-4,758295514,-38
32-5,758299420,-98
32-6,758303326,-178
32-7,758307232,-227
32-8,758311138,-127
32-9,758315044,36
32-10,758318950,62
32-11,758322856,-21
32-12,758326762,-110
32-13,758330668,-158
32-14,758334574,-183
32-15,758338480,-151
32-16,758342386,0
32-17,758346292,102
32-18,758350198,52
32-19,758354104,-24
32-20,758358010,-59
32-21,758361916,-95
32-22,758365822,-163
32-23,758369728,-112
32-24,758373634,55
32-25,758377540,69
32-26,758381446,-5
32-27,758385352,-56
32-28,758389258,-136
32-29,758393164,-145
32-30,758397070,-123
32-31,758400976,-95
32-32,758404882,-2
32-1,758408947,22
32-2,758412853,-14
32-3,758416759,-2
32-4,758420665,-14
32-5,758424571,-102
32-6,758428477,-152
32-7,758432383,-43
32-8,758436289,67
32-9,758440195,40
32-10,758444101,-24
32-11,758448007,-69
32-12,758451913,-109
32-13,758455819,-154
32-14,758459725,-86
32-15,758463631,81
32-16,758467537,118
32-17,758471443,54
32-18,758475349,-8
32-19,758479255,-74
32-20,758483161,-132
32-21,758487067,-161
32-22,758490973,-77
32-23,758494879,63
32-24,758498785,88
32-25,758502691,8
32-26,758506597,-35
32-27,758510503,-22
32-28,758514409,-72
32-29,758518315,-58
32-30,758522221,92
32-31,758526127,138
32-32,758530033,85
32-1,758533792,59
32-2,758537698,17
32-3,758541604,-38
32-4,758545510,-94
32-5,758549416,-48
32-6,758553322,93
32-7,758557228,129
32-8,758561134,58
32-9,758565040,-18
32-10,758568946,-69
32-11,758572852,-92
32-12,758576758,-128
32-13,758580664,-79
32-14,758584570,44
32-15,758588476,48
32-16,758592382,-25
32-17,758596288,-86
32-18,758600194,-133
32-19,758604100,-175
32-20,758608006,-160
32-21,758611912,-16
32-22,758615818,75
32-23,758619724,28
32-24,758623630,-51
32-25,758627536,-148
32-26,758631442,-132
32-27,758635348,-64
32-28,758639254,-49
32-29,758643160,67
32-30,758647066,140
32-31,758650972,86
32-32,758654878,74
32-1,758658789,73
32-2,758662695,8
32-3,758666601,-76
32-4,758670507,-39
32-5,758674413,92
32-6,758678319,117
32-7,758682225,31
32-8,758686131,-69
32-9,758690037,-110
32-10,758693943,-134
32-11,758697849,-146
32-12,758701755,0
32-13,758705661,125
32-14,758709567,85
32-15,758713473,22
32-16,758717379,-36
32-17,758721285,-73
32-18,758725191,-79
32-19,758729097,-39
32-20,758733003,75
32-21,758736909,129
32-22,758740815,50
32-23,758744721,-70
32-24,758748627,-148
32-25,758752533,-193
32-26,758756439,-188
32-27,758760345,-57
32-28,758764251,74
32-29,758768157,91
32-30,758772063,72
32-31,758775969,23
32-32,758779875,-40
32-1,758783787,-99
32-2,758787693,-129
32-3,758791599,-27
32-4,758795505,68
32-5,758799411,8
32-6,758803317,-78
32-7,758807223,-114
32-8,758811129,-117
32-9,758815035,-132
32-10,758818941,-117
32-11,758822847,19
32-12,758826753,126
32-13,758830659,113
32-14,758834565,100
32-15,758838471,100
32-16,758842377,39
32-17,758846283,-62
32-18,758850189,-33
32-19,758854095,113
32-20,758858001,135
32-21,758861907,19
32-22,758865813,-101
32-23,758869719,-157
32-24,758873625,-169
32-25,758877531,-163
32-26,758881437,-55
32-27,758885343,7
32-28,758889249,-74
32-29,758893155,-68
32-30,758897061,-39
32-31,758900967,-131
32-32,758904873,-222
32-1,758908785,-173
32-2,758912691,9
32-3,758916597,103
32-4,758920503,87
32-5,758924409,101
32-6,758928315,107
32-7,758932221,80
32-8,758936127,-8
32-9,758940033,-60
32-10,758943939,8
32-11,758947845,30
32-12,758951751,-39
32-13,758955657,-114
32-14,758959563,-143
32-15,758963469,-150
32-16,758967375,-140
32-17,758971281,-4
32-18,758975187,132
32-19,758979093,127
32-20,758982999,79
32-21,758986905,9
32-22,758990811,-61
32-23,758994717,-113
32-24,758998623,-102
32-25,759002529,44
32-26,759006435,156
32-27,759010341,118
32-28,759014247,45
32-29,759018153,23
32-30,759022059,-5
32-31,759025965,-88
32-32,759029871,-78
32-1,759033782,37
32-2,759037688,74
32-3,759041594,43
32-4,759045500,13
32-5,759049406,-26
32-6,759053312,-67
32-7,759057218,-84
32-8,759061124,-11
32-9,759065030,80
32-10,759068936,62
32-11,759072842,-39
32-12,759076748,-130
32-13,759080654,-167
32-14,759084560,-202
32-15,759088466,-182
32-16,759092372,-18
32-17,759096278,74
32-18,759100184,27
32-19,759104090,11
32-20,759107996,-5
32-21,759111902,-72
32-22,759115808,-151
32-23,759119714,-141
32-24,759123620,-16
32-25,759127526,38
32-26,759131432,23
32-27,759135338,-5
32-28,759139244,-80
32-29,759143150,-92
32-30,759147056,-87
32-31,759150962,-63
32-32,759154868,59
32-1,759158963,100
32-2,759162869,50
32-3,759166775,41
32-4,759170681,16
32-5,759174587,-53
32-6,759178493,-73
32-7,759182399,-2
32-8,759186305,39
32-9,759190211,-2
32-10,759194117,-85
32-11,759198023,-173
32-12,759201929,-204
32-13,759205835,-211
32-14,759209741,-137
32-15,759213647,34
32-16,759217553,92
32-17,759221459,40
32-18,759225365,-18
32-19,759229271,-71
32-20,759233177,-107
32-21,759237083,-125
32-22,759240989,-34
32-23,759244895,99
32-24,759248801,94
32-25,759252707,32
32-26,759256613,20
32-27,759260519,4
32-28,759264425,-58
32-29,759268331,-54
32-30,759272237,38
32-31,759276143,45
32-32,759280049,8
32-1,759283778,12
32-2,759287684,-29
32-3,759291590,-113
32-4,759295496,-175
32-5,759299402,-154
32-6,759303308,-115
32-7,759307214,-153
32-8,759311120,-181
32-9,759315026,-189
32-10,759318932,-188
32-11,759322838,-155
32-12,759326744,-142
32-13,759330650,-46
32-14,759334556,101
32-15,759338462,122
32-16,759342368,103
32-17,759346274,102
32-18,759350180,38
32-19,759354086,-74
32-20,759357992,-123
32-21,759361898,-25
32-22,759365804,69
32-23,759369710,8
32-24,759373616,-114
32-25,759377522,-182
32-26,759381428,-138
32-27,759385334,-78
32-28,759389240,-64
32-29,759393146,22
32-30,759397052,88
32-31,759400958,35
32-32,759404864,-1
32-1,759408775,4
32-2,759412681,-50
32-3,759416587,-139
32-4,759420493,-95
32-5,759424399,51
32-6,759428305,84
32-7,759432211,4
32-8,759436117,-69
32-9,759440023,-95
32-10,759443929,-119
32-11,759447835,-102
32-12,759451741,3
32-13,759455647,19
32-14,759459553,-75
32-15,759463459,-124
32-16,759467365,-127
32-17,759471271,-127
32-18,759475177,-153
32-19,759479083,-110
32-20,759482989,61
32-21,759486895,153
32-22,759490801,119
32-23,759494707,103
32-24,759498613,104
32-25,759502519,60
32-26,759506425,0
32-27,759510331,15
32-28,759514237,70
32-29,759518143,82
32-30,759522049,63
32-31,759525955,-10
32-32,759529861,-116
32-1,759533773,-202
32-2,759537679,-212
32-3,759541585,-63
32-4,759545491,69
32-5,759549397,67
32-6,759553303,45
32-7,759557209,-27
32-8,759561115,-135
32-9,759565021,-206
32-10,759568927,-184
32-11,759572833,-29
32-12,759576739,73
32-13,759580645,26
32-14,759584551,-72
32-15,759588457,-168
32-16,759592363,-224
32-17,759596269,-254
32-18,759600175,-170
32-19,759604081,15
32-20,759607987,75
32-21,759611893,-4
32-22,759615799,-130
32-23,759619705,-211
32-24,759623611,-214
32-25,759627517,-197
32-26,759631423,-50
32-27,759635329,110
32-28,759639235,78
32-29,759643141,-8
32-30,759647047,-94
32-31,759650953,-203
32-32,759654859,-272
32-1,759658770,-186
32-2,759662676,61
32-3,759666582,187
32-4,759670488,141
32-5,759674394,74
32-6,759678300,-36
32-7,759682206,-158
32-8,759686112,-241
32-9,759690018,-192
32-10,759693924,-14
32-11,759697830,53
32-12,759701736,-20
32-13,759705642,-106
32-14,759709548,-156
32-15,759713454,-200
32-16,759717360,-211
32-17,759721266,-54
32-18,759725172,122
32-19,759729078,105
32-20,759732984,-54
32-21,759736890,-203
32-22,759740796,-253
32-23,759744702,-268
32-24,759748608,-200
32-25,759752514,-24
32-26,759756420,48
32-27,759760326,-22
32-28,759764232,-138
32-29,759768138,-149
32-30,759772044,-112
32-31,759775950,-220
32-32,759779856,-182
32-1,759783768,55
32-2,759787674,122
32-3,759791580,102
32-4,759795486,122
32-5,759799392,88
32-6,759803298,-58
32-7,759807204,-198
32-8,759811110,-89
32-9,759815016,103
32-10,759818922,84
32-11,759822828,-38
32-12,759826734,-122
32-13,759830640,-137
32-14,759834546,-156
32-15,759838452,-162
32-16,759842358,6
32-17,759846264,166
32-18,759850170,100
32-19,759854076,-74
32-20,759857982,-193
32-21,759861888,-226
32-22,759865794,-261
32-23,759869700,-172
32-24,759873606,68
32-25,759877512,112
32-26,759881418,15
32-27,759885324,-51
32-28,759889230,-137
32-29,759893136,-148
32-30,759897042,-154
32-31,759900948,-101
32-32,759904854,91
32-1,759908766,109
32-2,759912672,-51
32-3,759916578,-142
32-4,759920484,-145
32-5,759924390,-167
32-6,759928296,-169
32-7,759932202,11
32-8,759936108,150
32-9,759940014,100
32-10,759943920,58
32-11,759947826,13
32-12,759951732,-105
32-13,759955638,-221
32-14,759959544,-173
32-15,759963450,38
32-16,759967356,124
32-17,759971262,19
32-18,759975168,-105
32-19,759979074,-150
32-20,759982980,-168
32-21,759986886,-194
32-22,759990792,-83
32-23,759994698,128
32-24,759998604,182
32-25,760002510,69
32-26,760006416,3
32-27,760010322,15
32-28,760014228,-59
32-29,760018134,-64
32-30,760022040,100
32-31,760025946,160
32-32,760029852,126
32-1,760033763,81
32-2,760037669,-46
32-3,760041575,-155
32-4,760045481,-214
32-5,760049387,-144
32-6,760053293,87
32-7,760057199,180
32-8,760061105,70
32-9,760065011,-67
32-10,760068917,-166
32-11,760072823,-212
32-12,760076729,-223
32-13,760080635,-103
32-14,760084541,96
32-15,760088447,106
32-16,760092353,-66
32-17,760096259,-233
32-18,760100165,-288
32-19,760104071,-295
32-20,760107977,-271
32-21,760111883,-152
32-22,760115789,-144
32-23,760119695,-241
32-24,760123601,-260
32-25,760127507,-261
32-26,760131413,-181
32-27,760135319,-109
32-28,760139225,-98
32-29,760143131,62
32-30,760147037,165
32-31,760150943,100
32-32,760154849,99
32-1,760158761,114
32-2,760162667,27
32-3,760166573,-73
32-4,760170479,-24
32-5,760174385,95
32-6,760178291,89
32-7,760182197,-3
32-8,760186103,-104
32-9,760190009,-155
32-10,760193915,-168
32-11,760197821,-161
32-12,760201727,-31
32-13,760205633,115
32-14,760209539,127
32-15,760213445,41
32-16,760217351,-85
32-17,760221257,-161
32-18,760225163,-209
32-19,760229069,-177
32-20,760232975,15
32-21,760236881,107
32-22,760240787,-24
32-23,760244693,-153
32-24,760248599,-195
32-25,760252505,-238
32-26,760256411,-209
32-27,760260317,-2
32-28,760264223,177
32-29,760268129,178
32-30,760272035,114
32-31,760275941,11
32-32,760279847,-87
32-1,760283759,-173
32-2,760287665,-217
32-3,760291571,-78
32-4,760295477,111
32-5,760299383,132
32-6,760303289,11
32-7,760307195,-131
32-8,760311101,-209
32-9,760315007,-269
32-10,760318913,-217
32-11,760322819,46
32-12,760326725,179
32-13,760330631,59
32-14,760334537,-87
32-15,760338443,-179
32-16,760342349,-208
32-17,760346255,-195
32-18,760350161,-65
32-19,760354067,136
32-20,760357973,173
32-21,760361879,78
32-22,760365785,-43
32-23,760369691,-135
32-24,760373597,-175
32-25,760377503,-211
32-26,760381409,-91
32-27,760385315,86
32-28,760389221,65
32-29,760393127,-12
32-30,760397033,-79
32-31,760400939,-173
32-32,760404845,-244
32-1,760408756,-202
32-2,760412662,4
32-3,760416568,133
32-4,760420474,78
32-5,760424380,-13
32-6,760428286,-105
32-7,760432192,-169
32-8,760436098,-212
32-9,760440004,-127
32-10,760443910,101
32-11,760447816,191
32-12,760451722,138
32-13,760455628,29
32-14,760459534,-114
32-15,760463440,-204
32-16,760467346,-229
32-17,760471252,-90
32-18,760475158,97
32-19,760479064,24
32-20,760482970,-173
32-21,760486876,-267
32-22,760490782,-269
32-23,760494688,-276
32-24,760498594,-235
32-25,760502500,-31
32-26,760506406,142
32-27,760510312,86
32-28,760514218,-82
32-29,760518124,-158
32-30,760522030,-167
32-31,760525936,-257
32-32,760529842,-203
32-1,760533754,31
32-2,760537660,90
32-3,760541566,19
32-4,760545472,-57
32-5,760549378,-176
32-6,760553284,-261
32-7,760557190,-251
32-8,760561096,-78
32-9,760565002,110
32-10,760568908,71
32-11,760572814,-81
32-12,760576720,-169
32-13,760580626,-196
32-14,760584532,-191
32-15,760588438,-97
32-16,760592344,99
32-17,760596250,201
32-18,760600156,170
32-19,760604062,123
32-20,760607968,44
32-21,760611874,-51
32-22,760615780,-117
32-23,760619686,-52
32-24,760623592,116
32-25,760627498,137
32-26,760631404,79
32-27,760635310,34
32-28,760639216,-47
32-29,760643122,-25
32-30,760647028,32
32-31,760650934,49
32-32,760654840,133
32-1,760658752,191
32-2,760662658,157
32-3,760666564,101
32-4,760670470,58
32-5,760674376,-3
32-6,760678282,-57
32-7,760682188,15
32-8,760686094,95
32-9,760690000,52
32-10,760693906,-19
32-11,760697812,-65
32-12,760701718,-86
32-13,760705624,-97
32-14,760709530,-73
32-15,760713436,25
32-16,760717342,85
32-17,760721248,64
32-18,760725154,-15
32-19,760729060,-107
32-20,760732966,-172
32-21,760736872,-207
32-22,760740778,-124
32-23,760744684,31
32-24,760748590,75
32-25,760752496,10
32-26,760756402,-40
32-27,760760308,-35
32-28,760764214,-59
32-29,760768120,-68
32-30,760772026,33
32-31,760775932,83
32-32,760779838,50
32-1,760783749,14
32-2,760787655,-54
32-3,760791561,-123
32-4,760795467,-181
32-5,760799373,-140
32-6,760803279,21
32-7,760807185,85
32-8,760811091,31
32-9,760814997,-13
32-10,760818903,-51
32-11,760822809,-102
32-12,760826715,-134
32-13,760830621,-55
32-14,760834527,68
32-15,760838433,78
32-16,760842339,41
32-17,760846245,9
32-18,760850151,-30
32-19,760854057,-81
32-20,760857963,-94
32-21,760861869,15
32-22,760865775,97
32-23,760869681,66
32-24,760873587,0
32-25,760877493,-118
32-26,760881399,-157
32-27,760885305,-123
32-28,760889211,-113
32-29,760893117,-12
32-30,760897023,63
32-31,760900929,22
32-32,760904835,-7
32-1,760908747,-49
32-2,760912653,-122
32-3,760916559,-167
32-4,760920465,-73
32-5,760924371,87
32-6,760928277,107
32-7,760932183,30
32-8,760936089,-46
32-9,760939995,-95
32-10,760943901,-126
32-11,760947807,-121
32-12,760951713,35
32-13,760955619,178
32-14,760959525,136
32-15,760963431,48
32-16,760967337,-7
32-17,760971243,-54
32-18,760975149,-123
32-19,760979055,-113
32-20,760982961,38
32-21,760986867,117
32-22,760990773,87
32-23,760994679,56
32-24,760998585,-15
32-25,761002491,-111
32-26,761006397,-130
32-27,761010303,-23
32-28,761014209,82
32-29,761018115,79
32-30,761022021,61
32-31,761025927,33
32-32,761029833,-32
32-1,761033744,-91
32-2,761037650,-123
32-3,761041556,-36
32-4,761045462,80
32-5,761049368,57
32-6,761053274,-26
32-7,761057180,-86
32-8,761061086,-130
32-9,761064992,-182
32-10,761068898,-169
32-11,761072804,-9
32-12,761076710,91
32-13,761080616,33
32-14,761084522,-51
32-15,761088428,-107
32-16,761092334,-139
32-17,761096240,-159
32-18,761100146,-58
32-19,761104052,109
32-20,761107958,117
32-21,761111864,54
32-22,761115770,-2
32-23,761119676,-81
32-24,761123582,-126
32-25,761127488,-105
32-26,761131394,21
32-27,761135300,122
32-28,761139206,69
32-29,761143112,8
32-30,761147018,-27
32-31,761150924,-106
32-32,761154830,-199
32-1,761158742,-182
32-2,761162648,11
32-3,761166554,159
32-4,761170460,149
32-5,761174366,85
32-6,761178272,2
32-7,761182178,-80
32-8,761186084,-142
32-9,761189990,-84
32-10,761193896,71
32-11,761197802,90
32-12,761201708,-5
32-13,761205614,-84
32-14,761209520,-133
32-15,761213426,-174
32-16,761217332,-184
32-17,761221238,-53
32-18,761225144,92
32-19,761229050,92
32-20,761232956,47
32-21,761236862,-20
32-22,761240768,-104
32-23,761244674,-160
32-24,761248580,-117
32-25,761252486,61
32-26,761256392,151
32-27,761260298,87
32-28,761264204,28
32-29,761268110,3
32-30,761272016,-40
32-31,761275922,-124
32-32,761279828,-99
32-1,761283740,76
32-2,761287646,157
32-3,761291552,123
32-4,761295458,95
32-5,761299364,62
32-6,761303270,-18
32-7,761307176,-83
32-8,761311082,-16
32-9,761314988,71
32-10,761318894,51
32-11,761322800,2
32-12,761326706,-30
32-13,761330612,-39
32-14,761334518,-79
32-15,761338424,-98
32-16,761342330,39
32-17,761346236,140
32-18,761350142,86
32-19,761354048,11
32-20,761357954,-52
32-21,761361860,-92
32-22,761365766,-122
32-23,761369672,-68
32-24,761373578,105
32-25,761377484,156
32-26,761381390,114
32-27,761385296,109
32-28,761389202,69
32-29,761393108,38
32-30,761397014,25
32-31,761400920,33
32-32,761404826,96
32-1,761408737,100
32-2,761412643,66
32-3,761416549,67
32-4,761420455,47
32-5,761424361,-25
32-6,761428267,-66
32-7,761432173,11
32-8,761436079,94
32-9,761439985,75
32-10,761443891,-2
32-11,761447797,-69
32-12,761451703,-100
32-13,761455609,-151
32-14,761459515,-124
32-15,761463421,40
32-16,761467327,119
32-17,761471233,75
32-18,761475139,5
32-19,761479045,-63
32-20,761482951,-106
32-21,761486857,-108
32-22,761490763,-5
32-23,761494669,122
32-24,761498575,91
32-25,761502481,-50
32-26,761506387,-86
32-27,761510293,-35
32-28,761514199,-67
32-29,761518105,-57
32-30,761522011,76
32-31,761525917,129
32-32,761529823,101
32-1,761533735,78
32-2,761537641,57
32-3,761541547,30
32-4,761545453,-62
32-5,761549359,-76
32-6,761553265,70
32-7,761557171,121
32-8,761561077,10
32-9,761564983,-93
32-10,761568889,-130
32-11,761572795,-147
32-12,761576701,-166
32-13,761580607,-70
32-14,761584513,86
32-15,761588419,127
32-16,761592325,75
32-17,761596231,-17
32-18,761600137,-93
32-19,761604043,-156
32-20,761607949,-187
32-21,761611855,-59
32-22,761615761,79
32-23,761619667,93
32-24,761623573,73
32-25,761627479,12
32-26,761631385,-24
32-27,761635291,-26
32-28,761639197,-31
32-29,761643103,35
32-30,761647009,71
32-31,761650915,24
32-32,761654821,-6
32-1,761658733,-52
32-2,761662639,-135
32-3,761666545,-173
32-4,761670451,-75
32-5,761674357,71
32-6,761678263,82
32-7,761682169,8
32-8,761686075,-56
32-9,761689981,-106
32-10,761693887,-158
32-11,761697793,-164
32-12,761701699,-31
32-13,761705605,85
32-14,761709511,58
32-15,761713417,7
32-16,761717323,-37
32-17,761721229,-99
32-18,761725135,-153
32-19,761729041,-101
32-20,761732947,64
32-21,761736853,131
32-22,761740759,91
32-23,761744665,60
32-24,761748571,7
32-25,761752477,-63
32-26,761756383,-65
32-27,761760289,22
32-28,761764195,98
32-29,761768101,90
32-30,761772007,58
32-31,761775913,24
32-32,761779819,-17
32-1,761783791,-86
32-2,761787697,-135
32-3,761791603,-30
32-4,761795509,83
32-5,761799415,49
32-6,761803321,-5
32-7,761807227,-47
32-8,761811133,-112
32-9,761815039,-176
32-10,761818945,-161
32-11,761822851,-23
32-12,761826757,74
32-13,761830663,54
32-14,761834569,-23
32-15,761838475,-93
32-16,761842381,-116
32-17,761846287,-133
32-18,761850193,-29
32-19,761854099,164
32-20,761858005,190
32-21,761861911,144
32-22,761865817,111
32-23,761869723,7
32-24,761873629,-95
32-25,761877535,-104
32-26,761881441,9
32-27,761885347,96
32-28,761889253,57
32-29,761893159,32
32-30,761897065,11
32-31,761900971,-78
32-32,761904877,-171
32-1,761908728,-156
32-2,761912634,-1
32-3,761916540,95
32-4,761920446,59
32-5,761924352,12
32-6,761928258,-30
32-7,761932164,-96
32-8,761936070,-162
32-9,761939976,-101
32-10,761943882,42
32-11,761947788,55
32-12,761951694,-38
32-13,761955600,-140
32-14,761959506,-181
32-15,761963412,-185
32-16,761967318,-207
32-17,761971224,-91
32-18,761975130,82
32-19,761979036,103
32-20,761982942,72
32-21,761986848,29
32-22,761990754,-33
32-23,761994660,-76
32-24,761998566,-60
32-25,762002472,52
32-26,762006378,140
32-27,762010284,109
32-28,762014190,40
32-29,762018096,26
32-30,762022002,30
32-31,762025908,-27
32-32,762029814,-57
32-1,762033725,-33
32-2,762037631,-68
32-3,762041537,-116
32-4,762045443,-129
32-5,762049349,-118
32-6,762053255,-107
32-7,762057161,-116
32-8,762061067,-31
32-9,762064973,102
32-10,762068879,109
32-11,762072785,37
32-12,762076691,-48
32-13,762080597,-133
32-14,762084503,-209
32-15,762088409,-201
32-16,762092315,-67
32-17,762096221,-36
32-18,762100127,-151
32-19,762104033,-203
32-20,762107939,-180
32-21,762111845,-168
32-22,762115751,-201
32-23,762119657,-115
32-24,762123563,106
32-25,762127469,187
32-26,762131375,152
32-27,762135281,136
32-28,762139187,130
32-29,762143093,139
32-30,762146999,107
32-31,762150905,65
32-32,762154811,71
32-1,762158754,77
32-2,762162660,56
32-3,762166566,7
32-4,762170472,-42
32-5,762174378,-95
32-6,762178284,-97
32-7,762182190,23
32-8,762186096,98
32-9,762190002,62
32-10,762193908,20
32-11,762197814,-24
32-12,762201720,-85
32-13,762205626,-117
32-14,762209532,-43
32-15,762213438,43
32-16,762217344,-17
32-17,762221250,-96
32-18,762225156,-114
32-19,762229062,-113
32-20,762232968,-107
32-21,762236874,-127
32-22,762240780,-45
32-23,762244686,131
32-24,762248592,176
32-25,762252498,120
32-26,762256404,101
32-27,762260310,103
32-28,762264216,64
32-29,762268122,53
32-30,762272028,94
32-31,762275934,72
32-32,762279840,16
32-1,762283721,-4
32-2,762287627,-29
32-3,762291533,-68
32-4,762295439,-112
32-5,762299345,-74
32-6,762303251,57
32-7,762307157,87
32-8,762311063,14
32-9,762314969,-48
32-10,762318875,-99
32-11,762322781,-136
32-12,762326687,-140
32-13,762330593,-67
32-14,762334499,7
32-15,762338405,-43
32-16,762342311,-130
32-17,762346217,-161
32-18,762350123,-163
32-19,762354029,-176
32-20,762357935,-161
32-21,762361841,-34
32-22,762365747,77
32-23,762369653,60
32-24,762373559,-18
32-25,762377465,-96
32-26,762381371,-94
32-27,762385277,-53
32-28,762389183,-9
32-29,762393089,91
32-30,762396995,114
32-31,762400901,44
32-32,762404807,45
32-1,762408840,64
32-2,762412746,34
32-3,762416652,-6
32-4,762420558,-13
32-5,762424464,14
32-6,762428370,0
32-7,762432276,-76
32-8,762436182,-147
32-9,762440088,-171
32-10,762443994,-195
32-11,762447900,-207
32-12,762451806,-112
32-13,762455712,-21
32-14,762459618,-27
32-15,762463524,-60
32-16,762467430,-108
32-17,762471336,-149
32-18,762475242,-180
32-19,762479148,-153
32-20,762483054,-8
32-21,762486960,78
32-22,762490866,25
32-23,762494772,-28
32-24,762498678,-74
32-25,762502584,-165
32-26,762506490,-187
32-27,762510396,-70
32-28,762514302,36
32-29,762518208,42
32-30,762522114,14
32-31,762526020,-1
32-32,762529926,-10
32-1,762533716,-75
32-2,762537622,-135
32-3,762541528,-61
32-4,762545434,21
32-5,762549340,0
32-6,762553246,-42
32-7,762557152,-78
32-8,762561058,-113
32-9,762564964,-148
32-10,762568870,-140
32-11,762572776,-85
32-12,762576682,-111
32-13,762580588,-176
32-14,762584494,-175
32-15,762588400,-152
32-16,762592306,-155
32-17,762596212,-172
32-18,762600118,-72
32-19,762604024,87
32-20,762607930,90
32-21,762611836,35
32-22,762615742,29
32-23,762619648,1
32-24,762623554,-89
32-25,762627460,-174
32-26,762631366,-91
32-27,762635272,40
32-28,762639178,27
32-29,762643084,19
32-30,762646990,27
32-31,762650896,-58
32-32,762654802,-169
32-1,762658714,-137
32-2,762662620,54
32-3,762666526,141
32-4,762670432,84
32-5,762674338,40
32-6,762678244,-5
32-7,762682150,-67
32-8,762686056,-134
32-9,762689962,-85
32-10,762693868,79
32-11,762697774,112
32-12,762701680,43
32-13,762705586,-7
32-14,762709492,-67
32-15,762713398,-129
32-16,762717304,-137
32-17,762721210,-40
32-18,762725116,45
32-19,762729022,34
32-20,762732928,-12
32-21,762736834,-87
32-22,762740740,-137
32-23,762744646,-160
32-24,762748552,-158
32-25,762752458,-45
32-26,762756364,57
32-27,762760270,42
32-28,762764176,1
32-29,762768082,10
32-30,762771988,8
32-31,762775894,-90
32-32,762779800,-97
32-1,762783711,50
32-2,762787617,103
32-3,762791523,65
32-4,762795429,35
32-5,762799335,-22
32-6,762803241,-92
32-7,762807147,-134
32-8,762811053,-75
32-9,762814959,24
32-10,762818865,13
32-11,762822771,-65
32-12,762826677,-112
32-13,762830583,-146
32-14,762834489,-195
32-15,762838395,-167
32-16,762842301,-51
32-17,762846207,-41
32-18,762850113,-132
32-19,762854019,-181
32-20,762857925,-165
32-21,762861831,-145
32-22,762865737,-178
32-23,762869643,-122
32-24,762873549,58
32-25,762877455,139
32-26,762881361,120
32-27,762885267,116
32-28,762889173,137
32-29,762893079,159
32-30,762896985,114
32-31,762900891,78
32-32,762904797,120
32-1,762908739,112
32-2,762912645,12
32-3,762916551,-82
32-4,762920457,-102
32-5,762924363,-125
32-6,762928269,-150
32-7,762932175,-41
32-8,762936081,86
32-9,762939987,88
32-10,762943893,45
32-11,762947799,13
32-12,762951705,-30
32-13,762955611,-112
32-14,762959517,-124
32-15,762963423,14
32-16,762967329,92
32-17,762971235,19
32-18,762975141,-89
32-19,762979047,-153
32-20,762982953,-175
32-21,762986859,-201
32-22,762990765,-124
32-23,762994671,44
32-24,762998577,88
32-25,763002483,24
32-26,763006389,-5
32-27,763010295,-5
32-28,763014201,-31
32-29,763018107,-23
32-30,763022013,68
32-31,763025919,101
32-32,763029825,64
32-1,763033829,50
32-2,763037735,6
32-3,763041641,-66
32-4,763045547,-118
32-5,763049453,-88
32-6,763053359,22
32-7,763057265,55
32-8,763061171,-15
32-9,763065077,-105
32-10,763068983,-181
32-11,763072889,-235
32-12,763076795,-270
32-13,763080701,-162
32-14,763084607,18
32-15,763088513,39
32-16,763092419,-21
32-17,763096325,-84
32-18,763100231,-159
32-19,763104137,-191
32-20,763108043,-155
32-21,763111949,-17
32-22,763115855,90
32-23,763119761,39
32-24,763123667,-70
32-25,763127573,-143
32-26,763131479,-120
32-27,763135385,-79
32-28,763139291,-53
32-29,763143197,62
32-30,763147103,123
32-31,763151009,59
32-32,763154915,20
32-1,763158704,12
32-2,763162610,-30
32-3,763166516,-89
32-4,763170422,-42
32-5,763174328,44
32-6,763178234,12
32-7,763182140,-67
32-8,763186046,-136
32-9,763189952,-177
32-10,763193858,-183
32-11,763197764,-169
32-12,763201670,-32
32-13,763205576,112
32-14,763209482,101
32-15,763213388,26
32-16,763217294,-45
32-17,763221200,-118
32-18,763225106,-177
32-19,763229012,-137
32-20,763232918,11
32-21,763236824,73
32-22,763240730,42
32-23,763244636,40
32-24,763248542,16
32-25,763252448,-62
32-26,763256354,-79
32-27,763260260,40
32-28,763264166,142
32-29,763268072,125
32-30,763271978,77
32-31,763275884,28
32-32,763279790,-8
32-1,763283702,-62
32-2,763287608,-114
32-3,763291514,-11
32-4,763295420,133
32-5,763299326,130
32-6,763303232,57
32-7,763307138,-9
32-8,763311044,-50
32-9,763314950,-101
32-10,763318856,-109
32-11,763322762,10
32-12,763326668,97
32-13,763330574,69
32-14,763334480,13
32-15,763338386,-42
32-16,763342292,-81
32-17,763346198,-118
32-18,763350104,-69
32-19,763354010,68
32-20,763357916,91
32-21,763361822,-7
32-22,763365728,-123
32-23,763369634,-176
32-24,763373540,-177
32-25,763377446,-191
32-26,763381352,-83
32-27,763385258,74
32-28,763389164,55
32-29,763393070,11
32-30,763396976,19
32-31,763400882,-31
32-32,763404788,-116
32-1,763408699,-99
32-2,763412605,53
32-3,763416511,126
32-4,763420417,80
32-5,763424323,61
32-6,763428229,-4
32-7,763432135,-113
32-8,763436041,-159
32-9,763439947,-85
32-10,763443853,55
32-11,763447759,78
32-12,763451665,1
32-13,763455571,-62
32-14,763459477,-97
32-15,763463383,-129
32-16,763467289,-144
32-17,763471195,-35
32-18,763475101,117
32-19,763479007,140
32-20,763482913,82
32-21,763486819,9
32-22,763490725,-51
32-23,763494631,-111
32-24,763498537,-140
32-25,763502443,-29
32-26,763506349,90
32-27,763510255,81
32-28,763514161,28
32-29,763518067,25
32-30,763521973,27
32-31,763525879,-58
32-32,763529785,-63
32-1,763533697,97
32-2,763537603,166
32-3,763541509,126
32-4,763545415,115
32-5,763549321,84
32-6,763553227,0
32-7,763557133,-63
32-8,763561039,-4
32-9,763564945,88
32-10,763568851,74
32-11,763572757,-10
32-12,763576663,-121
32-13,763580569,-200
32-14,763584475,-227
32-15,763588381,-208
32-16,763592287,-79
32-17,763596193,50
32-18,763600099,54
32-19,763604005,-3
32-20,763607911,-76
32-21,763611817,-132
32-22,763615723,-165
32-23,763619629,-106
32-24,763623535,43
32-25,763627441,75
32-26,763631347,26
32-27,763635253,0
32-28,763639159,-55
32-29,763643065,-76
32-30,763646971,-85
32-31,763650877,-83
32-32,763654783,-6
32-1,763658695,55
32-2,763662601,58
32-3,763666507,0
32-4,763670413,-99
32-5,763674319,-194
32-6,763678225,-213
32-7,763682131,-57
32-8,763686037,85
32-9,763689943,40
32-10,763693849,-63
32-11,763697755,-135
32-12,763701661,-154
32-13,763705567,-153
32-14,763709473,-88
32-15,763713379,77
32-16,763717285,152
32-17,763721191,97
32-18,763725097,30
32-19,763729003,-18
32-20,763732909,-67
32-21,763736815,-116
32-22,763740721,-32
32-23,763744627,128
32-24,763748533,128
32-25,763752439,30
32-26,763756345,0
32-27,763760251,1
32-28,763764157,-45
32-29,763768063,-61
32-30,763771969,20
32-31,763775875,77
32-32,763779781,77
32-1,763783875,63
32-2,763787781,-9
32-3,763791687,-120
32-4,763795593,-190
32-5,763799499,-127
32-6,763803405,27
32-7,763807311,66
32-8,763811217,-13
32-9,763815123,-96
32-10,763819029,-151
32-11,763822935,-179
32-12,763826841,-212
32-13,763830747,-148
32-14,763834653,1
32-15,763838559,34
32-16,763842465,-11
32-17,763846371,-61
32-18,763850277,-123
32-19,763854183,-177
32-20,763858089,-195
32-21,763861995,-77
32-22,763865901,52
32-23,763869807,49
32-24,763873713,-4
32-25,763877619,-78
32-26,763881525,-89
32-27,763885431,-53
32-28,763889337,-39
32-29,763893243,70
32-30,763897149,142
32-31,763901055,79
32-32,763904961,37
32-1,763908690,17
32-2,763912596,-25
32-3,763916502,-55
32-4,763920408,6
32-5,763924314,117
32-6,763928220,126
32-7,763932126,60
32-8,763936032,-22
32-9,763939938,-73
32-10,763943844,-99
32-11,763947750,-108
32-12,763951656,9
32-13,763955562,125
32-14,763959468,67
32-15,763963374,-38
32-16,763967280,-105
32-17,763971186,-136
32-18,763975092,-163
32-19,763978998,-132
32-20,763982904,-13
32-21,763986810,-11
32-22,763990716,-108
32-23,763994622,-118
32-24,763998528,-109
32-25,764002434,-138
32-26,764006340,-116
32-27,764010246,-9
32-28,764014152,96
32-29,764018058,139
32-30,764021964,123
32-31,764025870,81
32-32,764029776,70
32-1,764033688,49
32-2,764037594,11
32-3,764041500,52
32-4,764045406,114
32-5,764049312,88
32-6,764053218,-3
32-7,764057124,-81
32-8,764061030,-110
32-9,764064936,-152
32-10,764068842,-147
32-11,764072748,-25
32-12,764076654,53
32-13,764080560,26
32-14,764084466,-43
32-15,764088372,-134
32-16,764092278,-197
32-17,764096184,-215
32-18,764100090,-129
32-19,764103996,32
32-20,764107902,74
32-21,764111808,-15
32-22,764115714,-127
32-23,764119620,-186
32-24,764123526,-211
32-25,764127432,-221
32-26,764131338,-81
32-27,764135244,93
32-28,764139150,104
32-29,764143056,57
32-30,764146962,11
32-31,764150868,-85
32-32,764154774,-186
32-1,764158685,-156
32-2,764162591,12
32-3,764166497,86
32-4,764170403,34
32-5,764174309,15
32-6,764178215,-2
32-7,764182121,-84
32-8,764186027,-176
32-9,764189933,-142
32-10,764193839,-1
32-11,764197745,54
32-12,764201651,9
32-13,764205557,-49
32-14,764209463,-103
32-15,764213369,-148
32-16,764217275,-165
32-17,764221181,-92
32-18,764225087,10
32-19,764228993,16
32-20,764232899,-52
32-21,764236805,-114
32-22,764240711,-146
32-23,764244617,-198
32-24,764248523,-207
32-25,764252429,-82
32-26,764256335,12
32-27,764260241,-7
32-28,764264147,-48
32-29,764268053,-56
32-30,764271959,-79
32-31,764275865,-180
32-32,764279771,-158
32-1,764283683,19
32-2,764287589,53
32-3,764291495,-11
32-4,764295401,-17
32-5,764299307,-23
32-6,764303213,-75
32-7,764307119,-128
32-8,764311025,-76
32-9,764314931,-11
32-10,764318837,-70
32-11,764322743,-157
32-12,764326649,-196
32-13,764330555,-192
32-14,764334461,-197
32-15,764338367,-165
32-16,764342273,-11
32-17,764346179,86
32-18,764350085,45
32-19,764353991,0
32-20,764357897,-32
32-21,764361803,-64
32-22,764365709,-121
32-23,764369615,-97
32-24,764373521,61
32-25,764377427,86
32-26,764381333,-11
32-27,764385239,-48
32-28,764389145,-69
32-29,764393051,-74
32-30,764396957,-93
32-31,764400863,-87
32-32,764404769,7
32-1,764408711,28
32-2,764412617,-16
32-3,764416523,-23
32-4,764420429,-44
32-5,764424335,-119
32-6,764428241,-142
32-7,764432147,3
32-8,764436053,111
32-9,764439959,49
32-10,764443865,-37
32-11,764447771,-98
32-12,764451677,-136
32-13,764455583,-163
32-14,764459489,-108
32-15,764463395,47
32-16,764467301,55
32-17,764471207,-81
32-18,764475113,-156
32-19,764479019,-147
32-20,764482925,-146
32-21,764486831,-161
32-22,764490737,-66
32-23,764494643,29
32-24,764498549,-54
32-25,764502455,-139
32-26,764506361,-68
32-27,764510267,20
32-28,764514173,-32
32-29,764518079,-59
32-30,764521985,67
32-31,764525891,129
32-32,764529797,95
32-1,764533709,88
32-2,764537615,75
32-3,764541521,45
32-4,764545427,17
32-5,764549333,0
32-6,764553239,-12
32-7,764557145,-42
32-8,764561051,-64
32-9,764564957,-88
32-10,764568863,-115
32-11,764572769,-139
32-12,764576675,-159
32-13,764580581,-74
32-14,764584487,73
32-15,764588393,115
32-16,764592299,74
32-17,764596205,16
32-18,764600111,-24
32-19,764604017,-52
32-20,764607923,-79
32-21,764611829,-5
32-22,764615735,74
32-23,764619641,38
32-24,764623547,-39
32-25,764627453,-138
32-26,764631359,-155
32-27,764635265,-97
32-28,764639171,-59
32-29,764643077,36
32-30,764646983,93
32-31,764650889,59
32-32,764654795,44
32-1,764658676,10
32-2,764662582,-73
32-3,764666488,-151
32-4,764670394,-110
32-5,764674300,20
32-6,764678206,70
32-7,764682112,54
32-8,764686018,-1
32-9,764689924,-76
32-10,764693830,-129
32-11,764697736,-141
32-12,764701642,-37
32-13,764705548,78
32-14,764709454,71
32-15,764713360,11
32-16,764717266,-61
32-17,764721172,-127
32-18,764725078,-147
32-19,764728984,-88
32-20,764732890,39
32-21,764736796,108
32-22,764740702,52
32-23,764744608,-57
32-24,764748514,-137
32-25,764752420,-178
32-26,764756326,-159
32-27,764760232,-31
32-28,764764138,96
32-29,764768044,104
32-30,764771950,69
32-31,764775856,49
32-32,764779762,22
32-1,764783673,-43
32-2,764787579,-86
32-3,764791485,-25
32-4,764795391,8
32-5,764799297,-66
32-6,764803203,-116
32-7,764807109,-110
32-8,764811015,-104
32-9,764814921,-124
32-10,764818827,-97
32-11,764822733,57
32-12,764826639,158
32-13,764830545,115
32-14,764834451,76
32-15,764838357,62
32-16,764842263,-7
32-17,764846169,-97
32-18,764850075,-36
32-19,764853981,124
32-20,764857887,140
32-21,764861793,73
32-22,764865699,31
32-23,764869605,-20
32-24,764873511,-88
32-25,764877417,-142
32-26,764881323,-55
32-27,764885229,96
32-28,764889135,107
32-29,764893041,78
32-30,764896947,64
32-31,764900853,-9
32-32,764904759,-93
32-1,764908671,-89
32-2,764912577,37
32-3,764916483,134
32-4,764920389,116
32-5,764924295,59
32-6,764928201,-25
32-7,764932107,-121
32-8,764936013,-174
32-9,764939919,-104
32-10,764943825,38
32-11,764947731,72
32-12,764951637,12
32-13,764955543,-64
32-14,764959449,-128
32-15,764963355,-173
32-16,764967261,-185
32-17,764971167,-73
32-18,764975073,61
32-19,764978979,43
32-20,764982885,-31
32-21,764986791,-72
32-22,764990697,-93
32-23,764994603,-125
32-24,764998509,-124
32-25,765002415,-15
32-26,765006321,79
32-27,765010227,60
32-28,765014133,16
32-29,765018039,14
32-30,765021945,10
32-31,765025851,-55
32-32,765029757,-73
32-1,765033669,16
32-2,765037575,60
32-3,765041481,36
32-4,765045387,22
32-5,765049293,-5
32-6,765053199,-76
32-7,765057105,-127
32-8,765061011,-49
32-9,765064917,46
32-10,765068823,30
32-11,765072729,-34
32-12,765076635,-123
32-13,765080541,-193
32-14,765084447,-218
32-15,765088353,-200
32-16,765092259,-56
32-17,765096165,78
32-18,765100071,73
32-19,765103977,23
32-20,765107883,-52
32-21,765111789,-133
32-22,765115695,-181
32-23,765119601,-120
32-24,765123507,26
32-25,765127413,42
32-26,765131319,-8
32-27,765135225,-29
32-28,765139131,-95
32-29,765143037,-120
32-30,765146943,-113
32-31,765150849,-73
32-32,765154755,26
32-1,765158666,24
32-2,765162572,-30
32-3,765166478,-33
32-4,765170384,-74
32-5,765174290,-172
32-6,765178196,-197
32-7,765182102,-70
32-8,765186008,30
32-9,765189914,-7
32-10,765193820,-62
32-11,765197726,-108
32-12,765201632,-155
32-13,765205538,-190
32-14,765209444,-145
32-15,765213350,-20
32-16,765217256,15
32-17,765221162,-60
32-18,765225068,-143
32-19,765228974,-175
32-20,765232880,-170
32-21,765236786,-176
32-22,765240692,-79
32-23,765244598,91
32-24,765248504,122
32-25,765252410,54
32-26,765256316,28
32-27,765260222,38
32-28,765264128,1
32-29,765268034,-21
32-30,765271940,43
32-31,765275846,67
32-32,765279752,40
32-1,765283664,-1
32-2,765287570,-74
32-3,765291476,-115
32-4,765295382,-159
32-5,765299288,-154
32-6,765303194,-13
32-7,765307100,76
32-8,765311006,30
32-9,765314912,-62
32-10,765318818,-143
32-11,765322724,-175
32-12,765326630,-179
32-13,765330536,-96
32-14,765334442,47
32-15,765338348,93
32-16,765342254,58
32-17,765346160,2
32-18,765350066,-37
32-19,765353972,-55
32-20,765357878,-64
32-21,765361784,32
32-22,765365690,138
32-23,765369596,115
32-24,765373502,40
32-25,765377408,-40
32-26,765381314,-58
32-27,765385220,-29
32-28,765389126,-21
32-29,765393032,56
32-30,765396938,126
32-31,765400844,92
32-32,765404750,60
32-1,765408662,23
32-2,765412568,-55
32-3,765416474,-99
32-4,765420380,-18
32-5,765424286,102
32-6,765428192,97
32-7,765432098,20
32-8,765436004,-73
32-9,765439910,-161
32-10,765443816,-195
32-11,765447722,-174
32-12,765451628,-46
32-13,765455534,97
32-14,765459440,109
32-15,765463346,57
32-16,765467252,5
32-17,765471158,-19
32-18,765475064,-41
32-19,765478970,-39
32-20,765482876,87
32-21,765486782,192
32-22,765490688,145
32-23,765494594,66
32-24,765498500,11
32-25,765502406,-54
32-26,765506312,-71
32-27,765510218,18
32-28,765514124,106
32-29,765518030,112
32-30,765521936,107
32-31,765525842,70
32-32,765529748,6
32-1,765533659,-34
32-2,765537565,-61
32-3,765541471,-7
32-4,765545377,77
32-5,765549283,57
32-6,765553189,-4
32-7,765557095,-49
32-8,765561001,-108
32-9,765564907,-178
32-10,765568813,-166
32-11,765572719,-23
32-12,765576625,72
32-13,765580531,52
32-14,765584437,-1
32-15,765588343,-71
32-16,765592249,-111
32-17,765596155,-106
32-18,765600061,-19
32-19,765603967,101
32-20,765607873,96
32-21,765611779,42
32-22,765615685,21
32-23,765619591,-26
32-24,765623497,-99
32-25,765627403,-121
32-26,765631309,7
32-27,765635215,117
32-28,765639121,71
32-29,765643027,35
32-30,765646933,-1
32-31,765650839,-102
32-32,765654745,-186
32-1,765658657,-180
32-2,765662563,-34
32-3,765666469,83
32-4,765670375,67
32-5,765674281,38
32-6,765678187,0
32-7,765682093,-72
32-8,765685999,-129
32-9,765689905,-73
32-10,765693811,27
32-11,765697717,-38
32-12,765701623,-165
32-13,765705529,-159
32-14,765709435,-112
32-15,765713341,-161
32-16,765717247,-207
32-17,765721153,-49
32-18,765725059,154
32-19,765728965,187
32-20,765732871,163
32-21,765736777,157
32-22,765740683,129
32-23,765744589,54
32-24,765748495,-6
32-25,765752401,14
32-26,765756307,42
32-27,765760213,22
32-28,765764119,-25
32-29,765768025,-24
32-30,765771931,-17
32-31,765775837,-114
32-32,765779743,-120
32-1,765783654,23
32-2,765787560,65
32-3,765791466,22
32-4,765795372,6
32-5,765799278,4
32-6,765803184,-35
32-7,765807090,-112
32-8,765810996,-63
32-9,765814902,73
32-10,765818808,72
32-11,765822714,-38
32-12,765826620,-135
32-13,765830526,-201
32-14,765834432,-249
32-15,765838338,-213
32-16,765842244,-54
32-17,765846150,43
32-18,765850056,18
32-19,765853962,-34
32-20,765857868,-106
32-21,765861774,-155
32-22,765865680,-179
32-23,765869586,-137
32-24,765873492,6
32-25,765877398,71
32-26,765881304,53
32-27,765885210,36
32-28,765889116,-19
32-29,765893022,-59
32-30,765896928,-76
32-31,765900834,-56
32-32,765904740,21
32-1,765908683,41
32-2,765912589,19
32-3,765916495,5
32-4,765920401,-39
32-5,765924307,-111
32-6,765928213,-133
32-7,765932119,-10
32-8,765936025,124
32-9,765939931,98
32-10,765943837,-10
32-11,765947743,-87
32-12,765951649,-109
32-13,765955555,-126
32-14,765959461,-74
32-15,765963367,74
32-16,765967273,126
32-17,765971179,61
32-18,765975085,-25
32-19,765978991,-96
32-20,765982897,-145
32-21,765986803,-190
32-22,765990709,-111
32-23,765994615,54
32-24,765998521,58
32-25,766002427,-64
32-26,766006333,-106
32-27,766010239,-93
32-28,766014145,-157
32-29,766018051,-180
32-30,766021957,-63
32-31,766025863,9
32-32,766029769,1
32-1,766033680,8
32-2,766037586,0
32-3,766041492,-65
32-4,766045398,-137
32-5,766049304,-93
32-6,766053210,-16
32-7,766057116,-79
32-8,766061022,-159
32-9,766064928,-150
32-10,766068834,-148
32-11,766072740,-174
32-12,766076646,-186
32-13,766080552,-81
32-14,766084458,87
32-15,766088364,109
32-16,766092270,58
32-17,766096176,43
32-18,766100082,-8
32-19,766103988,-101
32-20,766107894,-143
32-21,766111800,-56
32-22,766115706,32
32-23,766119612,16
32-24,766123518,-29
32-25,766127424,-97
32-26,766131330,-111
32-27,766135236,-69
32-28,766139142,-56
32-29,766143048,11
32-30,766146954,72
32-31,766150860,63
32-32,766154766,64
32-1,766158647,49
32-2,766162553,4
32-3,766166459,-43
32-4,766170365,-5
32-5,766174271,106
32-6,766178177,112
32-7,766182083,35
32-8,766185989,-32
32-9,766189895,-81
32-10,766193801,-130
32-11,766197707,-160
32-12,766201613,-47
32-13,766205519,89
32-14,766209425,71
32-15,766213331,-14
32-16,766217237,-83
32-17,766221143,-136
32-18,766225049,-187
32-19,766228955,-145
32-20,766232861,16
32-21,766236767,98
32-22,766240673,36
32-23,766244579,-66
32-24,766248485,-150
32-25,766252391,-208
32-26,766256297,-194
32-27,766260203,-74
32-28,766264109,27
32-29,766268015,35
32-30,766271921,17
32-31,766275827,-15
32-32,766279733,-42
32-1,766283645,-82
32-2,766287551,-120
32-3,766291457,-48
32-4,766295363,58
32-5,766299269,76
32-6,766303175,55
32-7,766307081,40
32-8,766310987,11
32-9,766314893,-52
32-10,766318799,-45
32-11,766322705,84
32-12,766326611,131
32-13,766330517,28
32-14,766334423,-93
32-15,766338329,-149
32-16,766342235,-160
32-17,766346141,-190
32-18,766350047,-107
32-19,766353953,98
32-20,766357859,144
32-21,766361765,68
32-22,766365671,14
32-23,766369577,-74
32-24,766373483,-176
32-25,766377389,-199
32-26,766381295,-79
32-27,766385201,33
32-28,766389107,6
32-29,766393013,-1
32-30,766396919,5
32-31,766400825,-72
32-32,766404731,-168
32-1,766408643,-173
32-2,766412549,-48
32-3,766416455,48
32-4,766420361,44
32-5,766424267,35
32-6,766428173,27
32-7,766432079,-8
32-8,766435985,-77
32-9,766439891,-62
32-10,766443797,62
32-11,766447703,88
32-12,766451609,-1
32-13,766455515,-86
32-14,766459421,-141
32-15,766463327,-194
32-16,766467233,-219
32-17,766471139,-81
32-18,766475045,79
32-19,766478951,57
32-20,766482857,-12
32-21,766486763,-34
32-22,766490669,-71
32-23,766494575,-129
32-24,766498481,-105
32-25,766502387,28
32-26,766506293,108
32-27,766510199,91
32-28,766514105,69
32-29,766518011,49
32-30,766521917,-22
32-31,766525823,-123
32-32,766529729,-86
32-1,766533640,70
32-2,766537546,110
32-3,766541452,41
32-4,766545358,5
32-5,766549264,-6
32-6,766553170,-64
32-7,766557076,-134
32-8,766560982,-70
32-9,766564888,50
32-10,766568794,34
32-11,766572700,-62
32-12,766576606,-122
32-13,766580512,-127
32-14,766584418,-148
32-15,766588324,-149
32-16,766592230,-13
32-17,766596136,94
32-18,766600042,69
32-19,766603948,33
32-20,766607854,-24
32-21,766611760,-100
32-22,766615666,-148
32-23,766619572,-91
32-24,766623478,76
32-25,766627384,132
32-26,766631290,98
32-27,766635196,69
32-28,766639102,-7
32-29,766643008,-37
32-30,766646914,-44
32-31,766650820,-20
32-32,766654726,94
32-1,766658821,131
32-2,766662727,97
32-3,766666633,73
32-4,766670539,14
32-5,766674445,-65
32-6,766678351,-103
32-7,766682257,-19
32-8,766686163,84
32-9,766690069,65
32-10,766693975,-15
32-11,766697881,-85
32-12,766701787,-113
32-13,766705693,-138
32-14,766709599,-105
32-15,766713505,33
32-16,766717411,79
32-17,766721317,32
32-18,766725223,-1
32-19,766729129,-58
32-20,766733035,-125
32-21,766736941,-156
32-22,766740847,-62
32-23,766744753,75
32-24,766748659,54
32-25,766752565,-78
32-26,766756471,-124
32-27,766760377,-98
32-28,766764283,-145
32-29,766768189,-121
32-30,766772095,59
32-31,766776001,118
32-32,766779907,71
32-1,766783635,69
32-2,766787541,26
32-3,766791447,-56
32-4,766795353,-121
32-5,766799259,-95
32-6,766803165,-10
32-7,766807071,-44
32-8,766810977,-125
32-9,766814883,-147
32-10,766818789,-164
32-11,766822695,-179
32-12,766826601,-175
32-13,766830507,-78
32-14,766834413,78
32-15,766838319,125
32-16,766842225,94
32-17,766846131,78
32-18,766850037,72
32-19,766853943,6
32-20,766857849,-80
32-21,766861755,-13
32-22,766865661,73
32-23,766869567,26
32-24,766873473,-25
32-25,766877379,-71
32-26,766881285,-103
32-27,766885191,-101
32-28,766889097,-94
32-29,766893003,-11
32-30,766896909,45
32-31,766900815,10
32-32,766904721,-28
32-1,766908633,-87
32-2,766912539,-148
32-3,766916445,-181
32-4,766920351,-116
32-5,766924257,38
32-6,766928163,77
32-7,766932069,-12
32-8,766935975,-121
32-9,766939881,-188
32-10,766943787,-216
32-11,766947693,-211
32-12,766951599,-83
32-13,766955505,21
32-14,766959411,-14
32-15,766963317,-62
32-16,766967223,-116
32-17,766971129,-167
32-18,766975035,-203
32-19,766978941,-188
32-20,766982847,-72
32-21,766986753,-65
32-22,766990659,-190
32-23,766994565,-226
32-24,766998471,-203
32-25,767002377,-223
32-26,767006283,-204
32-27,767010189,-66
32-28,767014095,76
32-29,767018001,109
32-30,767021907,91
32-31,767025813,75
32-32,767029719,68
32-1,767033631,38
32-2,767037537,-1
32-3,767041443,24
32-4,767045349,35
32-5,767049255,-22
32-6,767053161,-90
32-7,767057067,-158
32-8,767060973,-192
32-9,767064879,-212
32-10,767068785,-194
32-11,767072691,-55
32-12,767076597,38
32-13,767080503,-19
32-14,767084409,-123
32-15,767088315,-179
32-16,767092221,-177
32-17,767096127,-193
32-18,767100033,-111
32-19,767103939,98
32-20,767107845,162
32-21,767111751,111
32-22,767115657,102
32-23,767119563,91
32-24,767123469,36
32-25,767127375,-36
32-26,767131281,-28
32-27,767135187,27
32-28,767139093,27
32-29,767142999,22
32-30,767146905,-5
32-31,767150811,-57
32-32,767154717,-95
32-1,767158628,-79
32-2,767162534,29
32-3,767166440,106
32-4,767170346,98
32-5,767174252,46
32-6,767178158,-33
32-7,767182064,-98
32-8,767185970,-160
32-9,767189876,-126
32-10,767193782,31
32-11,767197688,89
32-12,767201594,39
32-13,767205500,-29
32-14,767209406,-103
32-15,767213312,-148
32-16,767217218,-164
32-17,767221124,-73
32-18,767225030,62
32-19,767228936,66
32-20,767232842,-5
32-21,767236748,-64
32-22,767240654,-124
32-23,767244560,-189
32-24,767248466,-192
32-25,767252372,-72
32-26,767256278,44
32-27,767260184,71
32-28,767264090,46
32-29,767267996,7
32-30,767271902,-17
32-31,767275808,-88
32-32,767279714,-106
32-1,767283626,20
32-2,767287532,99
32-3,767291438,78
32-4,767295344,26
32-5,767299250,-56
32-6,767303156,-149
32-7,767307062,-194
32-8,767310968,-91
32-9,767314874,53
32-10,767318780,51
32-11,767322686,-28
32-12,767326592,-113
32-13,767330498,-177
32-14,767334404,-210
32-15,767338310,-201
32-16,767342216,-63
32-17,767346122,90
32-18,767350028,101
32-19,767353934,27
32-20,767357840,-33
32-21,767361746,-62
32-22,767365652,-117
32-23,767369558,-105
32-24,767373464,33
32-25,767377370,83
32-26,767381276,50
32-27,767385182,34
32-28,767389088,-7
32-29,767392994,-20
32-30,767396900,-15
32-31,767400806,16
32-32,767404712,99
32-1,767408715,106
32-2,767412621,43
32-3,767416527,14
32-4,767420433,2
32-5,767424339,-51
32-6,767428245,-97
32-7,767432151,-11
32-8,767436057,98
32-9,767439963,93
32-10,767443869,6
32-11,767447775,-75
32-12,767451681,-103
32-13,767455587,-157
32-14,767459493,-132
32-15,767463399,46
32-16,767467305,124
32-17,767471211,57
32-18,767475117,-21
32-19,767479023,-83
32-20,767482929,-134
32-21,767486835,-178
32-22,767490741,-97
32-23,767494647,56
32-24,767498553,78
32-25,767502459,12
32-26,767506365,-27
32-27,767510271,-43
32-28,767514177,-86
32-29,767518083,-79
32-30,767521989,23
32-31,767525895,57
32-32,767529801,30
32-1,767533743,20
32-2,767537649,-30
32-3,767541555,-100
32-4,767545461,-185
32-5,767549367,-189
32-6,767553273,-38
32-7,767557179,52
32-8,767561085,9
32-9,767564991,-69
32-10,767568897,-135
32-11,767572803,-156
32-12,767576709,-171
32-13,767580615,-99
32-14,767584521,54
32-15,767588427,65
32-16,767592333,-28
32-17,767596239,-90
32-18,767600145,-127
32-19,767604051,-150
32-20,767607957,-132
32-21,767611863,-8
32-22,767615769,103
32-23,767619675,89
32-24,767623581,54
32-25,767627487,3
32-26,767631393,-35
32-27,767635299,-37
32-28,767639205,-23
32-29,767643111,78
32-30,767647017,138
32-31,767650923,100
32-32,767654829,79
32-1,767658619,26
32-2,767662525,-65
32-3,767666431,-122
32-4,767670337,-57
32-5,767674243,83
32-6,767678149,103
32-7,767682055,10
32-8,767685961,-94
32-9,767689867,-163
32-10,767693773,-191
32-11,767697679,-175
32-12,767701585,-35
32-13,767705491,110
32-14,767709397,119
32-15,767713303,74
32-16,767717209,11
32-17,767721115,-55
32-18,767725021,-100
32-19,767728927,-79
32-20,767732833,30
32-21,767736739,79
32-22,767740645,24
32-23,767744551,-21
32-24,767748457,-62
32-25,767752363,-134
32-26,767756269,-158
32-27,767760175,-55
32-28,767764081,60
32-29,767767987,77
32-30,767771893,59
32-31,767775799,37
32-32,767779705,-3
32-1,767783617,-69
32-2,767787523,-111
32-3,767791429,-20
32-4,767795335,89
32-5,767799241,93
32-6,767803147,58
32-7,767807053,-12
32-8,767810959,-105
32-9,767814865,-161
32-10,767818771,-136
32-11,767822677,-4
32-12,767826583,75
32-13,767830489,1
32-14,767834395,-123
32-15,767838301,-191
32-16,767842207,-203
32-17,767846113,-233
32-18,767850019,-156
32-19,767853925,30
32-20,767857831,71
32-21,767861737,8
32-22,767865643,-46
32-23,767869549,-96
32-24,767873455,-121
32-25,767877361,-139
32-26,767881267,-52
32-27,767885173,85
32-28,767889079,81
32-29,767892985,30
32-30,767896891,15
32-31,767900797,-35
32-32,767904703,-116
32-1,767908675,-107
32-2,767912581,42
32-3,767916487,135
32-4,767920393,105
32-5,767924299,63
32-6,767928205,6
32-7,767932111,-69
32-8,767936017,-140
32-9,767939923,-108
32-10,767943829,52
32-11,767947735,112
32-12,767951641,23
32-13,767955547,-75
32-14,767959453,-106
32-15,767963359,-111
32-16,767967265,-145
32-17,767971171,-68
32-18,767975077,79
32-19,767978983,93
32-20,767982889,56
32-21,767986795,26
32-22,767990701,-46
32-23,767994607,-128
32-24,767998513,-127
32-25,768002419,-1
32-26,768006325,108
32-27,768010231,102
32-28,768014137,67
32-29,768018043,59
32-30,768021949,18
32-31,768025855,-85
32-32,768029761,-85
32-1,768033612,38
32-2,768037518,71
32-3,768041424,15
32-4,768045330,-24
32-5,768049236,-56
32-6,768053142,-133
32-7,768057048,-206
32-8,768060954,-119
32-9,768064860,29
32-10,768068766,18
32-11,768072672,-59
32-12,768076578,-101
32-13,768080484,-131
32-14,768084390,-156
32-15,768088296,-134
32-16,768092202,-7
32-17,768096108,97
32-18,768100014,48
32-19,768103920,-46
32-20,768107826,-91
32-21,768111732,-108
32-22,768115638,-149
32-23,768119544,-100
32-24,768123450,69
32-25,768127356,116
32-26,768131262,60
32-27,768135168,23
32-28,768139074,-44
32-29,768142980,-73
32-30,768146886,-76
32-31,768150792,-60
32-32,768154698,35
32-1,768158731,86
32-2,768162637,69
32-3,768166543,67
32-4,768170449,40
32-5,768174355,-45
32-6,768178261,-109
32-7,768182167,-23
32-8,768186073,75
32-9,768189979,13
32-10,768193885,-84
32-11,768197791,-120
32-12,768201697,-159
32-13,768205603,-215
32-14,768209509,-161
32-15,768213415,8
32-16,768217321,80
32-17,768221227,43
32-18,768225133,6
32-19,768229039,-13
32-20,768232945,-43
32-21,768236851,-97
32-22,768240757,-28
32-23,768244663,142
32-24,768248569,173
32-25,768252475,74
32-26,768256381,4
32-27,768260287,-19
32-28,768264193,-51
32-29,768268099,-29
32-30,768272005,71
32-31,768275911,94
32-32,768279817,64
32-1,768283699,66
32-2,768287605,47
32-3,768291511,-22
32-4,768295417,-119
32-5,768299323,-98
32-6,768303229,58
32-7,768307135,105
32-8,768311041,32
32-9,768314947,-44
32-10,768318853,-109
32-11,768322759,-151
32-12,768326665,-191
32-13,768330571,-133
32-14,768334477,40
32-15,768338383,100
32-16,768342289,34
32-17,768346195,-46
32-18,768350101,-109
32-19,768354007,-145
32-20,768357913,-139
32-21,768361819,-6
32-22,768365725,132
32-23,768369631,113
32-24,768373537,53
32-25,768377443,-20
32-26,768381349,-83
32-27,768385255,-82
32-28,768389161,-72
32-29,768393067,9
32-30,768396973,81
32-31,768400879,17
32-32,768404785,-44
32-1,768408605,-70
32-2,768412511,-143
32-3,768416417,-207
32-4,768420323,-131
32-5,768424229,2
32-6,768428135,-30
32-7,768432041,-146
32-8,768435947,-182
32-9,768439853,-156
32-10,768443759,-148
32-11,768447665,-138
32-12,768451571,-7
32-13,768455477,121
32-14,768459383,99
32-15,768463289,50
32-16,768467195,29
32-17,768471101,-9
32-18,768475007,-68
32-19,768478913,-68
32-20,768482819,41
32-21,768486725,109
32-22,768490631,78
32-23,768494537,16
32-24,768498443,-69
32-25,768502349,-148
32-26,768506255,-153
32-27,768510161,-58
32-28,768514067,35
32-29,768517973,60
32-30,768521879,50
32-31,768525785,-8
32-32,768529691,-64
32-1,768533724,-120
32-2,768537630,-180
32-3,768541536,-98
32-4,768545442,30
32-5,768549348,39
32-6,768553254,2
32-7,768557160,-48
32-8,768561066,-87
32-9,768564972,-112
32-10,768568878,-104
32-11,768572784,11
32-12,768576690,83
32-13,768580596,23
32-14,768584502,-34
32-15,768588408,-71
32-16,768592314,-138
32-17,768596220,-201
32-18,768600126,-128
32-19,768604032,37
32-20,768607938,80
32-21,768611844,39
32-22,768615750,-21
32-23,768619656,-104
32-24,768623562,-156
32-25,768627468,-175
32-26,768631374,-71
32-27,768635280,84
32-28,768639186,100
32-29,768643092,75
32-30,768646998,59
32-31,768650904,-41
32-32,768654810,-160
32-1,768658600,-155
32-2,768662506,-58
32-3,768666412,-70
32-4,768670318,-149
32-5,768674224,-174
32-6,768678130,-183
32-7,768682036,-179
32-8,768685942,-183
32-9,768689848,-128
32-10,768693754,30
32-11,768697660,107
32-12,768701566,85
32-13,768705472,70
32-14,768709378,48
32-15,768713284,-4
32-16,768717190,-60
32-17,768721096,-24
32-18,768725002,88
32-19,768728908,138
32-20,768732814,122
32-21,768736720,82
32-22,768740626,13
32-23,768744532,-91
32-24,768748438,-135
32-25,768752344,-38
32-26,768756250,42
32-27,768760156,-14
32-28,768764062,-95
32-29,768767968,-99
32-30,768771874,-107
32-31,768775780,-206
32-32,768779686,-198
32-1,768783598,-37
32-2,768787504,31
32-3,768791410,18
32-4,768795316,13
32-5,768799222,-14
32-6,768803128,-65
32-7,768807034,-114
32-8,768810940,-57
32-9,768814846,50
32-10,768818752,69
32-11,768822658,43
32-12,768826564,-11
32-13,768830470,-88
32-14,768834376,-133
32-15,768838282,-117
32-16,768842188,-21
32-17,768846094,62
32-18,768850000,23
32-19,768853906,-99
32-20,768857812,-193
32-21,768861718,-203
32-22,768865624,-215
32-23,768869530,-165
32-24,768873436,10
32-25,768877342,65
32-26,768881248,10
32-27,768885154,-29
32-28,768889060,-105
32-29,768892966,-132
32-30,768896872,-127
32-31,768900778,-93
32-32,768904684,30
32-1,768908748,81
32-2,768912654,44
32-3,768916560,10
32-4,768920466,-45
32-5,768924372,-119
32-6,768928278,-141
32-7,768932184,-30
32-8,768936090,72
32-9,768939996,24
32-10,768943902,-70
32-11,768947808,-155
32-12,768951714,-218
32-13,768955620,-269
32-14,768959526,-248
32-15,768963432,-103
32-16,768967338,12
32-17,768971244,13
32-18,768975150,-55
32-19,768979056,-127
32-20,768982962,-178
32-21,768986868,-218
32-22,768990774,-126
32-23,768994680,38
32-24,768998586,64
32-25,769002492,9
32-26,769006398,-4
32-27,769010304,-16
32-28,769014210,-80
32-29,769018116,-87
32-30,769022022,-9
32-31,769025928,-39
32-32,769029834,-161
32-1,769033593,-226
32-2,769037499,-226
32-3,769041405,-195
32-4,769045311,-185
32-5,769049217,-146
32-6,769053123,-28
32-7,769057029,43
32-8,769060935,29
32-9,769064841,17
32-10,769068747,13
32-11,769072653,-19
32-12,769076559,-94
32-13,769080465,-112
32-14,769084371,-31
32-15,769088277,-10
32-16,769092183,-95
32-17,769096089,-182
32-18,769099995,-197
32-19,769103901,-203
32-20,769107807,-204
32-21,769111713,-54
32-22,769115619,88
32-23,769119525,50
32-24,769123431,-27
32-25,769127337,-127
32-26,769131243,-148
32-27,769135149,-72
32-28,769139055,-44
32-29,769142961,46
32-30,769146867,127
32-31,769150773,61
32-32,769154679,-7
32-1,769158713,-45
32-2,769162619,-104
32-3,769166525,-145
32-4,769170431,-65
32-5,769174337,70
32-6,769178243,87
32-7,769182149,55
32-8,769186055,10
32-9,769189961,-70
32-10,769193867,-126
32-11,769197773,-128
32-12,769201679,-19
32-13,769205585,99
32-14,769209491,94
32-15,769213397,38
32-16,769217303,-8
32-17,769221209,-32
32-18,769225115,-59
32-19,769229021,-32
32-20,769232927,102
32-21,769236833,162
32-22,769240739,103
32-23,769244645,51
32-24,769248551,-6
32-25,769252457,-71
32-26,769256363,-70
32-27,769260269,30
32-28,769264175,118
32-29,769268081,104
32-30,769271987,64
32-31,769275893,34
32-32,769279799,-2
32-1,769283588,-66
32-2,769287494,-114
32-3,769291400,-8
32-4,769295306,135
32-5,769299212,130
32-6,769303118,69
32-7,769307024,30
32-8,769310930,-7
32-9,769314836,-52
32-10,769318742,-48
32-11,769322648,56
32-12,769326554,125
32-13,769330460,89
32-14,769334366,34
32-15,769338272,-24
32-16,769342178,-92
32-17,769346084,-146
32-18,769349990,-64
32-19,769353896,129
32-20,769357802,163
32-21,769361708,26
32-22,769365614,-90
32-23,769369520,-140
32-24,769373426,-170
32-25,769377332,-176
32-26,769381238,-58
32-27,769385144,19
32-28,769389050,-81
32-29,769392956,-103
32-30,769396862,-64
32-31,769400768,-124
32-32,769404674,-179
32-1,769408586,-148
32-2,769412492,-23
32-3,769416398,67
32-4,769420304,43
32-5,769424210,28
32-6,769428116,48
32-7,769432022,43
32-8,769435928,-36
32-9,769439834,-76
32-10,769443740,38
32-11,769447646,116
32-12,769451552,54
32-13,769455458,-21
32-14,769459364,-47
32-15,769463270,-89
32-16,769467176,-127
32-17,769471082,-18
32-18,769474988,123
32-19,769478894,125
32-20,769482800,40
32-21,769486706,-63
32-22,769490612,-125
32-23,769494518,-151
32-24,769498424,-146
32-25,769502330,-25
32-26,769506236,108
32-27,769510142,118
32-28,769514048,61
32-29,769517954,41
32-30,769521860,20
32-31,769525766,-64
32-32,769529672,-63
32-1,769533583,-10
32-2,769537489,-85
32-3,769541395,-161
32-4,769545301,-149
32-5,769549207,-141
32-6,769553113,-165
32-7,769557019,-187
32-8,769560925,-84
32-9,769564831,89
32-10,769568737,126
32-11,769572643,61
32-12,769576549,40
32-13,769580455,64
32-14,769584361,22
32-15,769588267,-43
32-16,769592173,13
32-17,769596079,84
32-18,769599985,52
32-19,769603891,-5
32-20,769607797,-32
32-21,769611703,-63
32-22,769615609,-133
32-23,769619515,-93
32-24,769623421,67
32-25,769627327,101
32-26,769631233,72
32-27,769635139,65
32-28,769639045,16
32-29,769642951,3
32-30,769646857,-13
32-31,769650763,-26
32-32,769654669,49
32-1,769658764,86
32-2,769662670,51
32-3,769666576,6
32-4,769670482,-49
32-5,769674388,-123
32-6,769678294,-155
32-7,769682200,-42
32-8,769686106,58
32-9,769690012,-2
32-10,769693918,-113
32-11,769697824,-184
32-12,769701730,-203
32-13,769705636,-227
32-14,769709542,-177
32-15,769713448,8
32-16,769717354,99
32-17,769721260,59
32-18,769725166,26
32-19,769729072,-9
32-20,769732978,-70
32-21,769736884,-94
32-22,769740790,-13
32-23,769744696,101
32-24,769748602,115
32-25,769752508,49
32-26,769756414,25
32-27,769760320,32
32-28,769764226,-48
32-29,769768132,-68
32-30,769772038,46
32-31,769775944,74
32-32,769779850,32
32-1,769783579,29
32-2,769787485,0
32-3,769791391,-61
32-4,769795297,-127
32-5,769799203,-106
32-6,769803109,18
32-7,769807015,89
32-8,769810921,61
32-9,769814827,-16
32-10,769818733,-94
32-11,769822639,-140
32-12,769826545,-160
32-13,769830451,-61
32-14,769834357,87
32-15,769838263,86
32-16,769842169,9
32-17,769846075,-72
32-18,769849981,-158
32-19,769853887,-213
32-20,769857793,-208
32-21,769861699,-54
32-22,769865605,111
32-23,769869511,101
32-24,769873417,6
32-25,769877323,-110
32-26,769881229,-149
32-27,769885135,-115
32-28,769889041,-100
32-29,769892947,11
32-30,769896853,117
32-31,769900759,69
32-32,769904665,22
32-1,769908576,21
32-2,769912482,-4
32-3,769916388,-56
32-4,769920294,-36
32-5,769924200,49
32-6,769928106,61
32-7,769932012,39
32-8,769935918,30
32-9,769939824,-17
32-10,769943730,-88
32-11,769947636,-108
32-12,769951542,-28
32-13,769955448,0
32-14,769959354,-78
32-15,769963260,-119
32-16,769967166,-121
32-17,769971072,-124
32-18,769974978,-150
32-19,769978884,-132
32-20,769982790,19
32-21,769986696,147
32-22,769990602,153
32-23,769994508,132
32-24,769998414,96
32-25,770002320,38
32-26,770006226,0
32-27,770010132,16
32-28,770014038,57
32-29,770017944,71
32-30,770021850,72
32-31,770025756,50
32-32,770029662,-4
32-1,770033574,-86
32-2,770037480,-130
32-3,770041386,-25
32-4,770045292,72
32-5,770049198,-1
32-6,770053104,-109
32-7,770057010,-169
32-8,770060916,-182
32-9,770064822,-176
32-10,770068728,-135
32-11,770072634,7
32-12,770076540,110
32-13,770080446,93
32-14,770084352,50
32-15,770088258,40
32-16,770092164,47
32-17,770096070,2
32-18,770099976,-6
32-19,770103882,79
32-20,770107788,65
32-21,770111694,-47
32-22,770115600,-128
32-23,770119506,-161
32-24,770123412,-182
32-25,770127318,-180
32-26,770131224,-53
32-27,770135130,87
32-28,770139036,77
32-29,770142942,31
32-30,770146848,9
32-31,770150754,-42
32-32,770154660,-138
32-1,770158572,-186
32-2,770162478,-78
32-3,770166384,37
32-4,770170290,30
32-5,770174196,-10
32-6,770178102,-37
32-7,770182008,-87
32-8,770185914,-180
32-9,770189820,-164
32-10,770193726,-16
32-11,770197632,12
32-12,770201538,-64
32-13,770205444,-124
32-14,770209350,-167
32-15,770213256,-192
32-16,770217162,-209
32-17,770221068,-101
32-18,770224974,64
32-19,770228880,80
32-20,770232786,28
32-21,770236692,-39
32-22,770240598,-110
32-23,770244504,-154
32-24,770248410,-164
32-25,770252316,-53
32-26,770256222,76
32-27,770260128,66
32-28,770264034,9
32-29,770267940,-5
32-30,770271846,-31
32-31,770275752,-129
32-32,770279658,-143
32-1,770283569,-9
32-2,770287475,74
32-3,770291381,67
32-4,770295287,44
32-5,770299193,-2
32-6,770303099,-66
32-7,770307005,-121
32-8,770310911,-81
32-9,770314817,19
32-10,770318723,38
32-11,770322629,-34
32-12,770326535,-131
32-13,770330441,-168
32-14,770334347,-178
32-15,770338253,-175
32-16,770342159,-28
32-17,770346065,116
32-18,770349971,94
32-19,770353877,28
32-20,770357783,-44
32-21,770361689,-133
32-22,770365595,-188
32-23,770369501,-134
32-24,770373407,6
32-25,770377313,46
32-26,770381219,19
32-27,770385125,14
32-28,770389031,-23
32-29,770392937,-45
32-30,770396843,-57
32-31,770400749,-30
32-32,770404655,66
32-1,770408933,90
32-2,770412839,61
32-3,770416745,39
32-4,770420651,-4
32-5,770424557,-66
32-6,770428463,-99
32-7,770432369,-12
32-8,770436275,89
32-9,770440181,50
32-10,770444087,-57
32-11,770447993,-136
32-12,770451899,-166
32-13,770455805,-211
32-14,770459711,-175
32-15,770463617,-5
32-16,770467523,27
32-17,770471429,-106
32-18,770475335,-188
32-19,770479241,-194
32-20,770483147,-187
32-21,770487053,-204
32-22,770490959,-137
32-23,770494865,21
32-24,770498771,75
32-25,770502677,43
32-26,770506583,52
32-27,770510489,65
32-28,770514395,31
32-29,770518301,39
32-30,770522207,83
32-31,770526113,26
32-32,770530019,-68
32-1,770533564,-111
32-2,770537470,-140
32-3,770541376,-137
32-4,770545282,-164
32-5,770549188,-162
32-6,770553094,-4
32-7,770557000,125
32-8,770560906,95
32-9,770564812,7
32-10,770568718,-75
32-11,770572624,-126
32-12,770576530,-148
32-13,770580436,-51
32-14,770584342,115
32-15,770588248,135
32-16,770592154,75
32-17,770596060,64
32-18,770599966,66
32-19,770603872,18
32-20,770607778,-64
32-21,770611684,-31
32-22,770615590,65
32-23,770619496,70
32-24,770623402,19
32-25,770627308,-40
32-26,770631214,-37
32-27,770635120,-6
32-28,770639026,-16
32-29,770642932,34
32-30,770646838,97
32-31,770650744,73
32-32,770654650,2
32-1,770658562,-63
32-2,770662468,-105
32-3,770666374,-144
32-4,770670280,-81
32-5,770674186,62
32-6,770678092,90
32-7,770681998,64
32-8,770685904,59
32-9,770689810,42
32-10,770693716,9
32-11,770697622,-38
32-12,770701528,-12
32-13,770705434,63
32-14,770709340,60
32-15,770713246,-35
32-16,770717152,-144
32-17,770721058,-184
32-18,770724964,-199
32-19,770728870,-159
32-20,770732776,9
32-21,770736682,114
32-22,770740588,73
32-23,770744494,10
32-24,770748400,-75
32-25,770752306,-170
32-26,770756212,-147
32-27,770760118,-11
32-28,770764024,86
32-29,770767930,88
32-30,770771836,36
32-31,770775742,-27
32-32,770779648,-41
32-1,770783560,-66
32-2,770787466,-120
32-3,770791372,-51
32-4,770795278,54
32-5,770799184,40
32-6,770803090,-6
32-7,770806996,-50
32-8,770810902,-117
32-9,770814808,-177
32-10,770818714,-150
32-11,770822620,14
32-12,770826526,109
32-13,770830432,35
32-14,770834338,-54
32-15,770838244,-106
32-16,770842150,-128
32-17,770846056,-154
32-18,770849962,-94
32-19,770853868,69
32-20,770857774,121
32-21,770861680,56
32-22,770865586,-44
32-23,770869492,-142
32-24,770873398,-183
32-25,770877304,-185
32-26,770881210,-55
32-27,770885116,116
32-28,770889022,108
32-29,770892928,52
32-30,770896834,38
32-31,770900740,-3
32-32,770904646,-75
32-1,770908557,-98
32-2,770912463,5
32-3,770916369,82
32-4,770920275,61
32-5,770924181,44
32-6,770928087,11
32-7,770931993,-52
32-8,770935899,-104
32-9,770939805,-84
32-10,770943711,-25
32-11,770947617,-48
32-12,770951523,-109
32-13,770955429,-153
32-14,770959335,-186
32-15,770963241,-207
32-16,770967147,-211
32-17,770971053,-92
32-18,770974959,65
32-19,770978865,65
32-20,770982771,14
32-21,770986677,3
32-22,770990583,-18
32-23,770994489,-70
32-24,770998395,-102
32-25,771002301,-35
32-26,771006207,54
32-27,771010113,41
32-28,771014019,-24
32-29,771017925,-31
32-30,771021831,-32
32-31,771025737,-116
32-32,771029643,-98
32-1,771033555,65
32-2,771037461,120
32-3,771041367,65
32-4,771045273,29
32-5,771049179,-1
32-6,771053085,-66
32-7,771056991,-123
32-8,771060897,-74
32-9,771064803,15
32-10,771068709,21
32-11,771072615,-40
32-12,771076521,-113
32-13,771080427,-140
32-14,771084333,-169
32-15,771088239,-177
32-16,771092145,-33
32-17,771096051,101
32-18,771099957,68
32-19,771103863,-33
32-20,771107769,-127
32-21,771111675,-166
32-22,771115581,-185
32-23,771119487,-138
32-24,771123393,27
32-25,771127299,98
32-26,771131205,63
32-27,771135111,33
32-28,771139017,-30
32-29,771142923,-56
32-30,771146829,-67
32-31,771150735,-58
32-32,771154641,20
32-1,771158736,32
32-2,771162642,-21
32-3,771166548,-62
32-4,771170454,-107
32-5,771174360,-169
32-6,771178266,-190
32-7,771182172,-56
32-8,771186078,72
32-9,771189984,42
32-10,771193890,-27
32-11,771197796,-88
32-12,771201702,-134
32-13,771205608,-164
32-14,771209514,-125
32-15,771213420,25
32-16,771217326,87
32-17,771221232,29
32-18,771225138,-12
32-19,771229044,-50
32-20,771232950,-120
32-21,771236856,-161
32-22,771240762,-80
32-23,771244668,55
32-24,771248574,97
32-25,771252480,66
32-26,771256386,40
32-27,771260292,24
32-28,771264198,-14
32-29,771268104,-22
32-30,771272010,38
32-31,771275916,70
32-32,771279822,64
32-1,771283611,51
32-2,771287517,-5
32-3,771291423,-79
32-4,771295329,-159
32-5,771299235,-155
32-6,771303141,4
32-7,771307047,103
32-8,771310953,25
32-9,771314859,-97
32-10,771318765,-152
32-11,771322671,-143
32-12,771326577,-149
32-13,771330483,-95
32-14,771334389,48
32-15,771338295,97
32-16,771342201,55
32-17,771346107,19
32-18,771350013,-16
32-19,771353919,-78
32-20,771357825,-131
32-21,771361731,-40
32-22,771365637,80
32-23,771369543,58
32-24,771373449,-31
32-25,771377355,-146
32-26,771381261,-150
32-27,771385167,-83
32-28,771389073,-81
32-29,771392979,17
32-30,771396885,123
32-31,771400791,88
32-32,771404697,46
32-1,771408548,-15
32-2,771412454,-112
32-3,771416360,-174
32-4,771420266,-113
32-5,771424172,39
32-6,771428078,80
32-7,771431984,6
32-8,771435890,-68
32-9,771439796,-105
32-10,771443702,-153
32-11,771447608,-195
32-12,771451514,-71
32-13,771455420,78
32-14,771459326,60
32-15,771463232,-9
32-16,771467138,-76
32-17,771471044,-149
32-18,771474950,-202
32-19,771478856,-179
32-20,771482762,-32
32-21,771486668,86
32-22,771490574,72
32-23,771494480,27
32-24,771498386,-30
32-25,771502292,-109
32-26,771506198,-115
32-27,771510104,-11
32-28,771514010,84
32-29,771517916,90
32-30,771521822,54
32-31,771525728,11
32-32,771529634,-40
32-1,771533545,-101
32-2,771537451,-134
32-3,771541357,-54
32-4,771545263,53
32-5,771549169,42
32-6,771553075,-33
32-7,771556981,-99
32-8,771560887,-153
32-9,771564793,-186
32-10,771568699,-146
32-11,771572605,-1
32-12,771576511,88
32-13,771580417,47
32-14,771584323,-37
32-15,771588229,-114
32-16,771592135,-152
32-17,771596041,-185
32-18,771599947,-127
32-19,771603853,55
32-20,771607759,121
32-21,771611665,53
32-22,771615571,3
32-23,771619477,-26
32-24,771623383,-62
32-25,771627289,-89
32-26,771631195,-1
32-27,771635101,110
32-28,771639007,81
32-29,771642913,46
32-30,771646819,34
32-31,771650725,-38
32-32,771654631,-117
32-1,771658543,-109
32-2,771662449,51
32-3,771666355,173
32-4,771670261,129
32-5,771674167,82
32-6,771678073,57
32-7,771681979,-18
32-8,771685885,-109
32-9,771689791,-94
32-10,771693697,32
32-11,771697603,79
32-12,771701509,16
32-13,771705415,-79
32-14,771709321,-159
32-15,771713227,-194
32-16,771717133,-208
32-17,771721039,-125
32-18,771724945,43
32-19,771728851,109
32-20,771732757,51
32-21,771736663,-28
32-22,771740569,-74
32-23,771744475,-129
32-24,771748381,-128
32-25,771752287,16
32-26,771756193,126
32-27,771760099,72
32-28,771764005,-56
32-29,771767911,-117
32-30,771771817,-145
32-31,771775723,-282
32-32,771779629,-280
32-1,771783541,-43
32-2,771787447,56
32-3,771791353,9
32-4,771795259,-18
32-5,771799165,-88
32-6,771803071,-210
32-7,771806977,-283
32-8,771810883,-161
32-9,771814789,43
32-10,771818695,52
32-11,771822601,-97
32-12,771826507,-220
32-13,771830413,-246
32-14,771834319,-255
32-15,771838225,-245
32-16,771842131,-51
32-17,771846037,136
32-18,771849943,80
32-19,771853849,-62
32-20,771857755,-152
32-21,771861661,-183
32-22,771865567,-207
32-23,771869473,-152
32-24,771873379,48
32-25,771877285,140
32-26,771881191,102
32-27,771885097,52
32-28,771889003,-59
32-29,771892909,-100
32-30,771896815,-85
32-31,771900721,-72
32-32,771904627,30
32-1,771908721,64
32-2,771912627,6
32-3,771916533,-28
32-4,771920439,-82
32-5,771924345,-171
32-6,771928251,-207
32-7,771932157,-76
32-8,771936063,68
32-9,771939969,6
32-10,771943875,-161
32-11,771947781,-262
32-12,771951687,-253
32-13,771955593,-250
32-14,771959499,-207
32-15,771963405,-1
32-16,771967311,129
32-17,771971217,59
32-18,771975123,-76
32-19,771979029,-175
32-20,771982935,-203
32-21,771986841,-222
32-22,771990747,-124
32-23,771994653,91
32-24,771998559,139
32-25,772002465,47
32-26,772006371,29
32-27,772010277,28
32-28,772014183,-74
32-29,772018089,-99
32-30,772021995,78
32-31,772025901,199
32-32,772029807,176
32-1,772033536,122
32-2,772037442,23
32-3,772041348,-83
32-4,772045254,-167
32-5,772049160,-139
32-6,772053066,52
32-7,772056972,163
32-8,772060878,79
32-9,772064784,-60
32-10,772068690,-154
32-11,772072596,-201
32-12,772076502,-232
32-13,772080408,-130
32-14,772084314,58
32-15,772088220,97
32-16,772092126,23
32-17,772096032,-69
32-18,772099938,-158
32-19,772103844,-203
32-20,772107750,-191
32-21,772111656,-47
32-22,772115562,111
32-23,772119468,122
32-24,772123374,33
32-25,772127280,-100
32-26,772131186,-132
32-27,772135092,-106
32-28,772138998,-125
32-29,772142904,-6
32-30,772146810,118
32-31,772150716,61
32-32,772154622,-28
32-1,772158534,-116
32-2,772162440,-221
32-3,772166346,-261
32-4,772170252,-122
32-5,772174158,105
32-6,772178064,125
32-7,772181970,-20
32-8,772185876,-145
32-9,772189782,-202
32-10,772193688,-227
32-11,772197594,-234
32-12,772201500,-69
32-13,772205406,131
32-14,772209312,81
32-15,772213218,-62
32-16,772217124,-132
32-17,772221030,-159
32-18,772224936,-181
32-19,772228842,-140
32-20,772232748,44
32-21,772236654,173
32-22,772240560,130
32-23,772244466,62
32-24,772248372,-16
32-25,772252278,-124
32-26,772256184,-127
32-27,772260090,38
32-28,772263996,186
32-29,772267902,197
32-30,772271808,169
32-31,772275714,113
32-32,772279620,-6
32-1,772283531,-144
32-2,772287437,-217
32-3,772291343,-107
32-4,772295249,61
32-5,772299155,73
32-6,772303061,-49
32-7,772306967,-214
32-8,772310873,-317
32-9,772314779,-352
32-10,772318685,-293
32-11,772322591,-51
32-12,772326497,103
32-13,772330403,-4
32-14,772334309,-141
32-15,772338215,-190
32-16,772342121,-214
32-17,772346027,-245
32-18,772349933,-143
32-19,772353839,81
32-20,772357745,145
32-21,772361651,56
32-22,772365557,-39
32-23,772369463,-94
32-24,772373369,-105
32-25,772377275,-114
32-26,772381181,7
32-27,772385087,173
32-28,772388993,152
32-29,772392899,85
32-30,772396805,23
32-31,772400711,-108
32-32,772404617,-214
32-1,772408529,-187
32-2,772412435,0
32-3,772416341,132
32-4,772420247,111
32-5,772424153,68
32-6,772428059,-12
32-7,772431965,-116
32-8,772435871,-174
32-9,772439777,-103
32-10,772443683,69
32-11,772447589,112
32-12,772451495,-4
32-13,772455401,-147
32-14,772459307,-225
32-15,772463213,-240
32-16,772467119,-235
32-17,772471025,-87
32-18,772474931,119
32-19,772478837,136
32-20,772482743,24
32-21,772486649,-79
32-22,772490555,-130
32-23,772494461,-184
32-24,772498367,-195
32-25,772502273,-34
32-26,772506179,109
32-27,772510085,77
32-28,772513991,17
32-29,772517897,6
32-30,772521803,-40
32-31,772525709,-181
32-32,772529615,-200
32-1,772533527,-36
32-2,772537433,37
32-3,772541339,30
32-4,772545245,24
32-5,772549151,-34
32-6,772553057,-128
32-7,772556963,-212
32-8,772560869,-118
32-9,772564775,66
32-10,772568681,77
32-11,772572587,-1
32-12,772576493,-58
32-13,772580399,-109
32-14,772584305,-156
32-15,772588211,-138
32-16,772592117,39
32-17,772596023,170
32-18,772599929,112
32-19,772603835,7
32-20,772607741,-91
32-21,772611647,-149
32-22,772615553,-193
32-23,772619459,-148
32-24,772623365,55
32-25,772627271,114
32-26,772631177,42
32-27,772635083,11
32-28,772638989,-78
32-29,772642895,-107
32-30,772646801,-68
32-31,772650707,-23
32-32,772654613,91
32-1,772658524,114
32-2,772662430,53
32-3,772666336,1
32-4,772670242,-90
32-5,772674148,-175
32-6,772678054,-168
32-7,772681960,-47
32-8,772685866,11
32-9,772689772,-79
32-10,772693678,-144
32-11,772697584,-146
32-12,772701490,-151
32-13,772705396,-206
32-14,772709302,-176
32-15,772713208,21
32-16,772717114,133
32-17,772721020,85
32-18,772724926,22
32-19,772728832,-14
32-20,772732738,-78
32-21,772736644,-164
32-22,772740550,-125
32-23,772744456,-44
32-24,772748362,-107
32-25,772752268,-205
32-26,772756174,-183
32-27,772760080,-85
32-28,772763986,-62
32-29,772767892,-59
32-30,772771798,41
32-31,772775704,104
32-32,772779610,90
32-1,772783613,79
32-2,772787519,61
32-3,772791425,38
32-4,772795331,-19
32-5,772799237,-42
32-6,772803143,49
32-7,772807049,79
32-8,772810955,-27
32-9,772814861,-119
32-10,772818767,-123
32-11,772822673,-112
32-12,772826579,-134
32-13,772830485,-57
32-14,772834391,105
32-15,772838297,134
32-16,772842203,30
32-17,772846109,-58
32-18,772850015,-81
32-19,772853921,-100
32-20,772857827,-104
32-21,772861733,21
32-22,772865639,145
32-23,772869545,152
32-24,772873451,110
32-25,772877357,14
32-26,772881263,-37
32-27,772885169,-14
32-28,772889075,-16
32-29,772892981,28
32-30,772896887,68
32-31,772900793,56
32-32,772904699,74
32-1,772908519,47
32-2,772912425,-56
32-3,772916331,-117
32-4,772920237,-69
32-5,772924143,-19
32-6,772928049,-74
32-7,772931955,-113
32-8,772935861,-109
32-9,772939767,-124
32-10,772943673,-131
32-11,772947579,-125
32-12,772951485,-34
32-13,772955391,90
32-14,772959297,89
32-15,772963203,18
32-16,772967109,-26
32-17,772971015,-53
32-18,772974921,-110
32-19,772978827,-132
32-20,772982733,-9
32-21,772986639,104
32-22,772990545,80
32-23,772994451,42
32-24,772998357,18
32-25,773002263,-52
32-26,773006169,-74
32-27,773010075,20
32-28,773013981,103
32-29,773017887,101
32-30,773021793,72
32-31,773025699,25
32-32,773029605,-5
32-1,773033517,-32
32-2,773037423,-77
32-3,773041329,-38
32-4,773045235,44
32-5,773049141,66
32-6,773053047,56
32-7,773056953,27
32-8,773060859,-28
32-9,773064765,-118
32-10,773068671,-142
32-11,773072577,-12
32-12,773076483,59
32-13,773080389,4
32-14,773084295,-43
32-15,773088201,-93
32-16,773092107,-149
32-17,773096013,-184
32-18,773099919,-120
32-19,773103825,20
32-20,773107731,53
32-21,773111637,11
32-22,773115543,-23
32-23,773119449,-69
32-24,773123355,-129
32-25,773127261,-178
32-26,773131167,-87
32-27,773135073,43
32-28,773138979,25
32-29,773142885,-11
32-30,773146791,-29
32-31,773150697,-101
32-32,773154603,-178
32-1,773158515,-164
32-2,773162421,-8
32-3,773166327,107
32-4,773170233,75
32-5,773174139,29
32-6,773178045,-1
32-7,773181951,-45
32-8,773185857,-116
32-9,773189763,-118
32-10,773193669,12
32-11,773197575,79
32-12,773201481,5
32-13,773205387,-95
32-14,773209293,-145
32-15,773213199,-151
32-16,773217105,-146
32-17,773221011,-49
32-18,773224917,94
32-19,773228823,131
32-20,773232729,92
32-21,773236635,23
32-22,773240541,-32
32-23,773244447,-56
32-24,773248353,-59
32-25,773252259,34
32-26,773256165,148
32-27,773260071,158
32-28,773263977,117
32-29,773267883,108
32-30,773271789,96
32-31,773275695,2
32-32,773279601,-40
32-1,773283512,62
32-2,773287418,122
32-3,773291324,100
32-4,773295230,59
32-5,773299136,5
32-6,773303042,-50
32-7,773306948,-96
32-8,773310854,-11
32-9,773314760,130
32-10,773318666,132
32-11,773322572,70
32-12,773326478,20
32-13,773330384,-19
32-14,773334290,-68
32-15,773338196,-106
32-16,773342102,-14
32-17,773346008,88
32-18,773349914,61
32-19,773353820,-1
32-20,773357726,-63
32-21,773361632,-94
32-22,773365538,-109
32-23,773369444,-83
32-24,773373350,40
32-25,773377256,80
32-26,773381162,36
32-27,773385068,-8
32-28,773388974,-101
32-29,773392880,-88
32-30,773396786,-33
32-31,773400692,-28
32-32,773404598,66
32-1,773408754,116
32-2,773412660,70
32-3,773416566,63
32-4,773420472,48
32-5,773424378,-40
32-6,773428284,-93
32-7,773432190,8
32-8,773436096,106
32-9,773440002,81
32-10,773443908,7
32-11,773447814,-60
32-12,773451720,-83
32-13,773455626,-112
32-14,773459532,-78
32-15,773463438,93
32-16,773467344,170
32-17,773471250,96
32-18,773475156,22
32-19,773479062,-39
32-20,773482968,-113
32-21,773486874,-148
32-22,773490780,-55
32-23,773494686,74
32-24,773498592,70
32-25,773502498,-31
32-26,773506404,-85
32-27,773510310,-68
32-28,773514216,-90
32-29,773518122,-67
32-30,773522028,66
32-31,773525934,131
32-32,773529840,116
32-1,773533508,82
32-2,773537414,17
32-3,773541320,-49
32-4,773545226,-132
32-5,773549132,-150
32-6,773553038,-27
32-7,773556944,56
32-8,773560850,18
32-9,773564756,-65
32-10,773568662,-140
32-11,773572568,-182
32-12,773576474,-193
32-13,773580380,-84
32-14,773584286,87
32-15,773588192,105
32-16,773592098,38
32-17,773596004,-13
32-18,773599910,-78
32-19,773603816,-138
32-20,773607722,-127
32-21,773611628,17
32-22,773615534,141
32-23,773619440,110
32-24,773623346,19
32-25,773627252,-78
32-26,773631158,-88
32-27,773635064,-48
32-28,773638970,-61
32-29,773642876,10
32-30,773646782,94
32-31,773650688,44
32-32,773654594,20
32-1,773658505,38
32-2,773662411,-25
32-3,773666317,-107
32-4,773670223,-65
32-5,773674129,49
32-6,773678035,71
32-7,773681941,11
32-8,773685847,-70
32-9,773689753,-136
32-10,773693659,-169
32-11,773697565,-156
32-12,773701471,-5
32-13,773705377,156
32-14,773709283,129
32-15,773713189,8
32-16,773717095,-75
32-17,773721001,-131
32-18,773724907,-215
32-19,773728813,-216
32-20,773732719,-40
32-21,773736625,76
32-22,773740531,43
32-23,773744437,9
32-24,773748343,-35
32-25,773752249,-113
32-26,773756155,-120
32-27,773760061,-25
32-28,773763967,87
32-29,773767873,138
32-30,773771779,121
32-31,773775685,79
32-32,773779591,50
32-1,773783503,-23
32-2,773787409,-96
32-3,773791315,-25
32-4,773795221,65
32-5,773799127,42
32-6,773803033,-12
32-7,773806939,-65
32-8,773810845,-109
32-9,773814751,-158
32-10,773818657,-162
32-11,773822563,-14
32-12,773826469,109
32-13,773830375,68
32-14,773834281,-1
32-15,773838187,-57
32-16,773842093,-111
32-17,773845999,-154
32-18,773849905,-101
32-19,773853811,61
32-20,773857717,134
32-21,773861623,94
32-22,773865529,22
32-23,773869435,-72
32-24,773873341,-124
32-25,773877247,-130
32-26,773881153,-27
32-27,773885059,120
32-28,773888965,119
32-29,773892871,61
32-30,773896777,26
32-31,773900683,-45
32-32,773904589,-120
32-1,773908500,-116
32-2,773912406,34
32-3,773916312,158
32-4,773920218,123
32-5,773924124,56
32-6,773928030,-4
32-7,773931936,-85
32-8,773935842,-170
32-9,773939748,-148
32-10,773943654,19
32-11,773947560,98
32-12,773951466,21
32-13,773955372,-81
32-14,773959278,-140
32-15,773963184,-159
32-16,773967090,-167
32-17,773970996,-75
32-18,773974902,79
32-19,773978808,110
32-20,773982714,64
32-21,773986620,15
32-22,773990526,-26
32-23,773994432,-51
32-24,773998338,-38
32-25,774002244,75
32-26,774006150,181
32-27,774010056,164
32-28,774013962,106
32-29,774017868,105
32-30,774021774,115
32-31,774025680,37
32-32,774029586,14
32-1,774033559,118
32-2,774037465,144
32-3,774041371,101
32-4,774045277,60
32-5,774049183,-12
32-6,774053089,-75
32-7,774056995,-110
32-8,774060901,-50
32-9,774064807,72
32-10,774068713,82
32-11,774072619,4
32-12,774076525,-84
32-13,774080431,-114
32-14,774084337,-115
32-15,774088243,-119
32-16,774092149,0
32-17,774096055,109
32-18,774099961,72
32-19,774103867,35
32-20,774107773,-1
32-21,774111679,-54
32-22,774115585,-94
32-23,774119491,-60
32-24,774123397,91
32-25,774127303,154
32-26,774131209,91
32-27,774135115,43
32-28,774139021,9
32-29,774142927,2
32-30,774146833,-18
32-31,774150739,-15
32-32,774154645,82
32-1,774158496,149
32-2,774162402,131
32-3,774166308,90
32-4,774170214,45
32-5,774174120,-6
32-6,774178026,-43
32-7,774181932,-26
32-8,774185838,-38
32-9,774189744,-115
32-10,774193650,-154
32-11,774197556,-145
32-12,774201462,-133
32-13,774205368,-148
32-14,774209274,-115
32-15,774213180,16
32-16,774217086,92
32-17,774220992,73
32-18,774224898,42
32-19,774228804,10
32-20,774232710,-33
32-21,774236616,-91
32-22,774240522,-98
32-23,774244428,-56
32-24,774248334,-106
32-25,774252240,-207
32-26,774256146,-168
32-27,774260052,-76
32-28,774263958,-93
32-29,774267864,-67
32-30,774271770,62
32-31,774275676,110
32-32,774279582,97
32-1,774283615,100
32-2,774287521,94
32-3,774291427,85
32-4,774295333,21
32-5,774299239,-28
32-6,774303145,43
32-7,774307051,100
32-8,774310957,71
32-9,774314863,22
32-10,774318769,-35
32-11,774322675,-77
32-12,774326581,-94
32-13,774330487,-26
32-14,774334393,93
32-15,774338299,110
32-16,774342205,55
32-17,774346111,-10
32-18,774350017,-53
32-19,774353923,-88
32-20,774357829,-121
32-21,774361735,-1
32-22,774365641,148
32-23,774369547,135
32-24,774373453,67
32-25,774377359,-22
32-26,774381265,-65
32-27,774385171,-41
32-28,774389077,-36
32-29,774392983,38
32-30,774396889,113
32-31,774400795,78
32-32,774404701,21
32-1,774408491,-41
32-2,774412397,-124
32-3,774416303,-161
32-4,774420209,-90
32-5,774424115,-25
32-6,774428021,-77
32-7,774431927,-124
32-8,774435833,-127
32-9,774439739,-126
32-10,774443645,-131
32-11,774447551,-119
32-12,774451457,23
32-13,774455363,177
32-14,774459269,162
32-15,774463175,103
32-16,774467081,90
32-17,774470987,67
32-18,774474893,-3
32-19,774478799,-34
32-20,774482705,78
32-21,774486611,155
32-22,774490517,84
32-23,774494423,19
32-24,774498329,-24
32-25,774502235,-86
32-26,774506141,-95
32-27,774510047,-30
32-28,774513953,60
32-29,774517859,120
32-30,774521765,107
32-31,774525671,49
32-32,774529577,24
32-1,774533489,-8
32-2,774537395,-60
32-3,774541301,-6
32-4,774545207,88
32-5,774549113,105
32-6,774553019,59
32-7,774556925,-39
32-8,774560831,-111
32-9,774564737,-143
32-10,774568643,-128
32-11,774572549,-11
32-12,774576455,31
32-13,774580361,-64
32-14,774584267,-129
32-15,774588173,-128
32-16,774592079,-114
32-17,774595985,-138
32-18,774599891,-98
32-19,774603797,44
32-20,774607703,100
32-21,774611609,65
32-22,774615515,37
32-23,774619421,-5
32-24,774623327,-102
32-25,774627233,-185
32-26,774631139,-96
32-27,774635045,27
32-28,774638951,4
32-29,774642857,-8
32-30,774646763,-6
32-31,774650669,-89
32-32,774654575,-174
32-1,774658608,-169
32-2,774662514,-32
32-3,774666420,73
32-4,774670326,28
32-5,774674232,-3
32-6,774678138,8
32-7,774682044,-46
32-8,774685950,-141
32-9,774689856,-136
32-10,774693762,-17
32-11,774697668,34
32-12,774701574,-4
32-13,774705480,-49
32-14,774709386,-86
32-15,774713292,-120
32-16,774717198,-146
32-17,774721104,-66
32-18,774725010,66
32-19,774728916,77
32-20,774732822,4
32-21,774736728,-78
32-22,774740634,-142
32-23,774744540,-196
32-24,774748446,-210
32-25,774752352,-71
32-26,774756258,63
32-27,774760164,29
32-28,774764070,-18
32-29,774767976,2
32-30,774771882,4
32-31,774775788,-64
32-32,774779694,-98
32-1,774783484,-16
32-2,774787390,36
32-3,774791296,12
32-4,774795202,-29
32-5,774799108,-81
32-6,774803014,-150
32-7,774806920,-201
32-8,774810826,-113
32-9,774814732,34
32-10,774818638,50
32-11,774822544,6
32-12,774826450,-25
32-13,774830356,-66
32-14,774834262,-113
32-15,774838168,-127
32-16,774842074,-34
32-17,774845980,62
32-18,774849886,42
32-19,774853792,-44
32-20,774857698,-131
32-21,774861604,-170
32-22,774865510,-207
32-23,774869416,-182
32-24,774873322,-9
32-25,774877228,67
32-26,774881134,18
32-27,774885040,14
32-28,774888946,-11
32-29,774892852,-35
32-30,774896758,-39
32-31,774900664,-33
32-32,774904570,68
32-1,774908512,133
32-2,774912418,105
32-3,774916324,62
32-4,774920230,-3
32-5,774924136,-99
32-6,774928042,-135
32-7,774931948,-10
32-8,774935854,95
32-9,774939760,33
32-10,774943666,-60
32-11,774947572,-132
32-12,774951478,-175
32-13,774955384,-207
32-14,774959290,-180
32-15,774963196,-28
32-16,774967102,57
32-17,774971008,1
32-18,774974914,-73
32-19,774978820,-138
32-20,774982726,-212
32-21,774986632,-263
32-22,774990538,-171
32-23,774994444,-4
32-24,774998350,18
32-25,775002256,-57
32-26,775006162,-75
32-27,775010068,-64
32-28,775013974,-110
32-29,775017880,-112
32-30,775021786,1
32-31,775025692,62
32-32,775029598,34
32-1,775033479,26
32-2,775037385,17
32-3,775041291,-44
32-4,775045197,-135
32-5,775049103,-130
32-6,775053009,7
32-7,775056915,90
32-8,775060821,51
32-9,775064727,-38
32-10,775068633,-107
32-11,775072539,-128
32-12,775076445,-163
32-13,775080351,-99
32-14,775084257,75
32-15,775088163,115
32-16,775092069,52
32-17,775095975,17
32-18,775099881,-22
32-19,775103787,-81
32-20,775107693,-121
32-21,775111599,-35
32-22,775115505,109
32-23,775119411,132
32-24,775123317,42
32-25,775127223,-70
32-26,775131129,-86
32-27,775135035,-69
32-28,775138941,-85
32-29,775142847,3
32-30,775146753,91
32-31,775150659,48
32-32,775154565,-6
32-1,775158477,-30
32-2,775162383,-80
32-3,775166289,-145
32-4,775170195,-64
32-5,775174101,115
32-6,775178007,97
32-7,775181913,-51
32-8,775185819,-108
32-9,775189725,-100
32-10,775193631,-128
32-11,775197537,-148
32-12,775201443,-1
32-13,775205349,169
32-14,775209255,160
32-15,775213161,103
32-16,775217067,45
32-17,775220973,-52
32-18,775224879,-136
32-19,775228785,-140
32-20,775232691,-28
32-21,775236597,41
32-22,775240503,-20
32-23,775244409,-87
32-24,775248315,-134
32-25,775252221,-194
32-26,775256127,-184
32-27,775260033,-38
32-28,775263939,97
32-29,775267845,106
32-30,775271751,48
32-31,775275657,-69
32-32,775279563,-167
32-1,775283597,-202
32-2,775287503,-216
32-3,775291409,-92
32-4,775295315,81
32-5,775299221,77
32-6,775303127,12
32-7,775307033,13
32-8,775310939,18
32-9,775314845,-40
32-10,775318751,-81
32-11,775322657,-3
32-12,775326563,50
32-13,775330469,-8
32-14,775334375,-91
32-15,775338281,-139
32-16,775342187,-128
32-17,775346093,-141
32-18,775349999,-110
32-19,775353905,56
32-20,775357811,138
32-21,775361717,63
32-22,775365623,0
32-23,775369529,-28
32-24,775373435,-103
32-25,775377341,-168
32-26,775381247,-59
32-27,775385153,89
32-28,775389059,91
32-29,775392965,74
32-30,775396871,69
32-31,775400777,-5
32-32,775404683,-122
32-1,775408472,-144
32-2,775412378,12
32-3,775416284,114
32-4,775420190,54
32-5,775424096,22
32-6,775428002,24
32-7,775431908,-29
32-8,775435814,-113
32-9,775439720,-93
32-10,775443626,26
32-11,775447532,46
32-12,775451438,-13
32-13,775455344,-47
32-14,775459250,-74
32-15,775463156,-132
32-16,775467062,-193
32-17,775470968,-112
32-18,775474874,39
32-19,775478780,45
32-20,775482686,-48
32-21,775486592,-130
32-22,775490498,-168
32-23,775494404,-190
32-24,775498310,-182
32-25,775502216,-67
32-26,775506122,39
32-27,775510028,40
32-28,775513934,-4
32-29,775517840,-34
32-30,775521746,-79
32-31,775525652,-200
32-32,775529558,-197
32-1,775533470,9
32-2,775537376,109
32-3,775541282,83
32-4,775545188,58
32-5,775549094,-11
32-6,775553000,-104
32-7,775556906,-172
32-8,775560812,-110
32-9,775564718,36
32-10,775568624,68
32-11,775572530,30
32-12,775576436,-13
32-13,775580342,-78
32-14,775584248,-133
32-15,775588154,-131
32-16,775592060,-18
32-17,775595966,72
32-18,775599872,29
32-19,775603778,-44
32-20,775607684,-110
32-21,775611590,-156
32-22,775615496,-194
32-23,775619402,-148
32-24,775623308,41
32-25,775627214,117
32-26,775631120,60
32-27,775635026,47
32-28,775638932,16
32-29,775642838,-4
32-30,775646744,-19
32-31,775650650,-10
32-32,775654556,111
32-1,775658498,168
32-2,775662404,109
32-3,775666310,78
32-4,775670216,37
32-5,775674122,-71
32-6,775678028,-135
32-7,775681934,-56
32-8,775685840,34
32-9,775689746,37
32-10,775693652,-1
32-11,775697558,-61
32-12,775701464,-114
32-13,775705370,-158
32-14,775709276,-140
32-15,775713182,-23
32-16,775717088,41
32-17,775720994,1
32-18,775724900,-76
32-19,775728806,-155
32-20,775732712,-220
32-21,775736618,-255
32-22,775740524,-152
32-23,775744430,25
32-24,775748336,77
32-25,775752242,34
32-26,775756148,15
32-27,775760054,2
32-28,775763960,-58
32-29,775767866,-84
32-30,775771772,5
32-31,775775678,73
32-32,775779584,54
32-1,775783465,23
32-2,775787371,-17
32-3,775791277,-91
32-4,775795183,-178
32-5,775799089,-165
32-6,775802995,-73
32-7,775806901,-98
32-8,775810807,-185
32-9,775814713,-203
32-10,775818619,-190
32-11,775822525,-180
32-12,775826431,-185
32-13,775830337,-103
32-14,775834243,77
32-15,775838149,148
32-16,775842055,122
32-17,775845961,109
32-18,775849867,88
32-19,775853773,24
32-20,775857679,-51
32-21,775861585,-23
32-22,775865491,55
32-23,775869397,34
32-24,775873303,-60
32-25,775877209,-158
32-26,775881115,-140
32-27,775885021,-82
32-28,775888927,-98
32-29,775892833,-15
32-30,775896739,77
32-31,775900645,22
32-32,775904551,-23
32-1,775908463,-39
32-2,775912369,-107
32-3,775916275,-156
32-4,775920181,-95
32-5,775924087,-24
32-6,775927993,-82
32-7,775931899,-168
32-8,775935805,-192
32-9,775939711,-159
32-10,775943617,-129
32-11,775947523,-135
32-12,775951429,-14
32-13,775955335,167
32-14,775959241,179
32-15,775963147,110
32-16,775967053,64
32-17,775970959,-5
32-18,775974865,-113
32-19,775978771,-146
32-20,775982677,-9
32-21,775986583,97
32-22,775990489,51
32-23,775994395,18
32-24,775998301,35
32-25,776002207,2
32-26,776006113,-44
32-27,776010019,-21
32-28,776013925,31
32-29,776017831,29
32-30,776021737,-14
32-31,776025643,-49
32-32,776029549,-85
32-1,776033460,-132
32-2,776037366,-143
32-3,776041272,-50
32-4,776045178,64
32-5,776049084,67
32-6,776052990,-4
32-7,776056896,-87
32-8,776060802,-158
32-9,776064708,-200
32-10,776068614,-178
32-11,776072520,-42
32-12,776076426,59
32-13,776080332,26
32-14,776084238,-48
32-15,776088144,-120
32-16,776092050,-178
32-17,776095956,-223
32-18,776099862,-183
32-19,776103768,-60
32-20,776107674,-68
32-21,776111580,-171
32-22,776115486,-200
32-23,776119392,-167
32-24,776123298,-147
32-25,776127204,-154
32-26,776131110,-42
32-27,776135016,109
32-28,776138922,118
32-29,776142828,98
32-30,776146734,94
32-31,776150640,69
32-32,776154546,59
32-1,776158458,57
32-2,776162364,88
32-3,776166270,109
32-4,776170176,83
32-5,776174082,48
32-6,776177988,1
32-7,776181894,-40
32-8,776185800,-79
32-9,776189706,-43
32-10,776193612,92
32-11,776197518,131
32-12,776201424,69
32-13,776205330,44
32-14,776209236,29
32-15,776213142,-17
32-16,776217048,-67
32-17,776220954,-1
32-18,776224860,141
32-19,776228766,178
32-20,776232672,108
32-21,776236578,6
32-22,776240484,-64
32-23,776244390,-107
32-24,776248296,-119
32-25,776252202,-4
32-26,776256108,125
32-27,776260014,126
32-28,776263920,71
32-29,776267826,67
32-30,776271732,76
32-31,776275638,-9
32-32,776279544,-40
32-1,776283456,74
32-2,776287362,114
32-3,776291268,63
32-4,776295174,22
32-5,776299080,-27
32-6,776302986,-112
32-7,776306892,-192
32-8,776310798,-98
32-9,776314704,77
32-10,776318610,93
32-11,776322516,19
32-12,776326422,-47
32-13,776330328,-102
32-14,776334234,-153
32-15,776338140,-175
32-16,776342046,-53
32-17,776345952,75
32-18,776349858,52
32-19,776353764,13
32-20,776357670,-4
32-21,776361576,-49
32-22,776365482,-102
32-23,776369388,-70
32-24,776373294,64
32-25,776377200,112
32-26,776381106,64
32-27,776385012,37
32-28,776388918,13
32-29,776392824,-14
32-30,776396730,-54
32-31,776400636,-57
32-32,776404542,-15
32-1,776408453,-57
32-2,776412359,-137
32-3,776416265,-153
32-4,776420171,-130
32-5,776424077,-132
32-6,776427983,-135
32-7,776431889,-24
32-8,776435795,96
32-9,776439701,110
32-10,776443607,101
32-11,776447513,81
32-12,776451419,53
32-13,776455325,10
32-14,776459231,-45
32-15,776463137,0
32-16,776467043,60
32-17,776470949,-11
32-18,776474855,-120
32-19,776478761,-166
32-20,776482667,-179
32-21,776486573,-197
32-22,776490479,-115
32-23,776494385,56
32-24,776498291,113
32-25,776502197,52
32-26,776506103,22
32-27,776510009,13
32-28,776513915,-42
32-29,776517821,-60
32-30,776521727,10
32-31,776525633,48
32-32,776529539,40
32-1,776533451,53
32-2,776537357,47
32-3,776541263,-11
32-4,776545169,-99
32-5,776549075,-100
32-6,776552981,17
32-7,776556887,71
32-8,776560793,32
32-9,776564699,-25
32-10,776568605,-87
32-11,776572511,-114
32-12,776576417,-125
32-13,776580323,-79
32-14,776584229,59
32-15,776588135,122
32-16,776592041,82
32-17,776595947,14
32-18,776599853,-74
32-19,776603759,-169
32-20,776607665,-225
32-21,776611571,-122
32-22,776615477,36
32-23,776619383,49
32-24,776623289,-22
32-25,776627195,-109
32-26,776631101,-113
32-27,776635007,-71
32-28,776638913,-81
32-29,776642819,24
32-30,776646725,137
32-31,776650631,87
32-32,776654537,30
32-1,776658448,-24
32-2,776662354,-110
32-3,776666260,-167
32-4,776670166,-113
32-5,776674072,44
32-6,776677978,116
32-7,776681884,74
32-8,776685790,25
32-9,776689696,-24
32-10,776693602,-69
32-11,776697508,-82
32-12,776701414,-10
32-13,776705320,93
32-14,776709226,126
32-15,776713132,82
32-16,776717038,-24
32-17,776720944,-129
32-18,776724850,-191
32-19,776728756,-170
32-20,776732662,-20
32-21,776736568,68
32-22,776740474,-7
32-23,776744380,-96
32-24,776748286,-143
32-25,776752192,-188
32-26,776756098,-209
32-27,776760004,-128
32-28,776763910,-4
32-29,776767816,26
32-30,776771722,-4
32-31,776775628,-24
32-32,776779534,-53
32-1,776783446,-124
32-2,776787352,-183
32-3,776791258,-146
32-4,776795164,-121
32-5,776799070,-173
32-6,776802976,-204
32-7,776806882,-198
32-8,776810788,-176
32-9,776814694,-178
32-10,776818600,-154
32-11,776822506,9
32-12,776826412,134
32-13,776830318,113
32-14,776834224,78
32-15,776838130,79
32-16,776842036,60
32-17,776845942,-39
32-18,776849848,-77
32-19,776853754,23
32-20,776857660,64
32-21,776861566,-3
32-22,776865472,-107
32-23,776869378,-172
32-24,776873284,-185
32-25,776877190,-196
32-26,776881096,-70
32-27,776885002,87
32-28,776888908,59
32-29,776892814,19
32-30,776896720,25
32-31,776900626,-26
32-32,776904532,-113
32-1,776908444,-152
32-2,776912350,-49
32-3,776916256,44
32-4,776920162,26
32-5,776924068,5
32-6,776927974,-31
32-7,776931880,-93
32-8,776935786,-155
32-9,776939692,-142
32-10,776943598,-19
32-11,776947504,37
32-12,776951410,-25
32-13,776955316,-95
32-14,776959222,-128
32-15,776963128,-142
32-16,776967034,-163
32-17,776970940,-78
32-18,776974846,76
32-19,776978752,98
32-20,776982658,31
32-21,776986564,-47
32-22,776990470,-126
32-23,776994376,-175
32-24,776998282,-158
32-25,777002188,-29
32-26,777006094,90
32-27,777010000,73
32-28,777013906,-8
32-29,777017812,-45
32-30,777021718,-55
32-31,777025624,-123
32-32,777029530,-104
32-1,777033441,69
32-2,777037347,160
32-3,777041253,134
32-4,777045159,103
32-5,777049065,77
32-6,777052971,23
32-7,777056877,-68
32-8,777060783,-37
32-9,777064689,103
32-10,777068595,112
32-11,777072501,5
32-12,777076407,-98
32-13,777080313,-150
32-14,777084219,-168
32-15,777088125,-170
32-16,777092031,-52
32-17,777095937,80
32-18,777099843,68
32-19,777103749,10
32-20,777107655,-32
32-21,777111561,-71
32-22,777115467,-124
32-23,777119373,-125
32-24,777123279,19
32-25,777127185,91
32-26,777131091,29
32-27,777134997,-12
32-28,777138903,-37
32-29,777142809,-32
32-30,777146715,-46
32-31,777150621,-68
32-32,777154527,21
32-1,777158469,70
32-2,777162375,18
32-3,777166281,-14
32-4,777170187,-50
32-5,777174093,-126
32-6,777177999,-152
32-7,777181905,-46
32-8,777185811,47
32-9,777189717,21
32-10,777193623,-41
32-11,777197529,-107
32-12,777201435,-150
32-13,777205341,-165
32-14,777209247,-117
32-15,777213153,30
32-16,777217059,80
32-17,777220965,-26
32-18,777224871,-116
32-19,777228777,-125
32-20,777232683,-123
32-21,777236589,-136
32-22,777240495,-53
32-23,777244401,90
32-24,777248307,110
32-25,777252213,55
32-26,777256119,42
32-27,777260025,27
32-28,777263931,-35
32-29,777267837,-63
32-30,777271743,13
32-31,777275649,70
32-32,777279555,50
32-1,777283437,36
32-2,777287343,10
32-3,777291249,-53
32-4,777295155,-125
32-5,777299061,-112
32-6,777302967,36
32-7,777306873,144
32-8,777310779,107
32-9,777314685,15
32-10,777318591,-64
32-11,777322497,-139
32-12,777326403,-222
32-13,777330309,-175
32-14,777334215,-16
32-15,777338121,25
32-16,777342027,-1
32-17,777345933,-32
32-18,777349839,-109
32-19,777353745,-157
32-20,777357651,-158
32-21,777361557,-69
32-22,777365463,61
32-23,777369369,97
32-24,777373275,58
32-25,777377181,-36
32-26,777381087,-82
32-27,777384993,-71
32-28,777388899,-78
32-29,777392805,23
32-30,777396711,115
32-31,777400617,50
32-32,777404523,-5
32-1,777408434,-29
32-2,777412340,-91
32-3,777416246,-168
32-4,777420152,-132
32-5,777424058,31
32-6,777427964,106
32-7,777431870,60
32-8,777435776,-20
32-9,777439682,-86
32-10,777443588,-132
32-11,777447494,-179
32-12,777451400,-109
32-13,777455306,9
32-14,777459212,18
32-15,777463118,-15
32-16,777467024,-75
32-17,777470930,-138
32-18,777474836,-187
32-19,777478742,-182
32-20,777482648,-16
32-21,777486554,114
32-22,777490460,52
32-23,777494366,-42
32-24,777498272,-101
32-25,777502178,-147
32-26,777506084,-134
32-27,777509990,-39
32-28,777513896,64
32-29,777517802,101
32-30,777521708,81
32-31,777525614,27
32-32,777529520,2
32-1,777533432,-36
32-2,777537338,-114
32-3,777541244,-64
32-4,777545150,54
32-5,777549056,51
32-6,777552962,5
32-7,777556868,-28
32-8,777560774,-99
32-9,777564680,-176
32-10,777568586,-159
32-11,777572492,-54
32-12,777576398,-33
32-13,777580304,-88
32-14,777584210,-123
32-15,777588116,-148
32-16,777592022,-146
32-17,777595928,-160
32-18,777599834,-115
32-19,777603740,58
32-20,777607646,146
32-21,777611552,124
32-22,777615458,112
32-23,777619364,88
32-24,777623270,22
32-25,777627176,-63
32-26,777631082,-41
32-27,777634988,40
32-28,777638894,19
32-29,777642800,-32
32-30,777646706,-73
32-31,777650612,-121
32-32,777654518,-166
32-1,777658429,-166
32-2,777662335,-13
32-3,777666241,137
32-4,777670147,123
32-5,777674053,80
32-6,777677959,54
32-7,777681865,2
32-8,777685771,-60
32-9,777689677,-56
32-10,777693583,35
32-11,777697489,66
32-12,777701395,8
32-13,777705301,-54
32-14,777709207,-108
32-15,777713113,-164
32-16,777717019,-187
32-17,777720925,-80
32-18,777724831,57
32-19,777728737,61
32-20,777732643,-7
32-21,777736549,-96
32-22,777740455,-171
32-23,777744361,-197
32-24,777748267,-181
32-25,777752173,-55
32-26,777756079,70
32-27,777759985,52
32-28,777763891,2
32-29,777767797,15
32-30,777771703,21
32-31,777775609,-69
32-32,777779515,-92
32-1,777783427,51
32-2,777787333,130
32-3,777791239,97
32-4,777795145,49
32-5,777799051,-12
32-6,777802957,-74
32-7,777806863,-132
32-8,777810769,-80
32-9,777814675,51
32-10,777818581,64
32-11,777822487,-12
32-12,777826393,-94
32-13,777830299,-151
32-14,777834205,-182
32-15,777838111,-176
32-16,777842017,-45
32-17,777845923,64
32-18,777849829,44
32-19,777853735,-4
32-20,777857641,-92
32-21,777861547,-187
32-22,777865453,-239
32-23,777869359,-208
32-24,777873265,-53
32-25,777877171,30
32-26,777881077,-5
32-27,777884983,-43
32-28,777888889,-79
32-29,777892795,-79
32-30,777896701,-118
32-31,777900607,-138
32-32,777904513,-2
32-1,777908425,66
32-2,777912331,8
32-3,777916237,-41
32-4,777920143,-107
32-5,777924049,-192
32-6,777927955,-205
32-7,777931861,-75
32-8,777935767,29
32-9,777939673,-20
32-10,777943579,-142
32-11,777947485,-266
32-12,777951391,-287
32-13,777955297,-267
32-14,777959203,-240
32-15,777963109,-76
32-16,777967015,40
32-17,777970921,-34
32-18,777974827,-187
32-19,777978733,-298
32-20,777982639,-326
32-21,777986545,-309
32-22,777990451,-169
32-23,777994357,67
32-24,777998263,119
32-25,778002169,-34
32-26,778006075,-115
32-27,778009981,-111
32-28,778013887,-203
32-29,778017793,-220
32-30,778021699,-33
32-31,778025605,70
32-32,778029511,46
32-1,778033605,47
32-2,778037511,24
32-3,778041417,-42
32-4,778045323,-133
32-5,778049229,-128
32-6,778053135,56
32-7,778057041,168
32-8,778060947,61
32-9,778064853,-97
32-10,778068759,-178
