32-1,12389724,18791
32-2,12393630,32767
32-3,12397536,28005
32-4,12401442,489
32-5,12405348,-31588
32-6,12409254,-32731
32-7,12413160,-27263
32-8,12417066,1824
32-9,12420972,22146
32-10,12424878,18759
32-11,12428784,-3538
32-12,12432690,-30187
32-13,12436596,-32096
32-14,12440502,-31695
32-15,12444408,-10354
32-16,12448314,17063
32-17,12452220,30189
32-18,12456126,22062
32-19,12460032,-4382
32-20,12463938,-31983
32-21,12467844,-31584
32-22,12471750,-31189
32-23,12475656,-2449
32-24,12479562,23067
32-25,12483468,28026
32-26,12487374,13451
32-27,12491280,-10959
32-28,12495186,-28424
32-29,12499092,-28825
32-30,12502998,-15080
32-31,12506904,7643
32-32,12510810,27046
32-1,12514783,32767
32-2,12518689,20089
32-3,12522595,-9346
32-4,12526501,-32344
32-5,12530407,-31940
32-6,12534313,-18879
32-7,12538219,10891
32-8,12542125,26517
32-9,12546031,17860
32-10,12549937,-7477
32-11,12553843,-31904
32-12,12557749,-31506
32-13,12561655,-30943
32-14,12565561,-2168
32-15,12569467,22655
32-16,12573373,29373
32-17,12577279,14766
32-18,12581185,-14176
32-19,12585091,-31358
32-20,12588997,-30966
32-21,12592903,-23436
32-22,12596809,7685
32-23,12600715,27992
32-24,12604621,25172
32-25,12608527,3417
32-26,12612433,-21198
32-27,12616339,-27392
32-28,12620245,-13588
32-29,12624151,9836
32-30,12628057,30656
32-31,12631963,32767
32-32,12635869,30056
32-1,12639719,9172
32-2,12643625,-21142
32-3,12647531,-32768
32-4,12651437,-32359
32-5,12655343,-10127
32-6,12659249,16680
32-7,12663155,23607
32-8,12667061,7764
32-9,12670967,-19292
32-10,12674873,-32190
32-11,12678779,-31787
32-12,12682685,-21868
32-13,12686591,7472
32-14,12690497,26746
32-15,12694403,26286
32-16,12698309,5144
32-17,12702215,-24563
32-18,12706121,-31633
32-19,12710027,-31238
32-20,12713933,-13252
32-21,12717839,15529
32-22,12721745,30582
32-23,12725651,21703
32-24,12729557,-7294
32-25,12733463,-31440
32-26,12737369,-31047
32-27,12741275,-18679
32-28,12745181,11948
32-29,12749087,32767
32-30,12752993,32358
32-31,12756899,30200
32-32,12760805,3470
32-1,12764717,-26089
32-2,12768623,-32768
32-3,12772529,-31326
32-4,12776435,-2901
32-5,12780341,21827
32-6,12784247,23993
32-7,12788153,4112
32-8,12792059,-24390
32-9,12795965,-32253
32-10,12799871,-31850
32-11,12803777,-15652
32-12,12807683,13323
32-13,12811589,28915
32-14,12815495,23259
32-15,12819401,-1623
32-16,12823307,-30868
32-17,12827213,-31671
32-18,12831119,-31275
32-19,12835025,-4933
32-20,12838931,21334
32-21,12842837,29069
32-22,12846743,15271
32-23,12850649,-13507
32-24,12854555,-31477
32-25,12858461,-31084
32-26,12862367,-26117
32-27,12866273,3034
32-28,12870179,28954
32-29,12874085,32767
32-30,12877991,25546
32-31,12881897,-4740
32-32,12885803,-32768
32-1,12889714,-32359
32-2,12893620,-25225
32-3,12897526,6455
32-4,12901432,30435
32-5,12905338,31140
32-6,12909244,9773
32-7,12913150,-22123
32-8,12917056,-32337
32-9,12920962,-31933
32-10,12924868,-10720
32-11,12928774,17421
32-12,12932680,27300
32-13,12936586,14330
32-14,12940492,-13143
32-15,12944398,-31976
32-16,12948304,-31576
32-17,12952210,-26074
32-18,12956116,3958
32-19,12960022,26946
32-20,12963928,30603
32-21,12967834,12725
32-22,12971740,-18024
32-23,12975646,-31560
32-24,12979552,-31166
32-25,12983458,-20487
32-26,12987364,8938
32-27,12991270,32573
32-28,12995176,32767
32-29,12999082,24740
32-30,13002988,-6870
32-31,13006894,-32768
32-32,13010800,-32359
32-1,13014712,-15355
32-2,13018618,10181
32-3,13022524,19353
32-4,13026430,4542
32-5,13030336,-21299
32-6,13034242,-31924
32-7,13038148,-31525
32-8,13042054,-21468
32-9,13045960,1625
32-10,13049866,22677
32-11,13053772,32767
32-12,13057678,32358
32-13,13061584,30370
32-14,13065490,3412
32-15,13069396,-18832
32-16,13073302,-22053
32-17,13077208,-6487
32-18,13081114,10471
32-19,13085020,10210
32-20,13088926,-10072
32-21,13092832,-32768
32-22,13096738,-32359
32-23,13100644,-31955
32-24,13104550,-11785
32-25,13108456,15375
32-26,13112362,32767
32-27,13116268,32358
32-28,13120174,17053
32-29,13124080,-14087
32-30,13127986,-32768
32-31,13131892,-32359
32-32,13135798,-12525
32-1,13139710,18413
32-2,13143616,32767
32-3,13147522,24434
32-4,13151428,-3585
32-5,13155334,-32768
32-6,13159240,-32359
32-7,13163146,-26802
32-8,13167052,3294
32-9,13170958,24545
32-10,13174864,23033
32-11,13178770,592
32-12,13182676,-29478
32-13,13186582,-31897
32-14,13190488,-31066
32-15,13194394,-8820
32-16,13198300,4379
32-17,13202206,-963
32-18,13206112,-16070
32-19,13210018,-28056
32-20,13213924,-28163
32-21,13217830,-14437
32-22,13221736,3527
32-23,13225642,16868
32-24,13229548,27810
32-25,13233454,32767
32-26,13237360,32358
32-27,13241266,31953
32-28,13245172,18725
32-29,13249078,-1089
32-30,13252984,-10500
32-31,13256890,-2051
32-32,13260796,13946
32-1,13264768,19172
32-2,13268674,4124
32-3,13272580,-23352
32-4,13276486,-32768
32-5,13280392,-32359
32-6,13284298,-17128
32-7,13288204,10932
32-8,13292110,25486
32-9,13296016,18633
32-10,13299922,-6312
32-11,13303828,-32352
32-12,13307734,-31947
32-13,13311640,-31538
32-14,13315546,-2621
32-15,13319452,22225
32-16,13323358,28786
32-17,13327264,13854
32-18,13331170,-15101
32-19,13335076,-31746
32-20,13338982,-31350
32-21,13342888,-23426
32-22,13346794,7881
32-23,13350700,28945
32-24,13354606,27291
32-25,13358512,6007
32-26,13362418,-19757
32-27,13366324,-27928
32-28,13370230,-15635
32-29,13374136,7481
32-30,13378042,29383
32-31,13381948,32767
32-32,13385854,30570
32-1,13389705,10144
32-2,13393611,-20061
32-3,13397517,-32768
32-4,13401423,-32359
32-5,13405329,-11601
32-6,13409235,15784
32-7,13413141,24120
32-8,13417047,9313
32-9,13420953,-17678
32-10,13424859,-32206
32-11,13428765,-31803
32-12,13432671,-23636
32-13,13436577,6020
32-14,13440483,27168
32-15,13444389,29285
32-16,13448295,9983
32-17,13452201,-20380
32-18,13456107,-31764
32-19,13460013,-31367
32-20,13463919,-16639
32-21,13467825,13137
32-22,13471731,30491
32-23,13475637,23754
32-24,13479543,-4271
32-25,13483449,-31558
32-26,13487355,-31163
32-27,13491261,-20117
32-28,13495167,10685
32-29,13499073,32767
32-30,13502979,32358
32-31,13506885,30362
32-32,13510791,3481
32-1,13514703,-25344
32-2,13518609,-32768
32-3,13522515,-32359
32-4,13526421,-5753
32-5,13530327,23947
32-6,13534233,32767
32-7,13538139,20309
32-8,13542045,-9986
32-9,13545951,-32768
32-10,13549857,-32359
32-11,13553763,-21588
32-12,13557669,8171
32-13,13561575,25148
32-14,13565481,18403
32-15,13569387,-5786
32-16,13573293,-32261
32-17,13577199,-31858
32-18,13581105,-31460
32-19,13585011,-4887
32-20,13588917,20884
32-21,13592823,29381
32-22,13596729,16644
32-23,13600635,-11945
32-24,13604541,-31695
32-25,13608447,-31299
32-26,13612353,-27805
32-27,13616259,768
32-28,13620165,27428
32-29,13624071,32767
32-30,13627977,27313
32-31,13631883,-2249
32-32,13635789,-31583
32-1,13639700,-32688
32-2,13643606,-26975
32-3,13647512,4480
32-4,13651418,29770
32-5,13655324,32201
32-6,13659230,12033
32-7,13663136,-19979
32-8,13667042,-32676
32-9,13670948,-32268
32-10,13674854,-12886
32-11,13678760,15818
32-12,13682666,26873
32-13,13686572,14696
32-14,13690478,-12246
32-15,13694384,-32270
32-16,13698290,-31867
32-17,13702196,-27033
32-18,13706102,2555
32-19,13710008,24601
32-20,13713914,26776
32-21,13717820,8181
32-22,13721726,-21568
32-23,13725632,-31640
32-24,13729538,-31245
32-25,13733444,-20043
32-26,13737350,8280
32-27,13741256,32217
32-28,13745162,32767
32-29,13749068,29115
32-30,13752974,-1143
32-31,13756880,-29305
32-32,13760786,-32753
32-1,13764698,-21770
32-2,13768604,10412
32-3,13772510,32767
32-4,13776416,32358
32-5,13780322,9454
32-6,13784228,-23469
32-7,13788134,-32768
32-8,13792040,-32359
32-9,13795946,-5947
32-10,13799852,20156
32-11,13803758,24958
32-12,13807664,7035
32-13,13811570,-21206
32-14,13815476,-32268
32-15,13819382,-31865
32-16,13823288,-18691
32-17,13827194,10572
32-18,13831100,27411
32-19,13835006,23343
32-20,13838912,-189
32-21,13842818,-29216
32-22,13846724,-31635
32-23,13850630,-31240
32-24,13854536,-12041
32-25,13858442,16616
32-26,13862348,32767
32-27,13866254,32358
32-28,13870160,20544
32-29,13874066,-10048
32-30,13877972,-32768
32-31,13881878,-32648
32-32,13885784,-13656
32-1,13889695,17465
32-2,13893601,32767
32-3,13897507,26460
32-4,13901413,-1690
32-5,13905319,-32768
32-6,13909225,-32359
32-7,13913131,-25822
32-8,13917037,3601
32-9,13920943,23229
32-10,13924849,19296
32-11,13928755,-3423
32-12,13932661,-30338
32-13,13936567,-31789
32-14,13940473,-31392
32-15,13944379,-9466
32-16,13948285,18267
32-17,13952191,31639
32-18,13956097,23523
32-19,13960003,-3373
32-20,13963909,-31759
32-21,13967815,-31362
32-22,13971721,-29157
32-23,13975627,200
32-24,13979533,23555
32-25,13983439,24661
32-26,13987345,7170
32-27,13991251,-15323
32-28,13995157,-24206
32-29,13999063,-15209
32-30,14002969,-3677
32-31,14006875,-2403
32-32,14010781,-12642
32-1,14014693,-23405
32-2,14018599,-27977
32-3,14022505,-24925
32-4,14026411,-15010
32-5,14030317,-350
32-6,14034223,13832
32-7,14038129,24987
32-8,14042035,32767
32-9,14045941,32767
32-10,14049847,32358
32-11,14053753,22096
32-12,14057659,-1516
32-13,14061565,-16085
32-14,14065471,-12776
32-15,14069377,1225
32-16,14073283,7326
32-17,14077189,-3882
32-18,14081095,-26541
32-19,14085001,-32768
32-20,14088907,-32359
32-21,14092813,-21437
32-22,14096719,7272
32-23,14100625,27908
32-24,14104531,28714
32-25,14108437,7803
32-26,14112343,-19453
32-27,14116249,-30800
32-28,14120155,-21146
32-29,14124061,1646
32-30,14127967,25796
32-31,14131873,32767
32-32,14135779,31324
32-1,14139691,10850
32-2,14143597,-20300
32-3,14147503,-32768
32-4,14151409,-32359
32-5,14155315,-11279
32-6,14159221,14417
32-7,14163127,20592
32-8,14167033,4619
32-9,14170939,-21503
32-10,14174845,-32042
32-11,14178751,-31642
32-12,14182657,-21910
32-13,14186563,7403
32-14,14190469,28895
32-15,14194375,32250
32-16,14198281,13372
32-17,14202187,-17821
32-18,14206093,-31776
32-19,14209999,-31379
32-20,14213905,-16398
32-21,14217811,13439
32-22,14221717,29927
32-23,14225623,21382
32-24,14229529,-7080
32-25,14233435,-31504
32-26,14237341,-31111
32-27,14241247,-18700
32-28,14245153,13051
32-29,14249059,32767
32-30,14252965,32358
32-31,14256871,25935
32-32,14260777,-2332
32-1,14264688,-30327
32-2,14268594,-32768
32-3,14272500,-31896
32-4,14276406,-2806
32-5,14280312,22400
32-6,14284218,25983
32-7,14288124,7566
32-8,14292030,-21575
32-9,14295936,-32357
32-10,14299842,-31953
32-11,14303748,-17113
32-12,14307654,12356
32-13,14311560,28568
32-14,14315466,23355
32-15,14319372,-1131
32-16,14323278,-30072
32-17,14327184,-31756
32-18,14331090,-31359
32-19,14334996,-6627
32-20,14338902,20970
32-21,14342808,31485
32-22,14346714,20425
32-23,14350620,-7869
32-24,14354526,-31698
32-25,14358432,-31302
32-26,14362338,-29119
32-27,14366244,160
32-28,14370150,27050
32-29,14374056,32767
32-30,14377962,23385
32-31,14381868,-6596
32-32,14385774,-32768
32-1,14389686,-32359
32-2,14393592,-26220
32-3,14397498,5163
32-4,14401404,28947
32-5,14405310,30284
32-6,14409216,10038
32-7,14413122,-21351
32-8,14417028,-32293
32-9,14420934,-31889
32-10,14424840,-13070
32-11,14428746,15513
32-12,14432652,27178
32-13,14436558,16006
32-14,14440464,-10765
32-15,14444370,-31928
32-16,14448276,-31529
32-17,14452182,-27921
32-18,14456088,1697
32-19,14459994,25490
32-20,14463900,30369
32-21,14467806,13955
32-22,14471712,-16266
32-23,14475618,-31479
32-24,14479524,-31085
32-25,14483430,-22933
32-26,14487336,5856
32-27,14491242,30974
32-28,14495148,32767
32-29,14499054,28718
32-30,14502960,-1259
32-31,14506866,-29852
32-32,14510772,-32740
32-1,14514684,-21418
32-2,14518590,10572
32-3,14522496,32767
32-4,14526402,30505
32-5,14530308,5695
32-6,14534214,-26703
32-7,14538120,-32768
32-8,14542026,-32359
32-9,14545932,-5121
32-10,14549838,20006
32-11,14553744,23719
32-12,14557650,5683
32-13,14561556,-22097
32-14,14565462,-32233
32-15,14569368,-31831
32-16,14573274,-18819
32-17,14577180,10391
32-18,14581086,27868
32-19,14584992,24877
32-20,14588898,1919
32-21,14592804,-27669
32-22,14596710,-31667
32-23,14600616,-31272
32-24,14604522,-12154
32-25,14608428,16695
32-26,14612334,32767
32-27,14616240,30646
32-28,14620146,8720
32-29,14624052,-20835
32-30,14627958,-31949
32-31,14631864,-31550
32-32,14635770,-10465
32-1,14639681,20043
32-2,14643587,32767
32-3,14647493,29850
32-4,14651399,2760
32-5,14655305,-29592
32-6,14659211,-32768
32-7,14663117,-27656
32-8,14667023,2006
32-9,14670929,24013
32-10,14674835,22065
32-11,14678741,-234
32-12,14682647,-28387
32-13,14686553,-32259
32-14,14690459,-31856
32-15,14694365,-11593
32-16,14698271,16418
32-17,14702177,29550
32-18,14706083,21147
32-19,14709989,-5306
32-20,14713895,-32086
32-21,14717801,-31686
32-22,14721707,-30687
32-23,14725613,-1484
32-24,14729519,23592
32-25,14733425,27615
32-26,14737331,12301
32-27,14741237,-12030
32-28,14745143,-28735
32-29,14749049,-28391
32-30,14752955,-14790
32-31,14756861,7338
32-32,14760767,26671
32-1,14764709,32767
32-2,14768615,20724
32-3,14772521,-8501
32-4,14776427,-32657
32-5,14780333,-32249
32-6,14784239,-19038
32-7,14788145,10655
32-8,14792051,26321
32-9,14795957,17475
32-10,14799863,-8147
32-11,14803769,-32189
32-12,14807675,-31787
32-13,14811581,-30164
32-14,14815487,-980
32-15,14819393,22923
32-16,14823299,27943
32-17,14827205,11755
32-18,14831111,-17405
32-19,14835017,-31568
32-20,14838923,-31174
32-21,14842829,-21727
32-22,14846735,9552
32-23,14850641,29822
32-24,14854547,27793
32-25,14858453,6185
32-26,14862359,-20084
32-27,14866265,-29131
32-28,14870171,-17826
32-29,14874077,5321
32-30,14877983,28161
32-31,14881889,32767
32-32,14885795,29689
32-1,14889707,8276
32-2,14893613,-22130
32-3,14897519,-32768
32-4,14901425,-32359
32-5,14905331,-10363
32-6,14909237,17101
32-7,14913143,25346
32-8,14917049,10589
32-9,14920955,-17039
32-10,14924861,-32277
32-11,14928767,-31874
32-12,14932673,-23393
32-13,14936579,6762
32-14,14940485,27972
32-15,14944391,29595
32-16,14948297,9533
32-17,14952203,-21276
32-18,14956109,-31842
32-19,14960015,-31445
32-20,14963921,-14442
32-21,14967827,15196
32-22,14971733,30997
32-23,14975639,21990
32-24,14979545,-6915
32-25,14983451,-31639
32-26,14987357,-31244
32-27,14991263,-17528
32-28,14995169,12120
32-29,14999075,32767
32-30,15002981,32358
32-31,15006887,31953
32-32,15010793,8942
32-1,15014674,-21339
32-2,15018580,-32768
32-3,15022486,-31438
32-4,15026392,-5194
32-5,15030298,18427
32-6,15034204,19626
32-7,15038110,-766
32-8,15042016,-27720
32-9,15045922,-32023
32-10,15049828,-31623
32-11,15053734,-12058
32-12,15057640,14364
32-13,15061546,25728
32-14,15065452,16166
32-15,15069358,-9908
32-16,15073264,-31658
32-17,15077170,-31263
32-18,15081076,-29999
32-19,15084982,-4094
32-20,15088888,23268
32-21,15092794,32767
32-22,15096700,32358
32-23,15100606,7530
32-24,15104512,-24088
32-25,15108418,-32768
32-26,15112324,-32359
32-27,15116230,-6081
32-28,15120136,23295
32-29,15124042,32567
32-30,15127948,17770
32-31,15131854,-12520
32-32,15135760,-32644
32-1,15139672,-32237
32-2,15143578,-24485
32-3,15147484,6070
32-4,15151390,31375
32-5,15155296,32767
32-6,15159202,23728
32-7,15163108,-8347
32-8,15167014,-32768
32-9,15170920,-32359
32-10,15174826,-16740
32-11,15178732,11808
32-12,15182638,24441
32-13,15186544,11987
32-14,15190450,-14566
32-15,15194356,-32168
32-16,15198262,-31766
32-17,15202168,-26209
32-18,15206074,3197
32-19,15209980,25501
32-20,15213886,28906
32-21,15217792,10899
32-22,15221698,-19271
32-23,15225604,-31659
32-24,15229510,-31263
32-25,15233416,-20681
32-26,15237322,6878
32-27,15241228,31259
32-28,15245134,32767
32-29,15249040,32358
32-30,15252946,5326
32-31,15256852,-24352
32-32,15260758,-32768
32-1,15264669,-23765
32-2,15268575,7666
32-3,15272481,32767
32-4,15276387,32358
32-5,15280293,10266
32-6,15284199,-22936
32-7,15288105,-32768
32-8,15292011,-32359
32-9,15295917,-7180
32-10,15299823,18360
32-11,15303729,22707
32-12,15307635,5278
32-13,15311541,-21524
32-14,15315447,-32177
32-15,15319353,-31775
32-16,15323259,-21975
32-17,15327165,6809
32-18,15331071,26301
32-19,15334977,26444
32-20,15338883,5267
32-21,15342789,-24538
32-22,15346695,-31609
32-23,15350601,-31214
32-24,15354507,-10985
32-25,15358413,14590
32-26,15362319,25689
32-27,15366225,21809
32-28,15370131,6305
32-29,15374037,-11340
32-30,15377943,-21251
32-31,15381849,-21833
32-32,15385755,-8014
32-1,15389667,15383
32-2,15393573,32767
32-3,15397479,32447
32-4,15401385,8776
32-5,15405291,-25738
32-6,15409197,-32768
32-7,15413103,-28510
32-8,15417009,-101
32-9,15420915,21551
32-10,15424821,19507
32-11,15428727,-2813
32-12,15432633,-29541
32-13,15436539,-32112
32-14,15440445,-31711
32-15,15444351,-11682
32-16,15448257,15930
32-17,15452163,29743
32-18,15456069,22336
32-19,15459975,-3552
32-20,15463881,-31975
32-21,15467787,-31576
32-22,15471693,-31181
32-23,15475599,-1985
32-24,15479505,23492
32-25,15483411,23862
32-26,15487317,6462
32-27,15491223,-13951
32-28,15495129,-21134
32-29,15499035,-11585
32-30,15502941,2916
32-31,15506847,16980
32-32,15510753,27256
33-1,15511979,30071
33-2,15515885,19815
33-3,15519791,-6329
33-4,15523697,-31994
33-5,15527603,-31595
33-6,15531509,-18947
33-7,15535415,10762
33-8,15539321,26831
33-9,15543227,18337
33-10,15547133,-6841
33-11,15551039,-31579
33-12,15554945,-31184
33-13,15558851,-30758
33-14,15562757,-2026
33-15,15566663,22240
33-16,15570569,28217
33-17,15574475,12881
33-18,15578381,-15830
33-19,15582287,-30981
33-20,15586193,-30594
33-21,15590099,-21548
33-22,15594005,8102
33-23,15597911,29248
33-24,15601817,27611
33-25,15605723,2090
33-26,15609629,-27119
33-27,15613535,-30444
33-28,15617441,-19951
33-29,15621347,11056
33-30,15625253,32767
33-31,15629159,32358
33-32,15633065,30226
33-33,15636971,4814
32-1,15643568,-24092
32-2,15647474,-32768
32-3,15651380,-32359
32-4,15655286,-10705
32-5,15659192,17635
32-6,15663098,27095
32-7,15667004,13559
32-8,15670910,-14318
32-9,15674816,-32372
32-10,15678722,-31967
32-11,15682628,-25000
32-12,15686534,5080
32-13,15690440,26518
32-14,15694346,27792
32-15,15698252,7996
32-16,15702158,-22288
32-17,15706064,-31821
32-18,15709970,-31424
32-19,15713876,-14563
32-20,15717782,14584
32-21,15721688,28690
32-22,15725594,21023
32-23,15729500,-4764
32-24,15733406,-31596
32-25,15737312,-31201
32-26,15741218,-30811
32-27,15745124,-6072
32-28,15749030,22698
32-29,15752936,32767
32-30,15756842,32358
32-31,15760748,7134
32-32,15764654,-25292
32-1,15768566,-32768
32-2,15772472,-32003
32-3,15776378,-3444
32-4,15780284,22493
32-5,15784190,26339
32-6,15788096,7255
32-7,15792002,-21853
32-8,15795908,-32346
32-9,15799814,-31942
32-10,15803720,-17646
32-11,15807626,12520
32-12,15811532,30685
32-13,15815438,27698
32-14,15819344,4108
32-15,15823250,-27082
32-16,15827156,-31923
32-17,15831062,-31525
32-18,15834968,-6812
32-19,15838874,19688
32-20,15842780,26718
32-21,15846686,12059
32-22,15850592,-15974
32-23,15854498,-31579
32-24,15858404,-31184
32-25,15862310,-25306
32-26,15866216,2002
32-27,15870122,28079
32-28,15874028,32767
32-29,15877934,32358
32-30,15881840,4235
32-31,15885746,-26110
32-32,15889652,-32768
32-1,15893564,-29175
32-2,15897470,874
32-3,15901376,29939
32-4,15905282,32746
32-5,15909188,22802
32-6,15913094,-9310
32-7,15917000,-32768
32-8,15920906,-32359
32-9,15924812,-16221
32-10,15928718,11797
32-11,15932624,23445
32-12,15936530,10430
32-13,15940436,-15930
32-14,15944342,-32126
32-15,15948248,-31725
32-16,15952154,-26019
32-17,15956060,3479
32-18,15959966,26248
32-19,15963872,30767
32-20,15967778,13384
32-21,15971684,-17283
32-22,15975590,-31713
32-23,15979496,-31316
32-24,15983402,-21200
32-25,15987308,9352
32-26,15991214,32351
32-27,15995120,32767
32-28,15999026,19791
32-29,16002932,-11427
32-30,16006838,-32768
32-31,16010744,-32359
32-32,16014650,-21020
32-1,16018561,10849
32-2,16022467,32767
32-3,16026373,32358
32-4,16030279,11782
32-5,16034185,-22061
32-6,16038091,-32768
32-7,16041997,-32359
32-8,16045903,-7107
32-9,16049809,16972
32-10,16053715,19704
32-11,16057621,931
32-12,16061527,-25298
32-13,16065433,-32022
32-14,16069339,-31622
32-15,16073245,-17522
32-16,16077151,11335
32-17,16081057,29885
32-18,16084963,28662
32-19,16088869,6140
32-20,16092775,-24558
32-21,16096681,-31653
32-22,16100587,-31257
32-23,16104493,-10786
32-24,16108399,18273
32-25,16112305,29144
32-26,16116211,19306
32-27,16120117,-3539
32-28,16124023,-25462
32-29,16127929,-31205
32-30,16131835,-23759
32-31,16135741,-3420
32-32,16139647,20176
32-1,16143620,32767
32-2,16147526,28929
32-3,16151432,3950
32-4,16155338,-28654
32-5,16159244,-32713
32-6,16163150,-28349
32-7,16167056,558
32-8,16170962,22126
32-9,16174868,20005
32-10,16178774,-2075
32-11,16182680,-29192
32-12,16186586,-32094
32-13,16190492,-31693
32-14,16194398,-10354
32-15,16198304,17083
32-16,16202210,29514
32-17,16206116,20684
32-18,16210022,-6107
32-19,16213928,-31934
32-20,16217834,-31535
32-21,16221740,-30869
32-22,16225646,-987
32-23,16229552,24497
32-24,16233458,30150
32-25,16237364,14234
32-26,16241270,-12788
32-27,16245176,-27859
32-28,16249082,-21554
32-29,16252988,-628
32-30,16256894,24027
32-31,16260800,32767
32-32,16264706,32358
32-1,16268557,17780
32-2,16272463,-11812
32-3,16276369,-32768
32-4,16280275,-32359
32-5,16284181,-20331
32-6,16288087,8954
32-7,16291993,24131
32-8,16295899,15409
32-9,16299805,-9504
32-10,16303711,-32190
32-11,16307617,-31788
32-12,16311523,-30918
32-13,16315429,-2205
32-14,16319335,22768
32-15,16323241,30810
32-16,16327147,17190
32-17,16331053,-11817
32-18,16334959,-31716
32-19,16338865,-31319
32-20,16342771,-24946
32-21,16346677,5117
32-22,16350583,28276
32-23,16354489,28247
32-24,16358395,4396
32-25,16362301,-24873
32-26,16366207,-31133
32-27,16370113,-22021
32-28,16374019,6260
32-29,16377925,32025
32-30,16381831,32767
32-31,16385737,32358
32-32,16389643,11176
32-1,16393554,-18394
32-2,16397460,-32768
32-3,16401366,-32359
32-4,16405272,-12044
32-5,16409178,15839
32-6,16413084,24761
32-7,16416990,10087
32-8,16420896,-17109
32-9,16424802,-32226
32-10,16428708,-31823
32-11,16432614,-23850
32-12,16436520,5567
32-13,16440426,26008
32-14,16444332,26791
32-15,16448238,6634
32-16,16452144,-23163
32-17,16456050,-31653
32-18,16459956,-31257
32-19,16463862,-14401
32-20,16467768,14775
32-21,16471674,29463
32-22,16475580,22738
32-23,16479486,-2650
32-24,16483392,-30951
32-25,16487298,-31106
32-26,16491204,-30717
32-27,16495110,-7151
32-28,16499016,21953
32-29,16502922,32767
32-30,16506828,30570
32-31,16510734,4332
32-32,16514640,-26990
32-1,16518552,-32768
32-2,16522458,-32359
32-3,16526364,-4673
32-4,16530270,24626
32-5,16534176,32767
32-6,16538082,20526
32-7,16541988,-9769
32-8,16545894,-32768
32-9,16549800,-32359
32-10,16553706,-21950
32-11,16557612,8363
32-12,16561518,26262
32-13,16565424,20526
32-14,16569330,-3480
32-15,16573236,-31442
32-16,16577142,-31935
32-17,16581048,-31536
32-18,16584954,-6854
32-19,16588860,20227
32-20,16592766,30555
32-21,16596672,19419
32-22,16600578,-8970
32-23,16604484,-31823
32-24,16608390,-31426
32-25,16612296,-28887
32-26,16616202,-1447
32-27,16620108,26427
32-28,16624014,32767
32-29,16627920,32358
32-30,16631826,5063
32-31,16635732,-25774
32-32,16639638,-32768
32-1,16643550,-29313
32-2,16647456,-299
32-3,16651362,29572
32-4,16655268,32767
32-5,16659174,28503
32-6,16663080,-2384
32-7,16666986,-32342
32-8,16670892,-32693
32-9,16674798,-17851
32-10,16678704,9929
32-11,16682610,22890
32-12,16686516,10417
32-13,16690422,-16010
32-14,16694328,-32404
32-15,16698234,-31999
32-16,16702140,-26422
32-17,16706046,2743
32-18,16709952,24335
32-19,16713858,27205
32-20,16717764,8841
32-21,16721670,-20988
32-22,16725576,-31798
32-23,16729482,-31401
32-24,16733388,-20295
32-25,16737294,9424
32-26,16741200,32179
32-27,16745106,32767
32-28,16749012,21783
32-29,16752918,-9075
32-30,16756824,-32768
32-31,16760730,-32359
32-32,16764636,-21217
32-1,16768547,10465
32-2,16772453,32767
32-3,16776359,32467
32-4,16780265,11034
32-5,16784171,-22309
32-6,16788077,-32768
32-7,16791983,-32359
32-8,16795889,-6648
32-9,16799795,19456
32-10,16803701,24509
32-11,16807607,6801
32-12,16811513,-21226
32-13,16815419,-32242
32-14,16819325,-31839
32-15,16823231,-20886
32-16,16827137,9085
32-17,16831043,30336
32-18,16834949,32173
32-19,16838855,12160
32-20,16842761,-19973
32-21,16846667,-31980
32-22,16850573,-31580
32-23,16854479,-12485
32-24,16858385,15920
32-25,16862291,24822
32-26,16866197,12819
32-27,16870103,-8560
32-28,16874009,-26455
32-29,16877915,-29379
32-30,16881821,-20063
32-31,16885727,-1398
32-32,16889633,19934
32-1,16893636,32767
32-2,16897542,28983
32-3,16901448,4009
32-4,16905354,-28557
32-5,16909260,-32160
32-6,16913166,-26963
32-7,16917072,1384
32-8,16920978,21403
32-9,16924884,17766
32-10,16928790,-4854
32-11,16932696,-30780
32-12,16936602,-31485
32-13,16940508,-31092
32-14,16944414,-8576
32-15,16948320,19075
32-16,16952226,32555
32-17,16956132,24866
32-18,16960038,-2085
32-19,16963944,-31225
32-20,16967850,-31138
32-21,16971756,-30749
32-22,16975662,-922
32-23,16979568,24675
32-24,16983474,28838
32-25,16987380,11848
32-26,16991286,-14073
32-27,16995192,-26449
32-28,16999098,-17598
32-29,17003004,3355
32-30,17006910,26064
32-31,17010816,32767
32-32,17014722,32358
32-1,17018603,19905
32-2,17022509,-9390
32-3,17026415,-32768
32-4,17030321,-32359
32-5,17034227,-20174
32-6,17038133,8007
32-7,17042039,21763
32-8,17045945,11621
32-9,17049851,-13251
32-10,17053757,-32057
32-11,17057663,-31656
32-12,17061569,-29306
32-13,17065475,-531
32-14,17069381,23991
32-15,17073287,32089
32-16,17077193,18136
32-17,17081099,-11480
32-18,17085005,-31674
32-19,17088911,-31279
32-20,17092817,-24518
32-21,17096723,5926
32-22,17100629,29716
32-23,17104535,30485
32-24,17108441,6821
32-25,17112347,-23335
32-26,17116253,-31204
32-27,17120159,-22688
32-28,17124065,6259
32-29,17127971,32767
32-30,17131877,32767
32-31,17135783,31825
32-32,17139689,8309
32-1,17143540,-20832
32-2,17147446,-32768
32-3,17151352,-32359
32-4,17155258,-12652
32-5,17159164,16214
32-6,17163070,27000
32-7,17166976,14192
32-8,17170882,-13418
32-9,17174788,-32348
32-10,17178694,-31944
32-11,17182600,-25918
32-12,17186506,4201
32-13,17190412,26758
32-14,17194318,29826
32-15,17198224,11366
32-16,17202130,-19110
32-17,17206036,-31886
32-18,17209942,-31488
32-19,17213848,-17563
32-20,17217754,12677
32-21,17221660,29677
32-22,17225566,24933
32-23,17229472,451
32-24,17233378,-28943
32-25,17237284,-31362
32-26,17241190,-30970
32-27,17245096,-7700
32-28,17249002,21776
32-29,17252908,32767
32-30,17256814,27872
32-31,17260720,1119
32-32,17264626,-29476
32-1,17268538,-32764
32-2,17272444,-32354
32-3,17276350,-4636
32-4,17280256,23708
32-5,17284162,32587
32-6,17288068,18724
32-7,17291974,-11180
32-8,17295880,-32692
32-9,17299786,-32283
32-10,17303692,-22648
32-11,17307598,7576
32-12,17311504,26078
32-13,17315410,21626
32-14,17319316,-1775
32-15,17323222,-30114
32-16,17327128,-31891
32-17,17331034,-31493
32-18,17334940,-7957
32-19,17338846,19699
32-20,17342752,31055
32-21,17346658,21053
32-22,17350564,-6794
32-23,17354470,-31814
32-24,17358376,-31417
32-25,17362282,-30283
32-26,17366188,-3155
32-27,17370094,25193
32-28,17374000,32767
32-29,17377906,32358
32-30,17381812,5557
32-31,17385718,-25685
32-32,17389624,-32768
32-1,17393535,-29329
32-2,17397441,990
32-3,17401347,29490
32-4,17405253,32752
32-5,17409159,19072
32-6,17413065,-13224
32-7,17416971,-32768
32-8,17420877,-32359
32-9,17424783,-15315
32-10,17428689,13243
32-11,17432595,24780
32-12,17436501,12148
32-13,17440407,-14138
32-14,17444313,-32215
32-15,17448219,-31812
32-16,17452125,-27241
32-17,17456031,1985
32-18,17459937,24448
32-19,17463843,28277
32-20,17467749,10847
32-21,17471655,-19017
32-22,17475561,-31658
32-23,17479467,-31263
32-24,17483373,-21562
32-25,17487279,8534
32-26,17491185,31469
32-27,17495091,32767
32-28,17498997,19454
32-29,17502903,-11744
32-30,17506809,-32768
32-31,17510715,-32359
32-32,17514621,-20877
32-1,17518533,10620
32-2,17522439,32767
32-3,17526345,32358
32-4,17530251,15515
32-5,17534157,-18119
32-6,17538063,-32768
32-7,17541969,-32359
32-8,17545875,-8125
32-9,17549781,19035
32-10,17553687,25577
32-11,17557593,8267
32-12,17561499,-19946
32-13,17565405,-32267
32-14,17569311,-31864
32-15,17573217,-20763
32-16,17577123,8829
32-17,17581029,27680
32-18,17584935,26017
32-19,17588841,3925
32-20,17592747,-26080
32-21,17596653,-31713
32-22,17600559,-31317
32-23,17604465,-10933
32-24,17608371,17872
32-25,17612277,29183
32-26,17616183,19890
32-27,17620089,-3084
32-28,17623995,-25505
32-29,17627901,-31270
32-30,17631807,-24225
32-31,17635713,-3416
32-32,17639619,20260
33-1,17639747,32767
33-2,17643653,27995
33-3,17647559,2544
33-4,17651465,-29384
33-5,17655371,-32340
33-6,17659277,-27647
33-7,17663183,2021
33-8,17667089,24103
33-9,17670995,22685
33-10,17674901,690
33-11,17678807,-27504
33-12,17682713,-31868
33-13,17686619,-31470
33-14,17690525,-11209
33-15,17694431,17195
33-16,17698337,30699
33-17,17702243,22736
33-18,17706149,-3801
33-19,17710055,-31773
33-20,17713961,-31376
33-21,17717867,-30174
33-22,17721773,139
33-23,17725679,24008
33-24,17729585,25165
33-25,17733491,6169
33-26,17737397,-18174
33-27,17741303,-25895
33-28,17745209,-12744
33-29,17749115,9409
33-30,17753021,29707
33-31,17756927,32767
33-32,17760833,32358
33-33,17764739,18897
32-1,17772434,-9593
32-2,17776340,-32768
32-3,17780246,-32359
32-4,17784152,-20626
32-5,17788058,9010
32-6,17791964,25070
32-7,17795870,16785
32-8,17799776,-8484
32-9,17803682,-32228
32-10,17807588,-31826
32-11,17811494,-31122
32-12,17815400,-2004
32-13,17819306,23393
32-14,17823212,31470
32-15,17827118,17521
32-16,17831024,-12004
32-17,17834930,-31771
32-18,17838836,-31374
32-19,17842742,-23471
32-20,17846648,6861
32-21,17850554,29174
32-22,17854460,27780
32-23,17858366,2817
32-24,17862272,-26594
32-25,17866178,-31190
32-26,17870084,-21371
32-27,17873990,7565
32-28,17877896,32767
32-29,17881802,32767
32-30,17885708,32358
32-31,17889614,12115
32-32,17893520,-17106
32-1,17897432,-32768
32-2,17901338,-32359
32-3,17905244,-13832
32-4,17909150,15814
32-5,17913056,28057
32-6,17916962,15757
32-7,17920868,-12015
32-8,17924774,-32379
32-9,17928680,-31974
32-10,17932586,-25587
32-11,17936492,4568
32-12,17940398,26092
32-13,17944304,27198
32-14,17948210,7241
32-15,17952116,-22621
32-16,17956022,-31787
32-17,17959928,-31390
32-18,17963834,-15248
32-19,17967740,14787
32-20,17971646,31422
32-21,17975552,26788
32-22,17979458,1826
32-23,17983364,-28300
32-24,17987270,-31391
32-25,17991176,-30999
32-26,17995082,-8427
32-27,17998988,21715
32-28,18002894,32767
32-29,18006800,32358
32-30,18010706,10409
32-31,18014612,-21838
32-32,18018518,-32768
32-1,18022430,-32359
32-2,18026336,-8203
32-3,18030242,22968
32-4,18034148,32767
32-5,18038054,24668
32-6,18041960,-4706
32-7,18045866,-32768
32-8,18049772,-32359
32-9,18053678,-24096
32-10,18057584,5715
32-11,18061490,24750
32-12,18065396,19688
32-13,18069302,-3965
32-14,18073208,-31341
32-15,18077114,-31841
32-16,18081020,-31443
32-17,18084926,-6130
32-18,18088832,20437
32-19,18092738,30428
32-20,18096644,18768
32-21,18100550,-9528
32-22,18104456,-31727
32-23,18108362,-31331
32-24,18112268,-27550
32-25,18116174,1580
32-26,18120080,26378
32-27,18123986,32767
32-28,18127892,20552
32-29,18131798,-7268
32-30,18135704,-32165
32-31,18139610,-32343
32-32,18143516,-27042
32-1,18147427,1967
32-2,18151333,28000
32-3,18155239,32767
32-4,18159145,20567
32-5,18163051,-11881
32-6,18166957,-32768
32-7,18170863,-32359
32-8,18174769,-16576
32-9,18178675,12209
32-10,18182581,24735
32-11,18186487,12940
32-12,18190393,-13164
32-13,18194299,-32208
32-14,18198205,-31806
32-15,18202111,-28274
32-16,18206017,828
32-17,18209923,24523
32-18,18213829,30221
32-19,18217735,14483
32-20,18221641,-15531
32-21,18225547,-31739
32-22,18229453,-31342
32-23,18233359,-24090
32-24,18237265,6442
32-25,18241171,30545
32-26,18245077,32767
32-27,18248983,20841
32-28,18252889,-9408
32-29,18256795,-32768
32-30,18260701,-32359
32-31,18264607,-19870
32-32,18268513,10658
32-1,18272425,32340
32-2,18276331,32330
32-3,18280237,11012
32-4,18284143,-22202
32-5,18288049,-32510
32-6,18291955,-32104
32-7,18295861,-7051
32-8,18299767,18694
32-9,18303673,23336
32-10,18307579,5882
32-11,18311485,-21333
32-12,18315391,-31949
32-13,18319297,-31549
32-14,18323203,-20592
32-15,18327109,8622
32-16,18331015,27913
32-17,18334921,27515
32-18,18338827,6125
32-19,18342733,-24116
32-20,18346639,-31475
32-21,18350545,-31082
32-22,18354451,-12176
32-23,18358357,16119
32-24,18362263,29481
32-25,18366169,18452
32-26,18370075,-8894
32-27,18373981,-31232
32-28,18377887,-30842
32-29,18381793,-14637
32-30,18385699,12716
32-31,18389605,32767
32-32,18393511,32767
32-1,18397423,28593
32-2,18401329,1964
32-3,18405235,-27097
32-4,18409141,-32768
32-5,18413047,-29044
32-6,18416953,437
32-7,18420859,23297
32-8,18424765,22757
32-9,18428671,1090
32-10,18432577,-27133
32-11,18436483,-32253
32-12,18440389,-31850
32-13,18444295,-13105
32-14,18448201,15212
32-15,18452107,29143
32-16,18456013,21701
32-17,18459919,-4132
32-18,18463825,-32064
32-19,18467731,-31664
32-20,18471637,-31268
32-21,18475543,-1765
32-22,18479449,22556
32-23,18483355,24794
32-24,18487261,9842
32-25,18491167,-13655
32-26,18495073,-29176
32-27,18498979,-23997
32-28,18502885,-6466
32-29,18506791,10112
32-30,18510697,15318
32-31,18514603,5322
32-32,18518509,-13940
32-1,18522420,-30868
32-2,18526326,-30483
32-3,18530232,-25455
32-4,18534138,-3367
32-5,18538044,17274
32-6,18541950,32767
32-7,18545856,32358
32-8,18549762,31953
32-9,18553668,11801
32-10,18557574,-15678
32-11,18561480,-26784
32-12,18565386,-15868
32-13,18569292,4489
32-14,18573198,13129
32-15,18577104,-254
32-16,18581010,-25383
32-17,18584916,-32768
32-18,18588822,-32359
32-19,18592728,-21115
32-20,18596634,6931
32-21,18600540,27536
32-22,18604446,27074
32-23,18608352,1831
32-24,18612258,-27454
32-25,18616164,-32142
32-26,18620070,-22930
32-27,18623976,6820
32-28,18627882,32767
32-29,18631788,32767
32-30,18635694,30762
32-31,18639600,5890
32-32,18643506,-22774
32-1,18647418,-32768
32-2,18651324,-32359
32-3,18655230,-12831
32-4,18659136,18283
32-5,18663042,32767
32-6,18666948,24926
32-7,18670854,-2434
32-8,18674760,-32768
32-9,18678666,-32502
32-10,18682572,-29002
32-11,18686478,968
32-12,18690384,23995
32-13,18694290,24856
32-14,18698196,4802
32-15,18702102,-24164
32-16,18706008,-32116
32-17,18709914,-31715
32-18,18713820,-15180
32-19,18717726,14414
32-20,18721632,30610
32-21,18725538,25659
32-22,18729444,565
32-23,18733350,-29347
32-24,18737256,-31654
32-25,18741162,-31259
32-26,18745068,-9047
32-27,18748974,20586
32-28,18752880,32767
32-29,18756786,32358
32-30,18760692,15768
32-31,18764598,-16968
32-32,18768504,-32768
32-1,18772415,-32359
32-2,18776321,-7866
32-3,18780227,22034
32-4,18784133,32042
32-5,18788039,16444
32-6,18791945,-13858
32-7,18795851,-32566
32-8,18799757,-32159
32-9,18803663,-19925
32-10,18807569,9480
32-11,18811475,25244
32-12,18815381,18342
32-13,18819287,-6022
32-14,18823193,-32098
32-15,18827099,-31697
32-16,18831005,-31301
32-17,18834911,-5670
32-18,18838817,21775
32-19,18842723,32767
32-20,18846629,23359
32-21,18850535,-4883
32-22,18854441,-32768
32-23,18858347,-32359
32-24,18862253,-29750
32-25,18866159,143
32-26,18870065,25400
32-27,18873971,30583
32-28,18877877,15179
32-29,18881783,-13639
32-30,18885689,-32305
32-31,18889595,-31902
32-32,18893501,-25376
32-1,18897413,3979
32-2,18901319,29089
32-3,18905225,32767
32-4,18909131,21215
32-5,18913037,-11465
32-6,18916943,-32768
32-7,18920849,-32359
32-8,18924755,-15953
32-9,18928661,11347
32-10,18932567,21777
32-11,18936473,8350
32-12,18940379,-17418
32-13,18944285,-32058
32-14,18948191,-31657
32-15,18952097,-25635
32-16,18956003,3466
32-17,18959909,26230
32-18,18963815,31252
32-19,18967721,14353
32-20,18971627,-16281
32-21,18975533,-31682
32-22,18979439,-31286
32-23,18983345,-22156
32-24,18987251,8889
32-25,18991157,31911
32-26,18995063,32767
32-27,18998969,19712
32-28,19002875,-9885
32-29,19006781,-32055
32-30,19010687,-32492
32-31,19014593,-19364
32-32,19018499,9991
32-1,19022411,32309
32-2,19026317,32753
32-3,19030223,16231
32-4,19034129,-17070
32-5,19038035,-32768
32-6,19041941,-32359
32-7,19045847,-9704
32-8,19049753,17951
32-9,19053659,25661
32-10,19057565,9345
32-11,19061471,-18614
32-12,19065377,-32265
32-13,19069283,-31862
32-14,19073189,-21221
32-15,19077095,8328
32-16,19081001,27074
32-17,19084907,25387
32-18,19088813,3260
32-19,19092719,-26140
32-20,19096625,-31675
32-21,19100531,-31279
32-22,19104437,-11555
32-23,19108343,17031
32-24,19112249,31984
32-25,19116155,23352
32-26,19120061,-3238
32-27,19123967,-27833
32-28,19127873,-31262
32-29,19131779,-16743
32-30,19135685,10516
32-31,19139591,32535
32-32,19143497,32767
32-1,19147408,25922
32-2,19151314,-1371
32-3,19155220,-29980
32-4,19159126,-32702
32-5,19163032,-28797
32-6,19166938,414
32-7,19170844,21767
32-8,19174750,20092
32-9,19178656,-1491
32-10,19182562,-28564
32-11,19186468,-32088
32-12,19190374,-31687
32-13,19194280,-11899
32-14,19198186,16076
32-15,19202092,30128
32-16,19205998,23200
32-17,19209904,-2558
32-18,19213810,-31413
32-19,19217716,-31588
32-20,19221622,-31193
32-21,19225528,-3754
32-22,19229434,22147
32-23,19233340,27235
32-24,19237246,14100
32-25,19241152,-10220
32-26,19245058,-29363
32-27,19248964,-27785
32-28,19252870,-10979
32-29,19256776,7744
32-30,19260682,15774
32-31,19264588,7324
32-32,19268494,-11758
32-1,19272406,-30814
32-2,19276312,-30429
32-3,19280218,-28013
32-4,19284124,-6556
32-5,19288030,15057
32-6,19291936,32767
32-7,19295842,32767
32-8,19299748,32358
32-9,19303654,10425
32-10,19307560,-16815
32-11,19311466,-26641
32-12,19315372,-15566
32-13,19319278,3283
32-14,19323184,9813
32-15,19327090,-4426
32-16,19330996,-27832
32-17,19334902,-32329
32-18,19338808,-31925
32-19,19342714,-19554
32-20,19346620,7809
32-21,19350526,29128
32-22,19354432,29981
32-23,19358338,5730
32-24,19362244,-23958
32-25,19366150,-31893
32-26,19370056,-23847
32-27,19373962,4052
32-28,19377868,30533
32-29,19381774,32767
32-30,19385680,31432
32-31,19389586,8075
32-32,19393492,-20934
32-1,19397404,-32768
32-2,19401310,-32359
32-3,19405216,-12960
32-4,19409122,17426
32-5,19413028,30804
32-6,19416934,20577
32-7,19420840,-7021
32-8,19424746,-32566
32-9,19428652,-32160
32-10,19432558,-28547
32-11,19436464,1593
32-12,19440370,25117
32-13,19444276,27900
32-14,19448182,9351
32-15,19452088,-20542
32-16,19455994,-31946
32-17,19459900,-31547
32-18,19463806,-17181
32-19,19467712,12735
32-20,19471618,29389
32-21,19475524,24488
32-22,19479430,3
32-23,19483336,-29468
32-24,19487242,-31405
32-25,19491148,-31013
32-26,19495054,-9728
32-27,19498960,19652
32-28,19502866,32767
32-29,19506772,32358
32-30,19510678,16712
32-31,19514584,-16077
32-32,19518490,-32768
32-1,19522401,-32359
32-2,19526307,-7999
32-3,19530213,21865
32-4,19534119,32077
32-5,19538025,16529
32-6,19541931,-13655
32-7,19545837,-32566
32-8,19549743,-32160
32-9,19553649,-20729
32-10,19557555,9276
32-11,19561461,26564
32-12,19565367,21108
32-13,19569273,-2680
32-14,19573179,-31074
32-15,19577085,-31791
32-16,19580991,-31394
32-17,19584897,-6173
32-18,19588803,20062
32-19,19592709,28822
32-20,19596615,16043
32-21,19600521,-12283
32-22,19604427,-31584
32-23,19608333,-31190
32-24,19612239,-26443
32-25,19616145,2429
32-26,19620051,27118
32-27,19623957,32767
32-28,19627863,23217
32-29,19631769,-4326
32-30,19635675,-30274
32-31,19639581,-32627
32-32,19643487,-26968
32-1,19647399,2195
32-2,19651305,27682
32-3,19655211,32767
32-4,19659117,16436
32-5,19663023,-16181
32-6,19666929,-32768
32-7,19670835,-32359
32-8,19674741,-14306
32-9,19678647,13830
32-10,19682553,24530
32-11,19686459,11793
32-12,19690365,-14679
32-13,19694271,-32221
32-14,19698177,-31818
32-15,19702083,-27271
32-16,19705989,2172
32-17,19709895,25753
32-18,19713801,31268
32-19,19717707,14885
32-20,19721613,-15795
32-21,19725519,-31810
32-22,19729425,-31413
32-23,19733331,-21984
32-24,19737237,9599
32-25,19741143,31387
32-26,19745049,32767
32-27,19748955,16265
32-28,19752861,-11692
32-29,19756767,-30349
32-30,19760673,-31417
32-31,19764579,-15888
32-32,19768485,11269
32-1,19772396,32070
32-2,19776302,32767
32-3,19780208,17281
32-4,19784114,-16543
32-5,19788020,-32768
32-6,19791926,-32359
32-7,19795832,-8930
32-8,19799738,16417
32-9,19803644,21060
32-10,19807550,2838
32-11,19811456,-23856
32-12,19815362,-32051
32-13,19819268,-31650
32-14,19823174,-18460
32-15,19827080,10691
32-16,19830986,29432
32-17,19834892,28467
32-18,19838798,6108
32-19,19842704,-24406
32-20,19846610,-31654
32-21,19850516,-31259
32-22,19854422,-11307
32-23,19858328,17382
32-24,19862234,31139
32-25,19866140,20343
32-26,19870046,-7222
32-27,19873952,-30529
32-28,19877858,-31118
32-29,19881764,-13903
32-30,19885670,13905
32-31,19889576,32767
32-32,19893482,32358
32-1,19897394,26689
32-2,19901300,-572
32-3,19905206,-29357
32-4,19909112,-32768
32-5,19913018,-28282
32-6,19916924,-161
32-7,19920830,19611
32-8,19924736,16302
32-9,19928642,-5883
32-10,19932548,-31314
32-11,19936454,-31990
32-12,19940360,-31590
32-13,19944266,-9759
32-14,19948172,17917
32-15,19952078,32285
32-16,19955984,25625
32-17,19959890,-650
32-18,19963796,-30401
32-19,19967702,-31635
32-20,19971608,-31240
32-21,19975514,-2844
32-22,19979420,22771
32-23,19983326,26357
32-24,19987232,12167
32-25,19991138,-11184
32-26,19995044,-26907
32-27,19998950,-26599
32-28,20002856,-15180
32-29,20006762,5331
32-30,20010668,25669
32-31,20014574,32767
32-32,20018480,25365
32-1,20022392,-3507
32-2,20026298,-32768
32-3,20030204,-32359
32-4,20034110,-21832
32-5,20038016,7501
32-6,20041922,24511
32-7,20045828,16643
32-8,20049734,-8230
32-9,20053640,-32189
32-10,20057546,-31786
32-11,20061452,-31389
32-12,20065358,-3259
32-13,20069264,22394
32-14,20073170,31420
32-15,20077076,18686
32-16,20080982,-10217
32-17,20084888,-31737
32-18,20088794,-31340
32-19,20092700,-25598
32-20,20096606,4563
32-21,20100512,28375
32-22,20104418,28922
32-23,20108324,5447
32-24,20112230,-23761
32-25,20116136,-31175
32-26,20120042,-22458
32-27,20123948,6687
32-28,20127854,32547
32-29,20131760,32767
32-30,20135666,28505
32-31,20139572,3981
32-32,20143478,-23899
32-1,20147389,-32768
32-2,20151295,-32359
32-3,20155201,-13614
32-4,20159107,16779
32-5,20163013,31390
32-6,20166919,23376
32-7,20170825,-3379
32-8,20174731,-32638
32-9,20178637,-32231
32-10,20182543,-30031
32-11,20186449,-491
32-12,20190355,23007
32-13,20194261,25332
32-14,20198167,6468
32-15,20202073,-22420
32-16,20205979,-31853
32-17,20209885,-31455
32-18,20213791,-16510
32-19,20217697,13119
32-20,20221603,30068
32-21,20225509,26245
32-22,20229415,2263
32-23,20233321,-27743
32-24,20237227,-31408
32-25,20241133,-31016
32-26,20245039,-11157
32-27,20248945,18720
32-28,20252851,32767
32-29,20256757,32358
32-30,20260663,15843
32-31,20264569,-16908
32-32,20268475,-32768
32-1,20272387,-32359
32-2,20276293,-8242
32-3,20280199,22213
32-4,20284105,32767
32-5,20288011,19155
32-6,20291917,-10920
32-7,20295823,-32768
32-8,20299729,-32359
32-9,20303635,-22097
32-10,20307541,7343
32-11,20311447,24266
32-12,20315353,18029
32-13,20319259,-5601
32-14,20323165,-32231
32-15,20327071,-31828
32-16,20330977,-31430
32-17,20334883,-6058
32-18,20338789,20053
32-19,20342695,29805
32-20,20346601,18103
32-21,20350507,-10069
32-22,20354413,-31687
32-23,20358319,-31292
32-24,20362225,-27595
32-25,20366131,1932
32-26,20370037,26347
32-27,20373943,32608
32-28,20377849,18283
32-29,20381755,-10659
32-30,20385661,-31414
32-31,20389567,-31022
32-32,20393473,-24182
32-1,20397385,5638
32-2,20401291,30222
32-3,20405197,32767
32-4,20409103,17686
32-5,20413009,-14737
32-6,20416915,-32768
32-7,20420821,-32359
32-8,20424727,-15549
32-9,20428633,14211
32-10,20432539,27669
32-11,20436445,16889
32-12,20440351,-9704
32-13,20444257,-32375
32-14,20448163,-31971
32-15,20452069,-29258
32-16,20455975,285
32-17,20459881,24268
32-18,20463787,28974
32-19,20467693,12470
32-20,20471599,-19349
32-21,20475505,-31791
32-22,20479411,-31394
32-23,20483317,-19101
32-24,20487223,1941
32-25,20491129,7519
32-26,20495035,1638
32-27,20498941,-4798
32-28,20502847,-10967
32-29,20506753,-10859
32-30,20510659,-5117
32-31,20514565,-137
32-32,20518471,11905
32-1,20522382,29221
32-2,20526288,32767
32-3,20530194,32358
32-4,20534100,14961
32-5,20538006,-13714
32-6,20541912,-23581
32-7,20545818,-13569
32-8,20549724,4826
32-9,20553630,11176
32-10,20557536,-3012
32-11,20561442,-27547
32-12,20565348,-32546
32-13,20569254,-32139
32-14,20573160,-19036
32-15,20577066,9034
32-16,20580972,28329
32-17,20584878,28648
32-18,20588784,6733
32-19,20592690,-24044
32-20,20596596,-32111
32-21,20600502,-31709
32-22,20604408,-11557
32-23,20608314,16123
32-24,20612220,28402
32-25,20616126,16572
32-26,20620032,-10095
32-27,20623938,-31295
32-28,20627844,-31247
32-29,20631750,-12691
32-30,20635656,13683
32-31,20639562,32767
32-32,20643468,32490
32-1,20647380,29716
32-2,20651286,3497
32-3,20655192,-25894
32-4,20659098,-32768
32-5,20663004,-29266
32-6,20666910,-945
32-7,20670816,21080
32-8,20674722,19690
32-9,20678628,-2185
32-10,20682534,-30575
32-11,20686440,-32084
32-12,20690346,-31683
32-13,20694252,-7975
32-14,20698158,12511
32-15,20702064,14411
32-16,20705970,-1767
32-17,20709876,-24919
32-18,20713782,-31192
32-19,20717688,-30803
32-20,20721594,-16195
32-21,20725500,5913
32-22,20729406,27076
32-23,20733312,32767
32-24,20737218,32358
32-25,20741124,19371
32-26,20745030,-8129
32-27,20748936,-28625
32-28,20752842,-27875
32-29,20756748,-5298
32-30,20760654,21046
32-31,20764560,28826
32-32,20768466,12238
32-1,20772378,-17606
32-2,20776284,-32768
32-3,20780190,-32359
32-4,20784096,-19317
32-5,20788002,10326
32-6,20791908,26876
32-7,20795814,21033
32-8,20799720,-3497
32-9,20803626,-31932
32-10,20807532,-32000
32-11,20811438,-31600
32-12,20815344,-3795
32-13,20819250,22141
32-14,20823156,29975
32-15,20827062,15890
32-16,20830968,-13121
32-17,20834874,-31846
32-18,20838780,-31448
32-19,20842686,-23626
32-20,20846592,6629
32-21,20850498,29164
32-22,20854404,28575
32-23,20858310,4055
32-24,20862216,-25396
32-25,20866122,-31299
32-26,20870028,-22385
32-27,20873934,7905
32-28,20877840,32767
32-29,20881746,32767
32-30,20885652,27442
32-31,20889558,1605
32-32,20893464,-26051
32-1,20897375,-32768
32-2,20901281,-32359
32-3,20905187,-12131
32-4,20909093,17665
32-5,20912999,31047
32-6,20916905,21913
32-7,20920811,-5497
32-8,20924717,-32619
32-9,20928623,-32211
32-10,20932529,-29178
32-11,20936435,855
32-12,20940341,24641
32-13,20944247,27585
32-14,20948153,8973
32-15,20952059,-20763
32-16,20955965,-31962
32-17,20959871,-31563
32-18,20963777,-16449
32-19,20967683,13338
32-20,20971589,29564
32-21,20975495,24267
32-22,20979401,-673
32-23,20983307,-29905
32-24,20987213,-31423
32-25,20991119,-31031
32-26,20995025,-7961
32-27,20998931,21447
32-28,21002837,32767
32-29,21006743,32358
32-30,21010649,12892
32-31,21014555,-19747
32-32,21018461,-32768
32-1,21022373,-32359
32-2,21026279,-7497
32-3,21030185,21754
32-4,21034091,30705
32-5,21037997,15036
32-6,21041903,-14469
32-7,21045809,-32526
32-8,21049715,-32119
32-9,21053621,-22266
32-10,21057527,7724
32-11,21061433,26373
32-12,21065339,22988
32-13,21069245,192
32-14,21073151,-28799
32-15,21077057,-31798
32-16,21080963,-31401
32-17,21084869,-8296
32-18,21088775,18939
32-19,21092681,29471
32-20,21096587,18319
32-21,21100493,-9361
32-22,21104399,-31624
32-23,21108305,-31229
32-24,21112211,-28117
32-25,21116117,473
32-26,21120023,25556
32-27,21123929,32767
32-28,21127835,22367
32-29,21131741,-4786
32-30,21135647,-30344
32-31,21139553,-32610
32-32,21143459,-27812
32-1,21147370,487
32-2,21151276,27403
32-3,21155182,32767
32-4,21159088,23676
32-5,21162994,-8378
32-6,21166900,-32768
32-7,21170806,-32359
32-8,21174712,-17286
32-9,21178618,11663
32-10,21182524,24990
32-11,21186430,13498
32-12,21190336,-12579
32-13,21194242,-32210
32-14,21198148,-31807
32-15,21202054,-28819
32-16,21205960,51
32-17,21209866,23186
32-18,21213772,27989
32-19,21217678,11557
32-20,21221584,-18008
32-21,21225490,-31612
32-22,21229396,-31217
32-23,21233302,-22686
32-24,21237208,7747
32-25,21241114,30871
32-26,21245020,32767
32-27,21248926,19647
32-28,21252832,-10226
32-29,21256738,-32768
32-30,21260644,-32359
32-31,21264550,-18639
32-32,21268456,11256
32-1,21272368,31971
32-2,21276274,31301
32-3,21280180,9672
32-4,21284086,-23013
32-5,21287992,-32488
32-6,21291898,-32082
32-7,21295804,-7087
32-8,21299710,20233
32-9,21303616,27099
32-10,21307522,11087
32-11,21311428,-17293
32-12,21315334,-32109
32-13,21319240,-31708
32-14,21323146,-22221
32-15,21327052,7714
32-16,21330958,27490
32-17,21334864,26879
32-18,21338770,5382
32-19,21342676,-24785
32-20,21346582,-31569
32-21,21350488,-31174
32-22,21354394,-11451
32-23,21358300,17440
32-24,21362206,31259
32-25,21366112,21238
32-26,21370018,-5883
32-27,21373924,-30690
32-28,21377830,-31061
32-29,21381736,-20127
32-30,21385642,6902
32-31,21389548,30128
32-32,21393454,32767
32-1,21397518,27020
32-2,21401424,213
32-3,21405330,-29116
32-4,21409236,-32746
32-5,21413142,-29410
32-6,21417048,-126
32-7,21420954,22219
32-8,21424860,21698
32-9,21428766,697
32-10,21432672,-27094
32-11,21436578,-32189
32-12,21440484,-31786
32-13,21444390,-13598
32-14,21448296,14594
32-15,21452202,28797
32-16,21456108,21837
32-17,21460014,-3702
32-18,21463920,-31991
32-19,21467826,-31591
32-20,21471732,-31196
32-21,21475638,-3009
32-22,21479544,22377
32-23,21483450,26904
32-24,21487356,13215
32-25,21491262,-10701
32-26,21495168,-27452
32-27,21499074,-27699
32-28,21502980,-15476
32-29,21506886,5971
32-30,21510792,26233
32-31,21514698,32767
32-32,21518604,23206
32-1,21522577,-5754
32-2,21526483,-32768
32-3,21530389,-32359
32-4,21534295,-21769
32-5,21538201,7981
32-6,21542107,25412
32-7,21546013,18508
32-8,21549919,-6114
32-9,21553825,-32257
32-10,21557731,-31854
32-11,21561637,-31456
32-12,21565543,-5117
32-13,21569449,21728
32-14,21573355,32364
32-15,21577261,21100
32-16,21581167,-7656
32-17,21585073,-31845
32-18,21588979,-31447
32-19,21592885,-25122
32-20,21596791,4444
32-21,21600697,25983
32-22,21604603,23181
32-23,21608509,-1826
32-24,21612415,-29213
32-25,21616321,-31024
32-26,21620227,-21729
32-27,21624133,7822
32-28,21628039,32767
32-29,21631945,32767
32-30,21635851,30891
32-31,21639757,6798
32-32,21643663,-21662
32-1,21647361,-32768
32-2,21651267,-32359
32-3,21655173,-14354
32-4,21659079,16538
32-5,21662985,31752
32-6,21666891,23733
32-7,21670797,-3138
32-8,21674703,-32638
32-9,21678609,-32230
32-10,21682515,-28981
32-11,21686421,400
32-12,21690327,22310
32-13,21694233,22663
32-14,21698139,2063
32-15,21702045,-27334
32-16,21705951,-31719
32-17,21709857,-31323
32-18,21713763,-12823
32-19,21717669,-1088
32-20,21721575,-4970
32-21,21725481,-16104
32-22,21729387,-24447
32-23,21733293,-24127
32-24,21737199,-13371
32-25,21741105,1571
32-26,21745011,13573
32-27,21748917,25233
32-28,21752823,32767
32-29,21756729,32358
32-30,21760635,31953
32-31,21764541,13166
32-32,21768447,-13194
32-1,21772359,-24663
32-2,21776265,-12024
32-3,21780171,11031
32-4,21784077,21549
32-5,21787983,7976
32-6,21791889,-20722
32-7,21795795,-32768
32-8,21799701,-32359
32-9,21803607,-22006
32-10,21807513,7108
32-11,21811419,25876
32-12,21815325,24469
32-13,21819231,2420
32-14,21823137,-27219
32-15,21827043,-32090
32-16,21830949,-31689
32-17,21834855,-9939
32-18,21838761,17638
32-19,21842667,28655
32-20,21846573,17753
32-21,21850479,-9553
32-22,21854385,-31852
32-23,21858291,-31454
32-24,21862197,-28292
32-25,21866103,1014
32-26,21870009,25555
32-27,21873915,32106
32-28,21877821,18312
32-29,21881727,-10243
32-30,21885633,-31543
32-31,21889539,-31149
32-32,21893445,-26175
32-1,21897356,2725
32-2,21901262,28806
32-3,21905168,32767
32-4,21909074,22996
32-5,21912980,-8978
32-6,21916886,-32768
32-7,21920792,-32359
32-8,21924698,-17838
32-9,21928604,10994
32-10,21932510,24426
32-11,21936416,13236
32-12,21940322,-12526
32-13,21944228,-32185
32-14,21948134,-31783
32-15,21952040,-28849
32-16,21955946,-24
32-17,21959852,23358
32-18,21963758,28663
32-19,21967664,12602
32-20,21971570,-16998
32-21,21975476,-31622
32-22,21979382,-31227
32-23,21983288,-23209
32-24,21987194,7179
32-25,21991100,30580
32-26,21995006,32767
32-27,21998912,20214
32-28,22002818,-9409
32-29,22006724,-32533
32-30,22010630,-32498
32-31,22014536,-20235
32-32,22018442,9410
32-1,22022445,31712
32-2,22026351,32767
32-3,22030257,14347
32-4,22034163,-18934
32-5,22038069,-32712
32-6,22041975,-32303
32-7,22045881,-9319
32-8,22049787,17409
32-9,22053693,23851
32-10,22057599,7303
32-11,22061505,-19895
32-12,22065411,-32144
32-13,22069317,-31742
32-14,22073223,-21376
32-15,22077129,7648
32-16,22081035,26308
32-17,22084941,25002
32-18,22088847,3446
32-19,22092753,-25752
32-20,22096659,-31539
32-21,22100565,-31145
32-22,22104471,-12667
32-23,22108377,15613
32-24,22112283,30204
32-25,22116189,20988
32-26,22120095,-5724
32-27,22124001,-29726
32-28,22127907,-30992
32-29,22131813,-16747
32-30,22135719,10922
32-31,22139625,32449
32-32,22143531,32767
32-1,22147382,24677
32-2,22151288,-2788
32-3,22155194,-30670
32-4,22159100,-32660
32-5,22163006,-29367
32-6,22166912,714
32-7,22170818,23798
32-8,22174724,24319
32-9,22178630,3823
32-10,22182536,-25008
32-11,22186442,-32232
32-12,22190348,-31829
32-13,22194254,-14242
32-14,22198160,14267
32-15,22202066,27972
32-16,22205972,20274
32-17,22209878,-5315
32-18,22213784,-31970
32-19,22217690,-31571
32-20,22221596,-29110
32-21,22225502,-761
32-22,22229408,17151
32-23,22233314,11248
32-24,22237220,-6070
32-25,22241126,-21605
32-26,22245032,-24116
32-27,22248938,-13188
32-28,22252844,-1239
32-29,22256750,7679
32-30,22260656,21106
32-31,22264562,32767
32-32,22268468,32358
32-1,22272349,25302
32-2,22276255,-6414
32-3,22280161,-25201
32-4,22284067,-21309
32-5,22287973,-2366
32-6,22291879,12408
32-7,22295785,6844
32-8,22299691,-15827
32-9,22303597,-32768
32-10,22307503,-32359
32-11,22311409,-31687
32-12,22315315,-4598
32-13,22319221,20333
32-14,22323127,31066
32-15,22327033,19478
32-16,22330939,-9296
32-17,22334845,-32273
32-18,22338751,-31870
32-19,22342657,-26829
32-20,22346563,3262
32-21,22350469,27689
32-22,22354375,29152
32-23,22358281,6275
32-24,22362187,-23482
32-25,22366093,-31674
32-26,22369999,-24379
32-27,22373905,4176
32-28,22377811,31042
32-29,22381717,32767
32-30,22385623,31138
32-31,22389529,7320
32-32,22393435,-21489
32-1,22397347,-32768
32-2,22401253,-32359
32-3,22405159,-14097
32-4,22409065,16962
32-5,22412971,32323
32-6,22416877,24426
32-7,22420783,-2559
32-8,22424689,-32670
32-9,22428595,-32261
32-10,22432501,-29586
32-11,22436407,258
32-12,22440313,23816
32-13,22444219,25821
32-14,22448125,6721
32-15,22452031,-22386
32-16,22455937,-31918
32-17,22459843,-31519
32-18,22463749,-16484
32-19,22467655,13186
32-20,22471561,29892
32-21,22475467,25460
32-22,22479373,905
32-23,22483279,-28937
32-24,22487185,-31428
32-25,22491091,-31036
32-26,22494997,-9457
32-27,22498903,20100
32-28,22502809,32767
32-29,22506715,32358
32-30,22510621,16915
32-31,22514527,-15777
32-32,22518433,-32768
32-1,22522344,-32359
32-2,22526250,-8957
32-3,22530156,21326
32-4,22534062,32392
32-5,22537968,17694
32-6,22541874,-12309
32-7,22545780,-32583
32-8,22549686,-32176
32-9,22553592,-21610
32-10,22557498,8240
32-11,22561404,25633
32-12,22565310,20418
32-13,22569216,-3148
32-14,22573122,-30825
32-15,22577028,-31760
32-16,22580934,-31364
32-17,22584840,-8036
32-18,22588746,20052
32-19,22592652,32767
32-20,22596558,24258
32-21,22600464,-3408
32-22,22604370,-32127
32-23,22608276,-31726
32-24,22612182,-30166
32-25,22616088,-828
32-26,22619994,25249
32-27,22623900,32482
32-28,22627806,19252
32-29,22631712,-8873
32-30,22635618,-31796
32-31,22639524,-31399
32-32,22643430,-26339
32-1,22647495,2239
32-2,22651401,28636
32-3,22655307,32767
32-4,22659213,24427
32-5,22663119,-7605
32-6,22667025,-32768
32-7,22670931,-32359
32-8,22674837,-17595
32-9,22678743,10357
32-10,22682649,22742
32-11,22686555,10583
32-12,22690461,-15281
32-13,22694367,-32092
32-14,22698273,-31691
32-15,22702179,-27305
32-16,22706085,1765
32-17,22709991,25313
32-18,22713897,31186
32-19,22717803,15247
32-20,22721709,-15277
32-21,22725615,-31683
32-22,22729521,-31288
32-23,22733427,-21149
32-24,22737333,9415
32-25,22741239,27277
32-26,22745145,24808
32-27,22749051,7949
32-28,22752957,-14987
32-29,22756863,-26785
32-30,22760769,-23956
32-31,22764675,-11528
32-32,22768581,10239
32-1,22772340,31013
32-2,22776246,32767
32-3,22780152,26851
32-4,22784058,-5662
32-5,22787964,-32768
32-6,22791870,-32359
32-7,22795776,-11911
32-8,22799682,13221
32-9,22803588,19937
32-10,22807494,2569
32-11,22811400,-23894
32-12,22815306,-31956
32-13,22819212,-31557
32-14,22823118,-19855
32-15,22827024,9081
32-16,22830930,29340
32-17,22834836,30898
32-18,22838742,10459
32-19,22842648,-20484
32-20,22846554,-31657
32-21,22850460,-31262
32-22,22854366,-14519
32-23,22858272,14770
32-24,22862178,30039
32-25,22866084,20390
32-26,22869990,-6308
32-27,22873896,-30024
32-28,22877802,-31053
32-29,22881708,-15579
32-30,22885614,11780
32-31,22889520,32767
32-32,22893426,32767
32-1,22897337,27602
32-2,22901243,1084
32-3,22905149,-27837
32-4,22909055,-32768
32-5,22912961,-29963
32-6,22916867,-1045
32-7,22920773,21480
32-8,22924679,21118
32-9,22928585,-33
32-10,22932491,-27485
32-11,22936397,-32162
32-12,22940303,-31760
32-13,22944209,-12285
32-14,22948115,15699
32-15,22952021,29421
32-16,22955927,21895
32-17,22959833,-4015
32-18,22963739,-31999
32-19,22967645,-31599
32-20,22971551,-31204
32-21,22975457,-2478
32-22,22979363,22640
32-23,22983269,26786
32-24,22987175,13172
32-25,22991081,-10462
32-26,22994987,-26955
32-27,22998893,-27465
32-28,23002799,-16197
32-29,23006705,4716
32-30,23010611,25428
32-31,23014517,32767
32-32,23018423,24972
32-1,23022335,-3761
32-2,23026241,-32768
32-3,23030147,-32359
32-4,23034053,-22450
32-5,23037959,7426
32-6,23041865,25522
32-7,23045771,18863
32-8,23049677,-5634
32-9,23053583,-32253
32-10,23057489,-31850
32-11,23061395,-31452
32-12,23065301,-5244
32-13,23069207,20949
32-14,23073113,30529
32-15,23077019,18430
32-16,23080925,-10009
32-17,23084831,-31744
32-18,23088737,-31348
32-19,23092643,-26193
32-20,23096549,3819
32-21,23100455,27851
32-22,23104361,29012
32-23,23108267,6016
32-24,23112173,-23344
32-25,23116079,-31173
32-26,23119985,-22921
32-27,23123891,5316
32-28,23127797,31463
32-29,23131703,32767
32-30,23135609,31536
32-31,23139515,8570
32-32,23143421,-20173
32-1,23147333,-32768
32-2,23151239,-32359
32-3,23155145,-14256
32-4,23159051,16326
32-5,23162957,30586
32-6,23166863,21359
32-7,23170769,-5649
32-8,23174675,-32561
32-9,23178581,-32154
32-10,23182487,-29934
32-11,23186393,-147
32-12,23190299,24164
32-13,23194205,28194
32-14,23198111,10703
32-15,23202017,-18975
32-16,23205923,-31929
32-17,23209829,-31530
32-18,23213735,-18810
32-19,23217641,11251
32-20,23221547,28887
32-21,23225453,25111
32-22,23229359,1438
32-23,23233265,-28282
32-24,23237171,-31384
32-25,23241077,-30992
32-26,23244983,-11129
32-27,23248889,18562
32-28,23252795,32767
32-29,23256701,32358
32-30,23260607,16047
32-31,23264513,-16683
32-32,23268419,-32768
32-1,23272483,-32359
32-2,23276389,-8797
32-3,23280295,21994
32-4,23284201,32767
32-5,23288107,20466
32-6,23292013,-9427
32-7,23295919,-32768
32-8,23299825,-32359
32-9,23303731,-23187
32-10,23307637,7075
32-11,23311543,25917
32-12,23315449,21576
32-13,23319355,-1580
32-14,23323261,-29926
32-15,23327167,-31955
32-16,23331073,-31556
32-17,23334979,-8708
32-18,23338885,18900
32-19,23342791,30504
32-20,23346697,20508
32-21,23350603,-7202
32-22,23354509,-31838
32-23,23358415,-31441
32-24,23362321,-29191
32-25,23366227,-164
32-26,23370133,25564
32-27,23374039,32767
32-28,23377945,21072
32-29,23381851,-6714
32-30,23385757,-32148
32-31,23389663,-32519
32-32,23393569,-27396
32-1,23397328,1484
32-2,23401234,27634
32-3,23405140,32767
32-4,23409046,20935
32-5,23412952,-11207
32-6,23416858,-32768
32-7,23420764,-32359
32-8,23424670,-16967
32-9,23428576,12538
32-10,23432482,26418
32-11,23436388,15721
32-12,23440294,-12284
32-13,23444200,-32274
32-14,23448106,-31871
32-15,23452012,-23183
32-16,23455918,-5072
32-17,23459824,-1157
32-18,23463730,-11255
32-19,23467636,-22189
32-20,23471542,-27835
32-21,23475448,-20194
32-22,23479354,-2279
32-23,23483260,12270
32-24,23487166,21947
32-25,23491072,18897
32-26,23494978,6170
32-27,23498884,-4942
32-28,23502790,-12300
32-29,23506696,-11967
32-30,23510602,-6108
32-31,23514508,584
32-32,23518414,12533
32-1,23522325,25795
32-2,23526231,32767
32-3,23530137,32358
32-4,23534043,30182
32-5,23537949,15617
32-6,23541855,5422
32-7,23545761,-1182
32-8,23549667,-3819
32-9,23553573,-9061
32-10,23557479,-19104
32-11,23561385,-32108
32-12,23565291,-32768
32-13,23569197,-32359
32-14,23573103,-20268
32-15,23577009,5934
32-16,23580915,27854
32-17,23584821,31159
32-18,23588727,11206
32-19,23592633,-19831
32-20,23596539,-32407
32-21,23600445,-32002
32-22,23604351,-15801
32-23,23608257,13902
32-24,23612163,30174
32-25,23616069,21977
32-26,23619975,-3822
32-27,23623881,-28557
32-28,23627787,-31828
32-29,23631693,-18538
32-30,23635599,9066
32-31,23639505,31212
32-32,23643411,32767
32-1,23647323,24043
32-2,23651229,-3545
32-3,23655135,-31002
32-4,23659041,-32638
32-5,23662947,-30171
32-6,23666853,-215
32-7,23670759,23837
32-8,23674665,26141
32-9,23678571,6564
32-10,23682477,-22958
32-11,23686383,-32273
32-12,23690289,-31869
32-13,23694195,-14348
32-14,23698101,14580
32-15,23702007,28600
32-16,23705913,20747
32-17,23709819,-5001
32-18,23713725,-32030
32-19,23717631,-31630
32-20,23721537,-31234
32-21,23725443,-1712
32-22,23729349,23335
32-23,23733255,27331
32-24,23737161,13682
32-25,23741067,-9901
32-26,23744973,-26120
32-27,23748879,-26317
32-28,23752785,-15420
32-29,23756691,4860
32-30,23760597,25399
32-31,23764503,32767
32-32,23768409,26129
32-1,23772321,-2224
32-2,23776227,-32768
32-3,23780133,-32359
32-4,23784039,-22741
32-5,23787945,6487
32-6,23791851,24187
32-7,23795757,17098
32-8,23799663,-7400
32-9,23803569,-32177
32-10,23807475,-31775
32-11,23811381,-31378
32-12,23815287,-3743
32-13,23819193,21695
32-14,23823099,30307
32-15,23827005,17102
32-16,23830911,-11698
32-17,23834817,-31658
32-18,23838723,-31263
32-19,23842629,-24680
32-20,23846535,5395
32-21,23850441,28653
32-22,23854347,29034
32-23,23858253,5340
32-24,23862159,-24115
32-25,23866065,-31120
32-26,23869971,-22525
32-27,23873877,6431
32-28,23877783,32644
32-29,23881689,32767
32-30,23885595,30411
32-31,23889501,6702
32-32,23893407,-21522
32-1,23897318,-32768
32-2,23901224,-32359
32-3,23905130,-15822
32-4,23909036,15448
32-5,23912942,32335
32-6,23916848,26607
32-7,23920754,960
32-8,23924660,-30226
32-9,23928566,-32323
32-10,23932472,-31511
32-11,23936378,-2613
32-12,23940284,21519
32-13,23944190,24302
32-14,23948096,5722
32-15,23952002,-22567
32-16,23955908,-31857
32-17,23959814,-31459
32-18,23963720,-16261
32-19,23967626,12766
32-20,23971532,28844
32-21,23975438,24023
32-22,23979344,-508
32-23,23983250,-29625
32-24,23987156,-31309
32-25,23991062,-30918
32-26,23994968,-9109
32-27,23998874,19935
32-28,24002780,32767
32-29,24006686,32358
32-30,24010592,17118
32-31,24014498,-15377
32-32,24018404,-32768
32-1,24022316,-32359
32-2,24026222,-9293
32-3,24030128,21067
32-4,24034034,32602
32-5,24037940,18546
32-6,24041846,-11032
32-7,24045752,-32605
32-8,24049658,-32197
32-9,24053564,-23964
32-10,24057470,6471
32-11,24061376,26645
32-12,24065282,24528
32-13,24069188,2580
32-14,24073094,-26853
32-15,24077000,-31915
32-16,24080906,-31516
32-17,24084812,-11305
32-18,24088718,16997
32-19,24092624,29572
32-20,24096530,20479
32-21,24100436,-6326
32-22,24104342,-31742
32-23,24108248,-31345
32-24,24112154,-30409
32-25,24116060,-1818
32-26,24119966,24190
32-27,24123872,32767
32-28,24127778,21482
32-29,24131684,-6334
32-30,24135590,-31928
32-31,24139496,-31659
32-32,24143402,-26923
32-1,24147314,1725
32-2,24151220,28405
32-3,24155126,32767
32-4,24159032,23880
32-5,24162938,-7835
32-6,24166844,-32768
32-7,24170750,-32359
32-8,24174656,-17959
32-9,24178562,11599
32-10,24182468,26206
32-11,24186374,15827
32-12,24190280,-10352
32-13,24194186,-32273
32-14,24198092,-31870
32-15,24201998,-30110
32-16,24205904,-1120
32-17,24209810,23164
32-18,24213716,29230
32-19,24217622,13923
32-20,24221528,-15742
32-21,24225434,-31715
32-22,24229340,-31319
32-23,24233246,-24170
32-24,24237152,6187
32-25,24241058,30387
32-26,24244964,32767
32-27,24248870,21400
32-28,24252776,-8581
32-29,24256682,-32768
32-30,24260588,-32419
32-31,24264494,-20793
32-32,24268400,9381
32-1,24272311,31774
32-2,24276217,32767
32-3,24280123,12574
32-4,24284029,-20374
32-5,24287935,-32672
32-6,24291841,-32264
32-7,24295747,-8513
32-8,24299653,18727
32-9,24303559,25918
32-10,24307465,9604
32-11,24311371,-18657
32-12,24315277,-32201
32-13,24319183,-31798
32-14,24323089,-20527
32-15,24326995,9592
32-16,24330901,28779
32-17,24334807,27491
32-18,24338713,5462
32-19,24342619,-24761
32-20,24346525,-31729
32-21,24350431,-31332
32-22,24354337,-12086
32-23,24358243,16696
32-24,24362149,31375
32-25,24366055,22462
32-26,24369961,-3734
32-27,24373867,-27972
32-28,24377773,-31278
32-29,24381679,-17486
32-30,24385585,9168
32-31,24389491,31412
32-32,24393397,32767
32-1,24397309,26708
32-2,24401215,-283
32-3,24405121,-29042
32-4,24409027,-32737
32-5,24412933,-29733
32-6,24416839,-157
32-7,24420745,22914
32-8,24424651,23356
32-9,24428557,2435
32-10,24432463,-27782
32-11,24436369,-32218
32-12,24440275,-31816
32-13,24444181,-9857
32-14,24448087,8999
32-15,24451993,8553
32-16,24455899,-7914
32-17,24459805,-27514
32-18,24463711,-31074
32-19,24467617,-30670
32-20,24471523,-9624
32-21,24475429,15626
32-22,24479335,31236
32-23,24483241,27702
32-24,24487147,9466
32-25,24491053,-12347
32-26,24494959,-23920
32-27,24498865,-20174
32-28,24502771,-8327
32-29,24506677,6233
32-30,24510583,20248
32-31,24514489,32767
32-32,24518395,32767
32-1,24522307,32358
32-2,24526213,11574
32-3,24530119,-6748
32-4,24534025,-12615
32-5,24537931,-5921
32-6,24541837,1299
32-7,24545743,-3307
32-8,24549649,-20160
32-9,24553555,-32727
32-10,24557461,-32318
32-11,24561367,-30601
32-12,24565273,-5060
32-13,24569179,20350
32-14,24573085,32767
32-15,24576991,22715
32-16,24580897,-5861
32-17,24584803,-32727
32-18,24588709,-32318
32-19,24592615,-28258
32-20,24596521,1809
32-21,24600427,26973
32-22,24604333,28570
32-23,24608239,5637
32-24,24612145,-23888
32-25,24616051,-32052
32-26,24619957,-24641
32-27,24623863,4446
32-28,24627769,31142
32-29,24631675,32767
32-30,24635581,29427
32-31,24639487,5154
32-32,24643393,-23133
32-1,24647304,-32768
32-2,24651210,-32359
32-3,24655116,-13792
32-4,24659022,16354
32-5,24662928,30301
32-6,24666834,21119
32-7,24670740,-7619
32-8,24674646,-32536
32-9,24678552,-32130
32-10,24682458,-24889
32-11,24686364,-8366
32-12,24690270,-4761
32-13,24694176,-14244
32-14,24698082,-24246
32-15,24701988,-27132
32-16,24705894,-19391
32-17,24709800,-3520
32-18,24713706,9809
32-19,24717612,22171
32-20,24721518,32767
32-21,24725424,32358
32-22,24729330,31953
32-23,24733236,10580
32-24,24737142,-17269
32-25,24741048,-32768
32-26,24744954,-22607
32-27,24748860,7557
32-28,24752766,32331
32-29,24756672,31926
32-30,24760578,11180
32-31,24764484,-21938
32-32,24768390,-32768
32-1,24772302,-32359
32-2,24776208,-7631
32-3,24780114,20984
32-4,24784020,29572
32-5,24787926,14104
32-6,24791832,-14903
32-7,24795738,-32483
32-8,24799644,-32077
32-9,24803550,-22585
32-10,24807456,7374
32-11,24811362,26440
32-12,24815268,24004
32-13,24819174,1761
32-14,24823080,-27489
32-15,24826986,-31797
32-16,24830892,-31399
32-17,24834798,-9879
32-18,24838704,17955
32-19,24842610,29714
32-20,24846516,19590
32-21,24850422,-7587
32-22,24854328,-31632
32-23,24858234,-31236
32-24,24862140,-24108
32-25,24866046,1170
32-26,24869952,16024
32-27,24873858,15837
32-28,24877764,4829
32-29,24881670,-9669
32-30,24885576,-20119
32-31,24889482,-21336
32-32,24893388,-12584
32-1,24897299,3113
32-2,24901205,23375
32-3,24905111,32767
32-4,24909017,32358
32-5,24912923,25503
32-6,24916829,69
32-7,24920735,-16786
32-8,24924641,-16293
32-9,24928547,-3131
32-10,24932453,5458
32-11,24936359,-2309
32-12,24940265,-22957
32-13,24944171,-32768
32-14,24948077,-32359
32-15,24951983,-27209
32-16,24955889,-737
32-17,24959795,23106
32-18,24963701,32033
32-19,24967607,18425
32-20,24971513,-11289
32-21,24975419,-32386
32-22,24979325,-31982
32-23,24983231,-27505
32-24,24987137,2670
32-25,24991043,28546
32-26,24994949,32767
32-27,24998855,22968
32-28,25002761,-6700
32-29,25006667,-32052
32-30,25010573,-32572
32-31,25014479,-21609
32-32,25018385,8637
32-1,25022297,31626
32-2,25026203,32727
32-3,25030109,13323
32-4,25034015,-19655
32-5,25037921,-32730
32-6,25041827,-32321
32-7,25045733,-9237
32-8,25049639,18197
32-9,25053545,25618
32-10,25057451,9772
32-11,25061357,-17975
32-12,25065263,-32249
32-13,25069169,-31846
32-14,25073075,-22451
32-15,25076981,6973
32-16,25080887,26118
32-17,25084793,24993
32-18,25088699,3600
32-19,25092605,-25710
32-20,25096511,-31619
32-21,25100417,-31224
32-22,25104323,-12651
32-23,25108229,15628
32-24,25112135,30198
32-25,25116041,21196
32-26,25119947,-5166
32-27,25123853,-29135
32-28,25127759,-31087
32-29,25131665,-17327
32-30,25135571,9840
32-31,25139477,31633
32-32,25143383,32767
32-1,25147417,25250
32-2,25151323,-2109
32-3,25155229,-30223
32-4,25159135,-32681
32-5,25163041,-29748
32-6,25166947,413
32-7,25170853,24063
32-8,25174759,25355
32-9,25178665,5147
32-10,25182571,-24007
32-11,25186477,-32290
32-12,25190383,-31887
32-13,25194289,-15194
32-14,25198195,14217
32-15,25202101,29832
32-16,25206007,23982
32-17,25209913,-1194
32-18,25213819,-30681
32-19,25217725,-31753
32-20,25221631,-31356
32-21,25225537,-3930
32-22,25229443,22439
32-23,25233349,28037
32-24,25237255,15046
32-25,25241161,-8983
32-26,25245067,-26824
32-27,25248973,-27916
32-28,25252879,-16334
32-29,25256785,5234
32-30,25260691,26145
32-31,25264597,32767
32-32,25268503,24747
32-1,25272292,-5496
32-2,25276198,-32768
32-3,25280104,-32359
32-4,25284010,-19905
32-5,25287916,1165
32-6,25291822,6761
32-7,25295728,-7400
32-8,25299634,-26511
32-9,25303540,-31383
32-10,25307446,-30991
32-11,25311352,-14527
32-12,25315258,5781
32-13,25319164,26366
32-14,25323070,32767
32-15,25326976,32358
32-16,25330882,17401
32-17,25334788,-14142
32-18,25338694,-32768
32-19,25342600,-31437
32-20,25346506,-6356
32-21,25350412,20505
32-22,25354318,23537
32-23,25358224,-662
32-24,25362130,-28369
32-25,25366036,-32076
32-26,25369942,-23454
32-27,25373848,6402
32-28,25377754,31919
32-29,25381660,32767
32-30,25385566,31728
32-31,25389472,8081
32-32,25393378,-20592
32-1,25397290,-32768
32-2,25401196,-32359
32-3,25405102,-14120
32-4,25409008,16511
32-5,25412914,30969
32-6,25416820,21843
32-7,25420726,-5354
32-8,25424632,-32579
32-9,25428538,-32172
32-10,25432444,-29062
32-11,25436350,833
32-12,25440256,24101
32-13,25444162,26487
32-14,25448068,7726
32-15,25451974,-21605
32-16,25455880,-31879
32-17,25459786,-31480
32-18,25463692,-17610
32-19,25467598,12746
32-20,25471504,31566
32-21,25475410,29799
32-22,25479316,6470
32-23,25483222,-24943
32-24,25487128,-31564
32-25,25491034,-31170
32-26,25494940,-11140
32-27,25498846,19596
32-28,25502752,32767
32-29,25506658,32358
32-30,25510564,15719
32-31,25514470,-17088
32-32,25518376,-32768
32-1,25522288,-32359
32-2,25526194,-9300
32-3,25530100,20914
32-4,25534006,31999
32-5,25537912,17688
32-6,25541818,-11880
32-7,25545724,-32574
32-8,25549630,-32167
32-9,25553536,-23120
32-10,25557442,7258
32-11,25561348,26855
32-12,25565254,24179
32-13,25569160,1683
32-14,25573066,-27709
32-15,25576972,-31881
32-16,25580878,-31483
32-17,25584784,-8985
32-18,25588690,18708
32-19,25592596,29741
32-20,25596502,18882
32-21,25600408,-8734
32-22,25604314,-31712
32-23,25608220,-31315
32-24,25612126,-28126
32-25,25616032,1257
32-26,25619938,25983
32-27,25623844,32588
32-28,25627750,19000
32-29,25631656,-9349
32-30,25635562,-31443
32-31,25639468,-31050
32-32,25643374,-26458
32-1,25647285,2160
32-2,25651191,28514
32-3,25655097,32767
32-4,25659003,23639
32-5,25662909,-8405
32-6,25666815,-32768
32-7,25670721,-32359
32-8,25674627,-17826
32-9,25678533,9831
32-10,25682439,21775
32-11,25686345,9538
32-12,25690251,-15845
32-13,25694157,-32050
32-14,25698063,-31649
32-15,25701969,-24536
32-16,25705875,2991
32-17,25709781,20820
32-18,25713687,19033
32-19,25717593,-1310
32-20,25721499,-27717
32-21,25725405,-31122
32-22,25729311,-30733
32-23,25733217,-14848
32-24,25737123,10974
32-25,25741029,32578
32-26,25744935,32767
32-27,25748841,30332
32-28,25752747,3491
32-29,25756653,-23800
32-30,25760559,-32768
32-31,25764465,-24550
32-32,25768371,4937
32-1,25772283,30373
32-2,25776189,32632
32-3,25780095,13431
32-4,25784001,-19439
32-5,25787907,-32768
32-6,25791813,-32359
32-7,25795719,-10105
32-8,25799625,16627
32-9,25803531,23724
32-10,25807437,7804
32-11,25811343,-19329
32-12,25815249,-32190
32-13,25819155,-31788
32-14,25823061,-22708
32-15,25826967,6869
32-16,25830873,28231
32-17,25834779,30808
32-18,25838685,11694
32-19,25842591,-19051
32-20,25846497,-31842
32-21,25850403,-31444
32-22,25854309,-16771
32-23,25858215,12863
32-24,25862121,29957
32-25,25866027,22863
32-26,25869933,-2012
32-27,25873839,-26721
32-28,25877745,-31306
32-29,25881651,-19104
32-30,25885557,7081
32-31,25889463,29566
32-32,25893369,32767
32-1,25897280,26269
32-2,25901186,-177
32-3,25905092,-29119
32-4,25908998,-32732
32-5,25912904,-30202
32-6,25916810,-996
32-7,25920716,21626
32-8,25924622,21738
32-9,25928528,1166
32-10,25932434,-26503
32-11,25936340,-32161
32-12,25940246,-31759
32-13,25944152,-13691
32-14,25948058,14478
32-15,25951964,28776
32-16,25955870,21948
32-17,25959776,-3494
32-18,25963682,-31965
32-19,25967588,-31565
32-20,25971494,-31171
32-21,25975400,-3149
32-22,25979306,22234
32-23,25983212,27049
32-24,25987118,13814
32-25,25991024,-10000
32-26,25994930,-27159
32-27,25998836,-28224
32-28,26002742,-16578
32-29,26006648,5021
32-30,26010554,25711
32-31,26014460,32767
32-32,26018366,23248
32-1,26022278,-5729
32-2,26026184,-32768
32-3,26030090,-32359
32-4,26033996,-22661
32-5,26037902,7883
32-6,26041808,26954
32-7,26045714,21741
32-8,26049620,-2232
32-9,26053526,-30645
32-10,26057432,-31970
32-11,26061338,-31570
32-12,26065244,-7344
32-13,26069150,19782
32-14,26073056,30225
32-15,26076962,18907
32-16,26080868,-9145
32-17,26084774,-31833
32-18,26088680,-31435
32-19,26092586,-27199
32-20,26096492,2727
32-21,26100398,27496
32-22,26104304,29857
32-23,26108210,7659
32-24,26112116,-21981
32-25,26116022,-31277
32-26,26119928,-23757
32-27,26123834,4252
32-28,26127740,30816
32-29,26131646,32767
32-30,26135552,31424
32-31,26139458,8375
32-32,26143364,-20398
32-1,26147276,-32768
32-2,26151182,-32359
32-3,26155088,-14305
32-4,26158994,16430
32-5,26162900,30721
32-6,26166806,21817
32-7,26170712,-5836
32-8,26174618,-32566
32-9,26178524,-32160
32-10,26182430,-25666
32-11,26186336,200
32-12,26190242,14828
32-13,26194148,7530
32-14,26198054,-13369
32-15,26201960,-31554
32-16,26205866,-31160
32-17,26209772,-26471
32-18,26213678,-5379
32-19,26217584,17391
32-20,26221490,32767
32-21,26225396,32358
32-22,26229302,26574
32-23,26233208,-2655
32-24,26237114,-29369
32-25,26241020,-32768
32-26,26244926,-19518
32-27,26248832,13032
32-28,26252738,32767
32-29,26256644,32358
32-30,26260550,7711
32-31,26264456,-24275
32-32,26268362,-32768
32-1,26272273,-32359
32-2,26276179,-6977
32-3,26280085,23237
32-4,26283991,32767
32-5,26287897,22639
32-6,26291803,-6822
32-7,26295709,-32768
32-8,26299615,-32359
32-9,26303521,-24101
32-10,26307427,6288
32-11,26311333,26004
32-12,26315239,22348
32-13,26319145,-631
32-14,26323051,-29032
32-15,26326957,-31968
32-16,26330863,-31568
32-17,26334769,-10019
32-18,26338675,18587
32-19,26342581,32349
32-20,26346487,24534
32-21,26350393,-2579
32-22,26354299,-31765
32-23,26358205,-31565
32-24,26362111,-30646
32-25,26366017,-1497
32-26,26369923,24842
32-27,26373829,32439
32-28,26377735,19455
32-29,26381641,-8664
32-30,26385547,-31623
32-31,26389453,-31228
32-32,26393359,-26597
32-1,26397271,1936
32-2,26401177,28427
32-3,26405083,32767
32-4,26408989,23771
32-5,26412895,-7865
32-6,26416801,-31616
32-7,26420707,-32574
32-8,26424613,-21876
32-9,26428519,-11141
32-10,26432425,-12747
32-11,26436331,-22773
32-12,26440237,-29209
32-13,26444143,-27852
32-14,26448049,-16896
32-15,26451955,-2779
32-16,26455861,11645
32-17,26459767,28955
32-18,26463673,32767
32-19,26467579,32358
32-20,26471485,17133
32-21,26475391,-13070
32-22,26479297,-32768
32-23,26483203,-31307
32-24,26487109,-4832
32-25,26491015,23064
32-26,26494921,30908
32-27,26498827,15329
32-28,26502733,-12228
32-29,26506639,-32596
32-30,26510545,-32216
32-31,26514451,-18705
32-32,26518357,8868
32-1,26522269,30912
32-2,26526175,32767
32-3,26530081,17174
32-4,26533987,-16350
32-5,26537893,-32768
32-6,26541799,-32359
32-7,26545705,-10378
32-8,26549611,14992
32-9,26553517,20416
32-10,26557423,3158
32-11,26561329,-23085
32-12,26565235,-32019
32-13,26569141,-31619
32-14,26573047,-19798
32-15,26576953,9338
32-16,26580859,29207
32-17,26584765,29818
32-18,26588671,8798
32-19,26592577,-22411
32-20,26596483,-31663
32-21,26600389,-31268
32-22,26604295,-11685
32-23,26608201,14132
32-24,26612107,24750
32-25,26616013,12412
32-26,26619919,-11457
32-27,26623825,-28900
32-28,26627731,-26513
32-29,26631637,-8069
32-30,26635543,13466
32-31,26639449,30613
32-32,26643355,32767
32-1,26647297,32358
32-2,26651203,19254
32-3,26655109,-9747
32-4,26659015,-31664
32-5,26662921,-29739
32-6,26666827,-7172
32-7,26670733,14183
32-8,26674639,15128
32-9,26678545,-5848
32-10,26682451,-30942
32-11,26686357,-32345
32-12,26690263,-31941
32-13,26694169,-13033
32-14,26698075,14729
32-15,26701981,31256
32-16,26705887,27385
32-17,26709793,2815
32-18,26713699,-27740
32-19,26717605,-31986
32-20,26721511,-31587
32-21,26725417,-6432
32-22,26729323,20288
32-23,26733229,25981
32-24,26737135,13070
32-25,26741041,-10252
32-26,26744947,-27529
32-27,26748853,-28477
32-28,26752759,-17241
32-29,26756665,3640
32-30,26760571,24923
32-31,26764477,32767
32-32,26768383,27084
32-1,26772264,-978
32-2,26776170,-32721
32-3,26780076,-32687
32-4,26783982,-23850
32-5,26787888,5441
32-6,26791794,23898
32-7,26795700,17589
32-8,26799606,-6466
32-9,26803512,-32489
32-10,26807418,-32083
32-11,26811324,-31682
32-12,26815230,-5964
32-13,26819136,19698
32-14,26823042,28994
32-15,26826948,16563
32-16,26830854,-11628
32-17,26834760,-31884
32-18,26838666,-31486
32-19,26842572,-25680
32-20,26846478,4178
32-21,26850384,27772
32-22,26854290,28551
32-23,26858196,5443
32-24,26862102,-23619
32-25,26866008,-31303
32-26,26869914,-21804
32-27,26873820,5405
32-28,26877726,30653
32-29,26881632,32767
32-30,26885538,32358
32-31,26889444,13494
32-32,26893350,-15168
32-1,26897262,-32768
32-2,26901168,-32359
32-3,26905074,-15676
32-4,26908980,14745
32-5,26912886,28932
32-6,26916792,18711
32-7,26920698,-8221
32-8,26924604,-32438
32-9,26928510,-32032
32-10,26932416,-29874
32-11,26936322,-349
32-12,26940228,23945
32-13,26944134,28929
32-14,26948040,12330
32-15,26951946,-17420
32-16,26955852,-31854
32-17,26959758,-31456
32-18,26963664,-19548
32-19,26967570,10386
32-20,26971476,28081
32-21,26975382,24105
32-22,26979288,351
32-23,26983194,-28967
32-24,26987100,-31245
32-25,26991006,-30854
32-26,26994912,-9862
32-27,26998818,19152
32-28,27002724,32767
32-29,27006630,32358
32-30,27010536,18496
32-31,27014442,-14117
32-32,27018348,-32768
32-1,27022259,-32359
32-2,27026165,-9428
32-3,27030071,20278
32-4,27033977,30919
32-5,27037883,15813
32-6,27041789,-13728
32-7,27045695,-32505
32-8,27049601,-32099
32-9,27053507,-22924
32-10,27057413,7494
32-11,27061319,27358
32-12,27065225,25504
32-13,27069131,3470
32-14,27073037,-26341
32-15,27076943,-31882
32-16,27080849,-31484
32-17,27084755,-11103
32-18,27088661,17632
32-19,27092567,30612
32-20,27096473,21737
32-21,27100379,-5240
32-22,27104285,-31762
32-23,27108191,-31365
32-24,27112097,-30341
32-25,27116003,-1798
32-26,27119909,24482
32-27,27123815,32767
32-28,27127721,22223
32-29,27131627,-4992
32-30,27135533,-30924
32-31,27139439,-32444
32-32,27143345,-27874
32-1,27147257,664
32-2,27151163,27336
32-3,27155069,32767
32-4,27158975,22295
32-5,27162881,-9610
32-6,27166787,-32768
32-7,27170693,-32359
32-8,27174599,-17880
32-9,27178505,11942
32-10,27182411,26832
32-11,27186317,16942
32-12,27190223,-9291
32-13,27194129,-32313
32-14,27198035,-31909
32-15,27201941,-30006
32-16,27205847,-701
32-17,27209753,23768
32-18,27213659,29640
32-19,27217565,14080
32-20,27221471,-15763
32-21,27225377,-31776
32-22,27229283,-31379
32-23,27233189,-23865
32-24,27237095,6643
32-25,27241001,30653
32-26,27244907,32767
32-27,27248813,21303
32-28,27252719,-8349
32-29,27256625,-32215
32-30,27260531,-32529
32-31,27264437,-21145
32-32,27268343,8554
32-1,27272254,31307
32-2,27276160,32767
32-3,27280066,14182
32-4,27283972,-18764
32-5,27287878,-32712
32-6,27291784,-32303
32-7,27295690,-9468
32-8,27299596,18142
32-9,27303502,26120
32-10,27307408,10363
32-11,27311314,-17763
32-12,27315220,-32243
32-13,27319126,-31841
32-14,27323032,-22384
32-15,27326938,7872
32-16,27330844,29018
32-17,27334750,30298
32-18,27338656,9987
32-19,27342562,-21248
32-20,27346468,-31864
32-21,27350374,-31466
32-22,27354280,-13042
32-23,27358186,15087
32-24,27362092,28003
32-25,27365998,16567
32-26,27369904,-9558
32-27,27373810,-30876
32-28,27377716,-31152
32-29,27381622,-13909
32-30,27385528,11623
32-31,27389434,32200
32-32,27393340,32767
32-1,27397252,30867
32-2,27401158,5730
32-3,27405064,-24065
32-4,27408970,-32768
32-5,27412876,-30508
32-6,27416782,-2578
32-7,27420688,20208
32-8,27424594,20279
32-9,27428500,-1054
32-10,27432406,-28043
32-11,27436312,-32090
32-12,27440218,-31689
32-13,27444124,-12935
32-14,27448030,15891
32-15,27451936,32079
32-16,27455842,27417
32-17,27459748,2162
32-18,27463654,-28522
32-19,27467560,-31746
32-20,27471466,-31350
32-21,27475372,-3811
32-22,27479278,22440
32-23,27483184,26582
32-24,27487090,12774
32-25,27490996,-10195
32-26,27494902,-25830
32-27,27498808,-25374
32-28,27502714,-14377
32-29,27506620,5361
32-30,27510526,25557
32-31,27514432,32767
32-32,27518338,27134
32-1,27522280,-1068
32-2,27526186,-32768
32-3,27530092,-32471
32-4,27533998,-22822
32-5,27537904,5396
32-6,27541810,21826
32-7,27545716,13711
32-8,27549622,-10680
32-9,27553528,-32160
32-10,27557434,-31758
32-11,27561340,-31362
32-12,27565246,-3505
32-13,27569152,22281
32-14,27573058,32651
32-15,27576964,21098
32-16,27580870,-7786
32-17,27584776,-31781
32-18,27588682,-31384
32-19,27592588,-26452
32-20,27596494,3690
32-21,27600400,28167
32-22,27604306,29270
32-23,27608212,6048
32-24,27612118,-23414
32-25,27616024,-31210
32-26,27619930,-22653
32-27,27623836,6071
32-28,27627742,32428
32-29,27631648,32767
32-30,27635554,31129
32-31,27639460,6552
32-32,27643366,-22356
32-1,27647247,-32768
32-2,27651153,-32359
32-3,27655059,-16574
32-4,27658965,-6253
32-5,27662871,-11107
32-6,27666777,-21876
32-7,27670683,-27130
32-8,27674589,-23323
32-9,27678495,-10046
32-10,27682401,4536
32-11,27686307,15674
32-12,27690213,28484
32-13,27694119,32767
32-14,27698025,32358
32-15,27701931,24984
32-16,27705837,-3679
32-17,27709743,-24567
32-18,27713649,-23622
32-19,27717555,-4625
32-20,27721461,12370
32-21,27725367,9625
32-22,27729273,-12899
32-23,27733179,-32768
32-24,27737085,-32359
32-25,27740991,-31868
32-26,27744897,-7874
32-27,27748803,18793
32-28,27752709,32767
32-29,27756615,32358
32-30,27760521,17310
32-31,27764427,-15029
32-32,27768333,-32768
32-1,27772245,-32359
32-2,27776151,-9865
32-3,27780057,19337
32-4,27783963,29174
32-5,27787869,13768
32-6,27791775,-15233
32-7,27795681,-32422
32-8,27799587,-32017
32-9,27803493,-23309
32-10,27807399,6868
32-11,27811305,27057
32-12,27815211,26251
32-13,27819117,5050
32-14,27823023,-24933
32-15,27826929,-31831
32-16,27830835,-31433
32-17,27834741,-12587
32-18,27838647,16105
32-19,27842553,29303
32-20,27846459,20681
32-21,27850365,-5684
32-22,27854271,-31640
32-23,27858177,-31245
32-24,27862083,-30855
32-25,27865989,-2771
32-26,27869895,23494
32-27,27873801,32767
32-28,27877707,22543
32-29,27881613,-4706
32-30,27885519,-30894
32-31,27889425,-31749
32-32,27893331,-27874
32-1,27897243,734
32-2,27901149,27590
32-3,27905055,32767
32-4,27908961,22481
32-5,27912867,-9224
32-6,27916773,-32768
32-7,27920679,-32359
32-8,27924585,-18471
32-9,27928491,11228
32-10,27932397,26141
32-11,27936303,16396
32-12,27940209,-9300
32-13,27944115,-32281
32-14,27948021,-31878
32-15,27951927,-30614
32-16,27955833,-1837
32-17,27959739,22076
32-18,27963645,27531
32-19,27967551,11915
32-20,27971457,-17210
32-21,27975363,-31630
32-22,27979269,-31235
32-23,27983175,-23987
32-24,27987081,6198
32-25,27990987,29897
32-26,27994893,32767
32-27,27998799,20251
32-28,28002705,-9469
32-29,28006611,-32768
32-30,28010517,-32387
32-31,28014423,-20700
32-32,28018329,8926
32-1,28022240,31588
32-2,28026146,32767
32-3,28030052,15125
32-4,28033958,-17880
32-5,28037864,-32735
32-6,28041770,-32326
32-7,28045676,-10124
32-8,28049582,17894
32-9,28053488,26419
32-10,28057394,11131
32-11,28061300,-16828
32-12,28065206,-32280
32-13,28069112,-31876
32-14,28073018,-23481
32-15,28076924,6434
32-16,28080830,27081
32-17,28084736,27786
32-18,28088642,7375
32-19,28092548,-22836
32-20,28096454,-31760
32-21,28100360,-31363
32-22,28104266,-14255
32-23,28108172,14828
32-24,28112078,30693
32-25,28115984,23064
32-26,28119890,-2364
32-27,28123796,-27236
32-28,28127702,-31283
32-29,28131608,-19451
32-30,28135514,7420
32-31,28139420,30046
32-32,28143326,32767
32-1,28147512,24206
32-2,28151418,-3334
32-3,28155324,-31271
32-4,28159230,-32639
32-5,28163136,-29808
32-6,28167042,282
32-7,28170948,23772
32-8,28174854,25301
32-9,28178760,5395
32-10,28182666,-23772
32-11,28186572,-32248
32-12,28190478,-31845
32-13,28194384,-14912
32-14,28198290,14480
32-15,28202196,29876
32-16,28206102,23719
32-17,28210008,-1602
32-18,28213914,-30957
32-19,28217820,-31707
32-20,28221726,-31311
32-21,28225632,-3524
32-22,28229538,22659
32-23,28233444,27792
32-24,28237350,14593
32-25,28241256,-9270
32-26,28245162,-26373
32-27,28249068,-26759
32-28,28252974,-15238
32-29,28256880,5596
32-30,28260786,26189
32-31,28264692,32767
32-32,28268598,26203
32-1,28272235,-1907
32-2,28276141,-32768
32-3,28280047,-32359
32-4,28283953,-23348
32-5,28287859,6206
32-6,28291765,24864
32-7,28295671,18938
32-8,28299577,-5410
32-9,28303483,-32222
32-10,28307389,-31820
32-11,28311295,-31422
32-12,28315201,-5933
32-13,28319107,21333
32-14,28323013,32767
32-15,28326919,22488
32-16,28330825,-5950
32-17,28334731,-32010
32-18,28338637,-31610
32-19,28342543,-26554
32-20,28346449,3236
32-21,28350355,26330
32-22,28354261,25183
32-23,28358167,808
32-24,28362073,-27280
32-25,28365979,-31239
32-26,28369885,-22150
32-27,28373791,7417
32-28,28377697,32767
32-29,28381603,32767
32-30,28385509,30405
32-31,28389415,6108
32-32,28393321,-22225
32-1,28397233,-32768
32-2,28401139,-32359
32-3,28405045,-14481
32-4,28408951,16694
32-5,28412857,32767
32-6,28416763,26274
32-7,28420669,68
32-8,28424575,-30549
32-9,28428481,-32456
32-10,28432387,-31724
32-11,28436293,-2257
32-12,28440199,23314
32-13,28444105,28048
32-14,28448011,10632
32-15,28451917,-18852
32-16,28455823,-32167
32-17,28459729,-31765
32-18,28463635,-18634
32-19,28467541,11367
32-20,28471447,28800
32-21,28475353,24770
32-22,28479259,622
32-23,28483165,-29071
32-24,28487071,-31594
32-25,28490977,-31199
32-26,28494883,-9212
32-27,28498789,20250
32-28,28502695,32767
32-29,28506601,32358
32-30,28510507,16956
32-31,28514413,-15567
32-32,28518319,-32768
32-1,28522231,-32359
32-2,28526137,-10316
32-3,28530043,20016
32-4,28533949,31704
32-5,28537855,17775
32-6,28541761,-11598
32-7,28545667,-32551
32-8,28549573,-32144
32-9,28553479,-23604
32-10,28557385,6695
32-11,28561291,26468
32-12,28565197,24111
32-13,28569103,1912
32-14,28573009,-27304
32-15,28576915,-31848
32-16,28580821,-31450
32-17,28584727,-10139
32-18,28588633,17930
32-19,28592539,30118
32-20,28596445,20543
32-21,28600351,-6610
32-22,28604257,-31706
32-23,28608163,-31310
32-24,28612069,-29299
32-25,28615975,-319
32-26,28619881,24947
32-27,28623787,32224
32-28,28627693,19427
32-29,28631599,-8648
32-30,28635505,-31400
32-31,28639411,-31008
32-32,28643317,-21735
32-1,28647228,4008
32-2,28651134,18643
32-3,28655040,12404
32-4,28658946,-9483
32-5,28662852,-30670
32-6,28666758,-30287
32-7,28670664,-27500
32-8,28674570,-308
32-9,28678476,19448
32-10,28682382,21223
32-11,28686288,3748
32-12,28690194,-22068
32-13,28694100,-29842
32-14,28698006,-29470
32-15,28701912,-15300
32-16,28705818,6960
32-17,28709724,25039
32-18,28713630,32767
32-19,28717536,32358
32-20,28721442,31953
32-21,28725348,12225
32-22,28729254,-10817
32-23,28733160,-20406
32-24,28737066,-8860
32-25,28740972,8607
32-26,28744878,13820
32-27,28748784,1252
32-28,28752690,-21254
32-29,28756596,-32768
32-30,28760502,-32359
32-31,28764408,-17035
32-32,28768314,8321
32-1,28772379,29470
32-2,28776285,32767
32-3,28780191,14160
32-4,28784097,-18597
32-5,28788003,-32650
32-6,28791909,-32242
32-7,28795815,-10513
32-8,28799721,17237
32-9,28803627,25656
32-10,28807533,10601
32-11,28811439,-16905
32-12,28815345,-32167
32-13,28819251,-31765
32-14,28823157,-23703
32-15,28827063,6042
32-16,28830969,26980
32-17,28834875,28401
32-18,28838781,8634
32-19,28842687,-21537
32-20,28846593,-31681
32-21,28850499,-31285
32-22,28854405,-15627
32-23,28858311,13578
32-24,28862217,30268
32-25,28866123,23581
32-26,28870029,-1045
32-27,28873935,-26001
32-28,28877841,-31206
32-29,28881747,-19995
32-30,28885653,6264
32-31,28889559,28955
32-32,28893465,32767
32-1,28897437,24332
32-2,28901343,-2705
32-3,28905249,-30883
32-4,28909155,-32654
32-5,28913061,-30213
32-6,28916967,-332
32-7,28920873,22990
32-8,28924779,24355
32-9,28928685,4611
32-10,28932591,-24065
32-11,28936497,-32215
32-12,28940403,-31813
32-13,28944309,-16264
32-14,28948215,13067
32-15,28952121,29419
32-16,28956027,24770
32-17,28959933,313
32-18,28963839,-29411
32-19,28967745,-31691
32-20,28971651,-31295
32-21,28975557,-5660
32-22,28979463,21327
32-23,28983369,28516
32-24,28987275,16551
32-25,28991181,-7311
32-26,28995087,-27405
32-27,28998993,-30439
32-28,29002899,-16272
32-29,29006805,6688
32-30,29010711,23982
32-31,29014617,24747
32-32,29018523,8315
32-1,29022221,-19899
32-2,29026127,-31198
32-3,29030033,-30808
32-4,29033939,-19746
32-5,29037845,7680
32-6,29041751,31996
32-7,29045657,32767
32-8,29049563,32358
32-9,29053469,3246
32-10,29057375,-26721
32-11,29061281,-32768
32-12,29065187,-17330
32-13,29069093,9323
32-14,29072999,22429
32-15,29076905,9978
32-16,29080811,-17148
32-17,29084717,-32451
32-18,29088623,-32046
32-19,29092529,-26088
32-20,29096435,3135
32-21,29100341,26977
32-22,29104247,30545
32-23,29108153,8953
32-24,29112059,-21139
32-25,29115965,-31927
32-26,29119871,-25209
32-27,29123777,2173
32-28,29127683,29146
32-29,29131589,32767
32-30,29135495,31738
32-31,29139401,9164
32-32,29143307,-19909
32-1,29147219,-32768
32-2,29151125,-32359
32-3,29155031,-13821
32-4,29158937,15678
32-5,29162843,27980
32-6,29166749,16740
32-7,29170655,-10398
32-8,29174561,-32409
32-9,29178467,-32004
32-10,29182373,-27398
32-11,29186279,2298
32-12,29190185,24238
32-13,29194091,25935
32-14,29197997,6973
32-15,29201903,-22413
32-16,29205809,-31727
32-17,29209715,-31330
32-18,29213621,-19042
32-19,29217527,11021
32-20,29221433,32767
32-21,29225339,32767
32-22,29229245,16789
32-23,29233151,-15967
32-24,29237057,-32768
32-25,29240963,-32359
32-26,29244869,-16218
32-27,29248775,15943
32-28,29252681,32767
32-29,29256587,32358
32-30,29260493,17141
32-31,29264399,-15577
32-32,29268305,-32768
32-1,29272217,-32359
32-2,29276123,-10683
32-3,29280029,20154
32-4,29283935,32767
32-5,29287841,19796
32-6,29291747,-9650
32-7,29295653,-32615
32-8,29299559,-32208
32-9,29303465,-23465
32-10,29307371,6580
32-11,29311277,25389
32-12,29315183,21622
32-13,29319089,-1185
32-14,29322995,-29236
32-15,29326901,-31804
32-16,29330807,-31407
32-17,29334713,-9725
32-18,29338619,18723
32-19,29342525,32729
32-20,29346431,24908
32-21,29350337,-2050
32-22,29354243,-31824
32-23,29358149,-31427
32-24,29362055,-26742
32-25,29365961,-3144
32-26,29369867,12517
32-27,29373773,14467
32-28,29377679,6150
32-29,29381585,-7038
32-30,29385491,-18709
32-31,29389397,-23374
32-32,29393303,-13981
32-1,29397367,7983
32-2,29401273,28563
32-3,29405179,32767
32-4,29409085,12677
32-5,29412991,-20363
32-6,29416897,-32674
32-7,29420803,-32265
32-8,29424709,-16624
32-9,29428615,9545
32-10,29432521,29674
32-11,29436427,32767
32-12,29440333,32358
32-13,29444239,21761
32-14,29448145,-1915
32-15,29452051,-15144
32-16,29455957,-12240
32-17,29459863,86
32-18,29463769,4563
32-19,29467675,-6632
32-20,29471581,-27964
32-21,29475487,-32708
32-22,29479393,-32300
32-23,29483299,-22814
32-24,29487205,3423
32-25,29491111,27745
32-26,29495017,32767
32-27,29498923,25419
32-28,29502829,-4051
32-29,29506735,-31022
32-30,29510641,-32649
32-31,29514547,-24583
32-32,29518453,5914
32-1,29522212,30521
32-2,29526118,32736
32-3,29530024,14097
32-4,29533930,-18694
32-5,29537836,-32743
32-6,29541742,-32334
32-7,29545648,-10942
32-8,29549554,16145
32-9,29553460,24030
32-10,29557366,8643
32-11,29561272,-18484
32-12,29565178,-32174
32-13,29569084,-31772
32-14,29572990,-22081
32-15,29576896,7452
32-16,29580802,27245
32-17,29584708,27282
32-18,29588614,6312
32-19,29592520,-23562
32-20,29596426,-31660
32-21,29600332,-31265
32-22,29604238,-13666
32-23,29608144,15165
32-24,29612050,30707
32-25,29615956,22409
32-26,29619862,-3541
32-27,29623768,-27877
32-28,29627674,-31167
32-29,29631580,-17144
32-30,29635486,8658
32-31,29639392,30747
32-32,29643298,32767
32-1,29647209,29967
32-2,29651115,5204
32-3,29655021,-24466
32-4,29658927,-32768
32-5,29662833,-31598
32-6,29666739,-3310
32-7,29670645,20661
32-8,29674551,22287
32-9,29678457,2137
32-10,29682363,-25482
32-11,29686269,-32170
32-12,29690175,-31768
32-13,29694081,-14933
32-14,29697987,13452
32-15,29701893,28600
32-16,29705799,22694
32-17,29709705,-2266
32-18,29713611,-31015
32-19,29717517,-31579
32-20,29721423,-31185
32-21,29725329,-4110
32-22,29729235,21736
32-23,29733141,27400
32-24,29737047,14900
32-25,29740953,-8862
32-26,29744859,-26738
32-27,29748765,-28242
32-28,29752671,-17505
32-29,29756577,3340
32-30,29760483,25036
32-31,29764389,32767
32-32,29768295,28286
32-1,29772207,759
32-2,29776113,-31338
32-3,29780019,-32741
32-4,29783925,-24617
32-5,29787831,5117
32-6,29791737,24985
32-7,29795643,19937
32-8,29799549,-3867
32-9,29803455,-32604
32-10,29807361,-32196
32-11,29811267,-31794
32-12,29815173,-5987
32-13,29819079,14437
32-14,29822985,15618
32-15,29826891,-1613
32-16,29830797,-25990
32-17,29834703,-31355
32-18,29838609,-30963
32-19,29842515,-16398
32-20,29846421,7951
32-21,29850327,30994
32-22,29854233,32767
32-23,29858139,29819
32-24,29862045,3337
32-25,29865951,-23230
32-26,29869857,-31364
32-27,29873763,-15322
32-28,29877669,12615
32-29,29881575,30777
32-30,29885481,26027
32-31,29889387,2128
32-32,29893293,-25976
32-1,29897205,-32768
32-2,29901111,-32359
32-3,29905017,-13937
32-4,29908923,16208
32-5,29912829,32315
32-6,29916735,26737
32-7,29920641,899
32-8,29924547,-30097
32-9,29928453,-32358
32-10,29932359,-31954
32-11,29936265,-2680
32-12,29940171,22727
32-13,29944077,27189
32-14,29947983,9875
32-15,29951889,-19148
32-16,29955795,-32031
32-17,29959701,-31631
32-18,29963607,-20198
32-19,29967513,9848
32-20,29971419,28746
32-21,29975325,26899
32-22,29979231,4251
32-23,29983137,-26204
32-24,29987043,-31530
32-25,29990949,-31136
32-26,29994855,-12438
32-27,29998761,17620
32-28,30002667,32767
32-29,30006573,32358
32-30,30010479,17747
32-31,30014385,-15110
32-32,30018291,-32768
32-1,30022202,-32359
32-2,30026108,-9991
32-3,30030014,20007
32-4,30033920,31237
32-5,30037826,16768
32-6,30041732,-12736
32-7,30045638,-32522
32-8,30049544,-32116
32-9,30053450,-22735
32-10,30057356,7700
32-11,30061262,27130
32-12,30065168,24518
32-13,30069074,2127
32-14,30072980,-27275
32-15,30076886,-31860
32-16,30080792,-31462
32-17,30084698,-10550
32-18,30088604,18005
32-19,30092510,30878
32-20,30096416,22017
32-21,30100322,-5041
32-22,30104228,-31762
32-23,30108134,-31366
32-24,30112040,-30422
32-25,30115946,-1816
32-26,30119852,24567
32-27,30123758,32767
32-28,30127664,21956
32-29,30131570,-5368
32-30,30135476,-31322
32-31,30139382,-32301
32-32,30143288,-28496
32-1,30147200,-162
32-2,30151106,26786
32-3,30155012,32767
32-4,30158918,23184
32-5,30162824,-8359
32-6,30166730,-32768
32-7,30170636,-32359
32-8,30174542,-18949
32-9,30178448,10898
32-10,30182354,26556
32-11,30186260,17454
32-12,30190166,-8596
32-13,30194072,-32298
32-14,30197978,-31895
32-15,30201884,-30665
32-16,30205790,-1422
32-17,30209696,24279
32-18,30213602,32229
32-19,30217508,18347
32-20,30221414,-11641
32-21,30225320,-31887
32-22,30229226,-31489
32-23,30233132,-25194
32-24,30237038,6174
32-25,30240944,29793
32-26,30244850,32767
32-27,30248756,17263
32-28,30252662,-11066
32-29,30256568,-31479
32-30,30260474,-32196
32-31,30264380,-18833
32-32,30268286,8633
32-1,30272198,30941
32-2,30276104,32767
32-3,30280010,19740
32-4,30283916,-13504
32-5,30287822,-32768
32-6,30291728,-32359
32-7,30295634,-11727
32-8,30299540,15298
32-9,30303446,23248
32-10,30307352,7154
32-11,30311258,-20031
32-12,30315164,-32131
32-13,30319070,-31729
32-14,30322976,-22012
32-15,30326882,7726
32-16,30330788,28937
32-17,30334694,31258
32-18,30338600,11515
32-19,30342506,-19619
32-20,30346412,-31807
32-21,30350318,-31410
32-22,30354224,-14847
32-23,30358130,14558
32-24,30362036,30171
32-25,30365942,20723
32-26,30369848,-5233
32-27,30373754,-29934
32-28,30377660,-31212
32-29,30381566,-14608
32-30,30385472,13983
32-31,30389378,30302
32-32,30393284,26202
32-1,30397195,5431
32-2,30401101,-21949
32-3,30405007,-31316
32-4,30408913,-30925
32-5,30412819,-21588
32-6,30416725,7942
32-7,30420631,27979
32-8,30424537,28976
32-9,30428443,8426
32-10,30432349,-21822
32-11,30436255,-30915
32-12,30440161,-30529
32-13,30444067,-15667
32-14,30447973,9578
32-15,30451879,30520
32-16,30455785,32767
32-17,30459691,32358
32-18,30463597,19897
32-19,30467503,-7066
32-20,30471409,-21606
32-21,30475315,-15071
32-22,30479221,1659
32-23,30483127,7629
32-24,30487033,-1991
32-25,30490939,-19840
32-26,30494845,-29565
32-27,30498751,-25317
32-28,30502657,-13886
32-29,30506563,2276
32-30,30510469,21604
32-31,30514375,32767
32-32,30518281,31553
32-1,30522193,6131
32-2,30526099,-27157
32-3,30530005,-32768
32-4,30533911,-25752
32-5,30537817,2962
32-6,30541723,23745
32-7,30545629,19735
32-8,30549535,-3871
32-9,30553441,-31092
32-10,30557347,-32183
32-11,30561253,-31781
32-12,30565159,-8827
32-13,30569065,18237
32-14,30572971,29961
32-15,30576877,20028
32-16,30580783,-7442
32-17,30584689,-32035
32-18,30588595,-31635
32-19,30592501,-28818
32-20,30596407,766
32-21,30600313,26245
32-22,30604219,29709
32-23,30608125,8338
32-24,30612031,-21073
32-25,30615937,-31432
32-26,30619843,-24410
32-27,30623749,3497
32-28,30627655,30037
32-29,30631561,32767
32-30,30635467,30006
32-31,30639373,7081
32-32,30643279,-21105
32-1,30647190,-32768
32-2,30651096,-32359
32-3,30655002,-15935
32-4,30658908,14579
32-5,30662814,29880
32-6,30666720,22376
32-7,30670626,-3646
32-8,30674532,-32547
32-9,30678438,-32140
32-10,30682344,-31739
32-11,30686250,-2792
32-12,30690156,22688
32-13,30694062,28739
32-14,30697968,13004
32-15,30701874,-16291
32-16,30705780,-31911
32-17,30709686,-31512
32-18,30713592,-20943
32-19,30717498,8884
32-20,30721404,27212
32-21,30725310,24166
32-22,30729216,1017
32-23,30733122,-28373
32-24,30737028,-31270
32-25,30740934,-30879
32-26,30744840,-10253
32-27,30748746,18830
32-28,30752652,32767
32-29,30756558,32358
32-30,30760464,19088
32-31,30764370,-13647
32-32,30768276,-32768
32-1,30772188,-32359
32-2,30776094,-9876
32-3,30780000,18953
32-4,30783906,28418
32-5,30787812,12466
32-6,30791718,-16502
32-7,30795624,-32375
32-8,30799530,-31970
32-9,30803436,-22571
32-10,30807342,7470
32-11,30811248,27204
32-12,30815154,26022
32-13,30819060,4534
32-14,30822966,-25461
32-15,30826872,-31789
32-16,30830778,-31392
32-17,30834684,-11845
32-18,30838590,16493
32-19,30842496,28855
32-20,30846402,19426
32-21,30850308,-7183
32-22,30854214,-31572
32-23,30858120,-31178
32-24,30862026,-30396
32-25,30865932,-2492
32-26,30869838,23634
32-27,30873744,32767
32-28,30877650,24004
32-29,30881556,-2406
32-30,30885462,-29158
32-31,30889368,-32675
32-32,30893274,-28859
32-1,30897186,-424
32-2,30901092,26243
32-3,30904998,32767
32-4,30908904,19720
32-5,30912810,-12141
32-6,30916716,-32768
32-7,30920622,-32359
32-8,30924528,-18382
32-9,30928434,11927
32-10,30932340,27670
32-11,30936246,19260
32-12,30940152,-6444
32-13,30944058,-32382
32-14,30947964,-31977
32-15,30951870,-31578
32-16,30955776,-2644
32-17,30959682,22903
32-18,30963588,30050
32-19,30967494,15719
32-20,30971400,-13784
32-21,30975306,-31838
32-22,30979212,-31441
32-23,30983118,-25496
32-24,30987024,4796
32-25,30990930,29617
32-26,30994836,32767
32-27,30998742,21851
32-28,31002648,-7874
32-29,31006554,-32768
32-30,31010460,-32359
32-31,31014366,-21929
32-32,31018272,8233
32-1,31022183,30614
32-2,31026089,31480
32-3,31029995,10782
32-4,31033901,-21581
32-5,31037807,-32427
32-6,31041713,-32022
32-7,31045619,-9116
32-8,31049525,19084
32-9,31053431,28141
32-10,31057337,13882
32-11,31061243,-14391
32-12,31065149,-32094
32-13,31069055,-31693
32-14,31072961,-23691
32-15,31076867,6624
32-16,31080773,27621
32-17,31084679,28261
32-18,31088585,7716
32-19,31092491,-22531
32-20,31096397,-31599
32-21,31100303,-31204
32-22,31104209,-14474
32-23,31108115,15110
32-24,31112021,32554
32-25,31115927,27552
32-26,31119833,3836
32-27,31123739,-22652
32-28,31127645,-31340
32-29,31131551,-22880
32-30,31135457,2888
32-31,31139363,26846
32-32,31143269,32767
32-1,31147181,21911
32-2,31151087,-5693
32-3,31154993,-32768
32-4,31158899,-32359
32-5,31162805,-29164
32-6,31166711,914
32-7,31170617,23672
32-8,31174523,25048
32-9,31178429,5346
32-10,31182335,-23602
32-11,31186241,-31985
32-12,31190147,-31585
32-13,31194053,-15893
32-14,31197959,14110
32-15,31201865,31827
32-16,31205771,28593
32-17,31209677,4625
32-18,31213583,-26827
32-19,31217489,-31648
32-20,31221395,-31253
32-21,31225301,-4983
32-22,31229207,20847
32-23,31233113,24188
32-24,31237019,9650
32-25,31240925,-12373
32-26,31244831,-26246
32-27,31248737,-24445
32-28,31252643,-11314
32-29,31256549,8880
32-30,31260455,26260
32-31,31264361,31559
32-32,31268267,19624
32-1,31272179,-9357
32-2,31276085,-31520
32-3,31279991,-31126
32-4,31283897,-23765
32-5,31287803,7040
32-6,31291709,32366
32-7,31295615,32767
32-8,31299521,20956
32-9,31303427,-11674
32-10,31307333,-32768
32-11,31311239,-32359
32-12,31315145,-15191
32-13,31319051,12823
32-14,31322957,23774
32-15,31326863,10371
32-16,31330769,-16270
32-17,31334675,-32150
32-18,31338581,-31748
32-19,31342487,-26082
32-20,31346393,3137
32-21,31350299,28400
32-22,31354205,32767
32-23,31358111,14404
32-24,31362017,-16008
32-25,31365923,-32750
32-26,31369829,-28147
32-27,31373735,-3361
32-28,31377641,24304
32-29,31381547,32767
32-30,31385453,30685
32-31,31389359,8759
32-32,31393265,-19883
32-1,31397176,-32768
32-2,31401082,-32359
32-3,31404988,-15832
32-4,31408894,14835
32-5,31412800,30228
32-6,31416706,22421
32-7,31420612,-3923
32-8,31424518,-32553
32-9,31428424,-32146
32-10,31432330,-31023
32-11,31436236,-1538
32-12,31440142,23207
32-13,31444048,27978
32-14,31447954,11045
32-15,31451860,-18322
32-16,31455766,-31889
32-17,31459672,-31490
32-18,31463578,-19323
32-19,31467484,10748
32-20,31471390,29029
32-21,31475296,26188
32-22,31479202,2690
32-23,31483108,-27473
32-24,31487014,-31372
32-25,31490920,-30980
32-26,31494826,-9986
32-27,31498732,19717
32-28,31502638,32767
32-29,31506544,32358
32-30,31510450,17780
32-31,31514356,-14772
32-32,31518262,-32768
32-1,31522174,-32359
32-2,31526080,-10927
32-3,31529986,19122
32-4,31533892,30627
32-5,31537798,16607
32-6,31541704,-12410
32-7,31545610,-32494
32-8,31549516,-32088
32-9,31553422,-24216
32-10,31557328,5954
32-11,31561234,26221
32-12,31565140,24912
32-13,31569046,3488
32-14,31572952,-25989
32-15,31576858,-31820
32-16,31580764,-31422
32-17,31584670,-11636
32-18,31588576,16609
32-19,31592482,29216
32-20,31596388,20134
32-21,31600294,-6444
32-22,31604200,-31629
32-23,31608106,-31234
32-24,31612012,-30389
32-25,31615918,-2622
32-26,31619824,23485
32-27,31623730,32767
32-28,31627636,24057
32-29,31631542,-2047
32-30,31635448,-28702
32-31,31639354,-32549
32-32,31643260,-29751
32-1,31647172,-2015
32-2,31651078,25636
32-3,31654984,32767
32-4,31658890,23630
32-5,31662796,-7775
32-6,31666702,-32768
32-7,31670608,-32359
32-8,31674514,-19596
32-9,31678420,9884
32-10,31682326,25247
32-11,31686232,15931
32-12,31690138,-9533
32-13,31694044,-32231
32-14,31697950,-31828
32-15,31701856,-30819
32-16,31705762,-2079
32-17,31709668,22756
32-18,31713574,29970
32-19,31717480,15868
32-20,31721386,-13454
32-21,31725292,-31710
32-22,31729198,-31314
32-23,31733104,-26052
32-24,31737010,4258
32-25,31740916,28937
32-26,31744822,32767
32-27,31748728,20547
32-28,31752634,-8956
32-29,31756540,-32768
32-30,31760446,-32359
32-31,31764352,-21138
32-32,31768258,8660
32-1,31772169,30893
32-2,31776075,32390
32-3,31779981,12503
32-4,31783887,-20142
32-5,31787793,-32497
32-6,31791699,-32091
32-7,31795605,-10099
32-8,31799511,18309
32-9,31803417,27576
32-10,31807323,13448
32-11,31811229,-14439
32-12,31815135,-32127
32-13,31819041,-31725
32-14,31822947,-25036
32-15,31826853,4963
32-16,31830759,26714
32-17,31834665,28713
32-18,31838571,9361
32-19,31842477,-20912
32-20,31846383,-31629
32-21,31850289,-31234
32-22,31854195,-15663
32-23,31858101,13727
32-24,31862007,30518
32-25,31865913,23960
32-26,31869819,-522
32-27,31873725,-25703
32-28,31877631,-31174
32-29,31881537,-20886
32-30,31885443,4399
32-31,31889349,27766
32-32,31893255,32767
32-1,31897167,27536
32-2,31901073,1729
32-3,31904979,-27754
32-4,31908885,-32768
32-5,31912791,-31239
32-6,31916697,-1993
32-7,31920603,21973
32-8,31924509,23858
32-9,31928415,4129
32-10,31932321,-24258
32-11,31936227,-32267
32-12,31940133,-31864
32-13,31944039,-16143
32-14,31947945,13127
32-15,31951851,29475
32-16,31955757,24798
32-17,31959663,255
32-18,31963569,-29511
32-19,31967475,-31743
32-20,31971381,-31347
32-21,31975287,-5441
32-22,31979193,21523
32-23,31983099,28396
32-24,31987005,16393
32-25,31990911,-7732
32-26,31994817,-26599
32-27,31998723,-28570
32-28,32002629,-17283
32-29,32006535,4400
32-30,32010441,26086
32-31,32014347,32767
32-32,32018253,26856
32-1,32022164,-1157
32-2,32026070,-32549
32-3,32029976,-32684
32-4,32033882,-24424
32-5,32037788,5387
32-6,32041694,25016
32-7,32045600,20128
32-8,32049506,-3850
32-9,32053412,-31351
32-10,32057318,-32164
32-11,32061224,-31762
32-12,32065130,-7750
32-13,32069036,20009
32-14,32072942,32403
32-15,32076848,22972
32-16,32080754,-4974
32-17,32084660,-32150
32-18,32088566,-31748
32-19,32092472,-27979
32-20,32096378,1795
32-21,32100284,26253
32-22,32104190,26807
32-23,32108096,3662
32-24,32112002,-24968
32-25,32115908,-31423
32-26,32119814,-21819
32-27,32123720,3968
32-28,32127626,26600
32-29,32131532,32767
32-30,32135438,32358
32-31,32139344,29050
32-32,32143250,4033
32-1,32147162,-23995
32-2,32151068,-32768
32-3,32154974,-19265
32-4,32158880,7412
32-5,32162786,21707
32-6,32166692,10923
32-7,32170598,-15781
32-8,32174504,-32423
32-9,32178410,-32018
32-10,32182316,-28248
32-11,32186222,658
32-12,32190128,25103
32-13,32194034,32767
32-14,32197940,18171
32-15,32201846,-12305
32-16,32205752,-32213
32-17,32209658,-31811
32-18,32213564,-21124
32-19,32217470,8702
32-20,32221376,26162
32-21,32225282,20900
32-22,32229188,-2990
32-23,32233094,-31055
32-24,32237000,-31423
32-25,32240906,-31030
32-26,32244812,-8773
32-27,32248718,19837
32-28,32252624,32767
32-29,32256530,32358
32-30,32260436,18543
32-31,32264342,-13719
32-32,32268248,-32768
32-1,32272160,-32359
32-2,32276066,-11879
32-3,32279972,19066
32-4,32283878,32548
32-5,32287784,20084
32-6,32291690,-9075
32-7,32295596,-32591
32-8,32299502,-32184
32-9,32303408,-24946
32-10,32307314,5637
32-11,32311220,26788
32-12,32315126,25731
32-13,32319032,4259
32-14,32322938,-25517
32-15,32326844,-31933
32-16,32330750,-31534
32-17,32334656,-11340
32-18,32338562,16935
32-19,32342468,29146
32-20,32346374,19494
32-21,32350280,-7263
32-22,32354186,-31729
32-23,32358092,-31332
32-24,32361998,-29815
32-25,32365904,-1030
32-26,32369810,24402
32-27,32373716,32300
32-28,32377622,19947
32-29,32381528,-7929
32-30,32385434,-31416
32-31,32389340,-31024
32-32,32393246,-27811
32-1,32397157,-93
32-2,32401063,27185
32-3,32404969,32767
32-4,32408875,27368
32-5,32412781,-3093
32-6,32416687,-32768
32-7,32420593,-32359
32-8,32424499,-21118
32-9,32428405,8471
32-10,32432311,25614
32-11,32436217,17426
32-12,32440123,-8069
32-13,32444029,-32236
32-14,32447935,-31833
32-15,32451841,-30845
32-16,32455747,-1930
32-17,32459653,22562
32-18,32463559,28795
32-19,32467465,13742
32-20,32471371,-15453
32-21,32475277,-31649
32-22,32479183,-31253
32-23,32483089,-24802
32-24,32486995,5222
32-25,32490901,29472
32-26,32494807,32767
32-27,32498713,21638
32-28,32502619,-7675
32-29,32506525,-31991
32-30,32510431,-32544
32-31,32514337,-22762
32-32,32518243,6745
32-1,32522155,30501
32-2,32526061,32767
32-3,32529967,16573
32-4,32533873,-16363
32-5,32537779,-32768
32-6,32541685,-32359
32-7,32545591,-12074
32-8,32549497,15735
32-9,32553403,24713
32-10,32557309,9875
32-11,32561215,-17251
32-12,32565121,-32219
32-13,32569027,-31817
32-14,32572933,-23346
32-15,32576839,6099
32-16,32580745,26323
32-17,32584651,26912
32-18,32588557,6468
32-19,32592463,-23218
32-20,32596369,-31662
32-21,32600275,-31266
32-22,32604181,-14209
32-23,32608087,14734
32-24,32611993,30659
32-25,32615899,22920
32-26,32619805,-2389
32-27,32623711,-26828
32-28,32627617,-31189
32-29,32631523,-18319
32-30,32635429,6881
32-31,32639335,29097
32-32,32643241,32767
32-1,32647153,28882
32-2,32651059,4102
32-3,32654965,-25488
32-4,32658871,-32768
32-5,32662777,-31643
32-6,32666683,-2940
32-7,32670589,21049
32-8,32674495,22779
32-9,32678401,2922
32-10,32682307,-24855
32-11,32686213,-32203
32-12,32690119,-31801
32-13,32694025,-16194
32-14,32697931,12482
32-15,32701837,28355
32-16,32705743,23339
32-17,32709649,-1090
32-18,32713555,-30215
32-19,32717461,-31614
32-20,32721367,-31219
32-21,32725273,-5619
32-22,32729179,20917
32-23,32733085,27822
32-24,32736991,16143
32-25,32740897,-7717
32-26,32744803,-26601
32-27,32748709,-29164
32-28,32752615,-18125
32-29,32756521,3758
32-30,32760427,25457
32-31,32764333,32767
32-32,32768239,25059
32-1,32772150,-3370
32-2,32776056,-32768
32-3,32779962,-32359
32-4,32783868,-24112
32-5,32787774,6375
32-6,32791680,26609
32-7,32795586,22597
32-8,32799492,-772
32-9,32803398,-29371
32-10,32807304,-31973
32-11,32811210,-31574
32-12,32815116,-9102
32-13,32819022,18640
32-14,32822928,30436
32-15,32826834,20489
32-16,32830740,-7031
32-17,32834646,-31849
32-18,32838552,-31451
32-19,32842458,-28634
32-20,32846364,1117
32-21,32850270,26887
32-22,32854176,30523
32-23,32858082,9457
32-24,32861988,-20073
32-25,32865894,-31301
32-26,32869800,-24523
32-27,32873706,2242
32-28,32877612,28810
32-29,32881518,32767
32-30,32885424,31942
32-31,32889330,10124
32-32,32893236,-18584
32-1,32897148,-32768
32-2,32901054,-32359
32-3,32904960,-16061
32-4,32908866,15057
32-5,32912772,31125
32-6,32916678,23680
32-7,32920584,-2707
32-8,32924490,-32362
32-9,32928396,-32191
32-10,32932302,-30882
32-11,32936208,-1221
32-12,32940114,23576
32-13,32944020,27862
32-14,32947926,10564
32-15,32951832,-18805
32-16,32955738,-31929
32-17,32959644,-31530
32-18,32963550,-19643
32-19,32967456,10538
32-20,32971362,29226
32-21,32975268,26925
32-22,32979174,3861
32-23,32983080,-26603
32-24,32986986,-31443
32-25,32990892,-31050
32-26,32994798,-11475
32-27,32998704,18607
32-28,33002610,32767
32-29,33006516,32358
32-30,33010422,17506
32-31,33014328,-15081
32-32,33018234,-32768
32-1,33022145,-32359
32-2,33026051,-11542
32-3,33029957,19576
32-4,33033863,32767
32-5,33037769,20658
32-6,33041675,-8606
32-7,33045581,-32768
32-8,33049487,-32359
32-9,33053393,-24305
32-10,33057299,5935
32-11,33061205,25444
32-12,33065111,22223
32-13,33069017,-218
32-14,33072923,-28547
32-15,33076829,-31963
32-16,33080735,-31564
32-17,33084641,-11065
32-18,33088547,17675
32-19,33092453,32046
32-20,33096359,25057
32-21,33100265,-1450
32-22,33104171,-30880
32-23,33108077,-31564
32-24,33111983,-31170
32-25,33115889,-3382
32-26,33119795,23458
32-27,33123701,32344
32-28,33127607,20744
32-29,33131513,-6551
32-30,33135419,-31615
32-31,33139325,-31220
32-32,33143231,-27937
32-1,33147143,-222
32-2,33151049,27055
32-3,33154955,32767
32-4,33158861,26514
32-5,33162767,-4456
32-6,33166673,-32768
32-7,33170579,-32359
32-8,33174485,-20126
32-9,33178391,8369
32-10,33182297,23162
32-11,33186203,13176
32-12,33190109,-12269
32-13,33194015,-32110
32-14,33197921,-31709
32-15,33201827,-29570
32-16,33205733,-682
32-17,33209639,23972
32-18,33213545,31523
32-19,33217451,17262
32-20,33221357,-12652
32-21,33225263,-31687
32-22,33229169,-31292
32-23,33233075,-25222
32-24,33236981,5288
32-25,33240887,29944
32-26,33244793,32767
32-27,33248699,21121
32-28,33252605,-8293
32-29,33256511,-32375
32-30,33260417,-32526
32-31,33264323,-23115
32-32,33268229,6260
32-1,33272141,30587
32-2,33276047,32767
32-3,33279953,19141
32-4,33283859,-14143
32-5,33287765,-32768
32-6,33291671,-32359
32-7,33295577,-12276
32-8,33299483,14011
32-9,33303389,21284
32-10,33307295,5220
32-11,33311201,-21134
32-12,33315107,-32045
32-13,33319013,-31645
32-14,33322919,-22068
32-15,33326825,7235
32-16,33330731,28680
32-17,33334637,31891
32-18,33338543,12876
32-19,33342449,-18126
32-20,33346355,-31758
32-21,33350261,-31362
32-22,33354167,-16470
32-23,33358073,13325
32-24,33361979,30279
32-25,33365885,22130
32-26,33369791,-3176
32-27,33373697,-28563
32-28,33377603,-31191
32-29,33381509,-16503
32-30,33385415,11575
32-31,33389321,28778
32-32,33393227,25920
32-1,33397138,6364
32-2,33401044,-20557
32-3,33404950,-31248
32-4,33408856,-30857
32-5,33412762,-23949
32-6,33416668,276
32-7,33420574,24552
32-8,33424480,32767
32-9,33428386,32358
32-10,33432292,19756
32-11,33436198,-11912
32-12,33440104,-30142
32-13,33444010,-23978
32-14,33447916,-1752
32-15,33451822,15513
32-16,33455728,10662
32-17,33459634,-12878
32-18,33463540,-32742
32-19,33467446,-32333
32-20,33471352,-31929
32-21,33475258,-6041
32-22,33479164,19711
32-23,33483070,30465
32-24,33486976,21819
32-25,33490882,-2981
32-26,33494788,-26175
32-27,33498694,-31992
32-28,33502600,-23690
32-29,33506506,-462
32-30,33510412,24264
32-31,33514318,32767
32-32,33518224,27259
32-1,33522136,-531
32-2,33526042,-32319
32-3,33529948,-32700
32-4,33533854,-25240
32-5,33537760,4157
32-6,33541666,23632
32-7,33545572,18787
32-8,33549478,-4504
32-9,33553384,-31377
32-10,33557290,-32112
32-11,33561196,-31710
32-12,33565102,-8938
32-13,33569008,18123
32-14,33572914,30128
32-15,33576820,20655
32-16,33580726,-6531
32-17,33584632,-31984
32-18,33588538,-31584
32-19,33592444,-29342
32-20,33596350,-24
32-21,33600256,25234
32-22,33604162,27916
32-23,33608068,6411
32-24,33611974,-22058
32-25,33615880,-31294
32-26,33619786,-23594
32-27,33623692,3408
32-28,33627598,28912
32-29,33631504,32767
32-30,33635410,31066
32-31,33639316,9463
32-32,33643222,-18831
32-1,33647164,-32768
32-2,33651070,-32359
32-3,33654976,-16760
32-4,33658882,14464
32-5,33662788,31214
32-6,33666694,24875
32-7,33670600,-787
32-8,33674506,-30843
32-9,33678412,-32234
32-10,33682318,-31831
32-11,33686224,-3511
32-12,33690130,22530
32-13,33694036,28713
32-14,33697942,12980
32-15,33701848,-16155
32-16,33705754,-31993
32-17,33709660,-31593
32-18,33713566,-22052
32-19,33717472,8136
32-20,33721378,27912
32-21,33725284,26790
32-22,33729190,4779
32-23,33733096,-25626
32-24,33737002,-31449
32-25,33740908,-31056
32-26,33744814,-12910
32-27,33748720,17155
32-28,33752626,32767
32-29,33756532,32358
32-30,33760438,18238
32-31,33764344,-14393
32-32,33768250,-32768
32-1,33772131,-32359
32-2,33776037,-11540
32-3,33779943,19478
32-4,33783849,32767
32-5,33787755,20602
32-6,33791661,-8513
32-7,33795567,-32768
32-8,33799473,-32359
32-9,33803379,-24998
32-10,33807285,5232
32-11,33811191,25330
32-12,33815097,22852
32-13,33819003,908
32-14,33822909,-27768
32-15,33826815,-31976
32-16,33830721,-31577
32-17,33834627,-11611
32-18,33838533,16812
32-19,33842439,30318
32-20,33846345,22424
32-21,33850251,-4102
32-22,33854157,-31857
32-23,33858063,-31459
32-24,33861969,-31066
32-25,33865875,-3371
32-26,33869781,23453
32-27,33873687,32767
32-28,33877593,22690
32-29,33881499,-4378
32-30,33885405,-30829
32-31,33889311,-32118
32-32,33893217,-28956
32-1,33897129,-717
32-2,33901035,26485
32-3,33904941,32767
32-4,33908847,23357
32-5,33912753,-7892
32-6,33916659,-32768
32-7,33920565,-32359
32-8,33924471,-19906
32-9,33928377,10250
32-10,33932283,26941
32-11,33936189,18905
32-12,33940095,-6715
32-13,33944001,-32325
32-14,33947907,-31921
32-15,33951813,-31370
32-16,33955719,-2246
32-17,33959625,23064
32-18,33963531,29943
32-19,33967437,15321
32-20,33971343,-14282
32-21,33975249,-31780
32-22,33979155,-31383
32-23,33983061,-25066
32-24,33986967,4587
32-25,33990873,29955
32-26,33994779,32767
32-27,33998685,25740
32-28,34002591,-3880
32-29,34006497,-31043
32-30,34010403,-32655
32-31,34014309,-24457
32-32,34018215,6234
32-1,34022127,30552
32-2,34026033,32603
32-3,34029939,12058
32-4,34033845,-20588
32-5,34037751,-32705
32-6,34041657,-32296
32-7,34045563,-8773
32-8,34049469,19023
32-9,34053375,27166
32-10,34057281,11383
32-11,34061187,-17233
32-12,34065093,-32289
32-13,34068999,-31886
32-14,34072905,-20918
32-15,34076811,9701
32-16,34080717,30686
32-17,34084623,31865
32-18,34088529,11375
32-19,34092435,-20069
32-20,34096341,-32023
32-21,34100247,-31623
32-22,34104153,-13441
32-23,34108059,15564
32-24,34111965,30309
32-25,34115871,20647
32-26,34119777,-4726
32-27,34123683,-27032
32-28,34127589,-29435
32-29,34131495,-13515
32-30,34135401,10915
32-31,34139307,31652
32-32,34143213,32767
32-1,34147124,32358
32-2,34151030,8718
32-3,34154936,-21366
32-4,34158842,-32768
32-5,34162748,-31256
32-6,34166654,-4146
32-7,34170560,19134
32-8,34174466,19961
32-9,34178372,-1354
32-10,34182278,-28119
32-11,34186184,-32039
32-12,34190090,-31639
32-13,34193996,-11719
32-14,34197902,16891
32-15,34201808,32681
32-16,34205714,27881
32-17,34209620,2490
32-18,34213526,-27968
32-19,34217432,-31748
32-20,34221338,-31351
32-21,34225244,-4404
32-22,34229150,23075
32-23,34233056,29088
32-24,34236962,16659
32-25,34240868,-6703
32-26,34244774,-24089
32-27,34248680,-24855
32-28,34252586,-14633
32-29,34256492,4965
32-30,34260398,25760
32-31,34264304,32767
32-32,34268210,29663
32-1,34272213,2626
32-2,34276119,-30308
32-3,34280025,-32768
32-4,34283931,-24699
32-5,34287837,3575
32-6,34291743,21791
32-7,34295649,15169
32-8,34299555,-9176
32-9,34303461,-32444
32-10,34307367,-32039
32-11,34311273,-31639
32-12,34315179,-4854
32-13,34319085,21837
32-14,34322991,32767
32-15,34326897,23801
32-16,34330803,-4197
32-17,34334709,-32768
32-18,34338615,-32359
32-19,34342521,-29672
32-20,34346427,105
32-21,34350333,26071
32-22,34354239,28421
32-23,34358145,6015
32-24,34362051,-23094
32-25,34365957,-32055
32-26,34369863,-23865
32-27,34373769,3996
32-28,34377675,30074
32-29,34381581,32767
32-30,34385487,31704
32-31,34389393,9593
32-32,34393299,-18765
32-1,34397119,-32768
32-2,34401025,-32359
32-3,34404931,-16513
32-4,34408837,14537
32-5,34412743,30697
32-6,34416649,23441
32-7,34420555,-2705
32-8,34424461,-32182
32-9,34428367,-32173
32-10,34432273,-31444
32-11,34436179,-2014
32-12,34440085,23126
32-13,34443991,28191
32-14,34447897,11410
32-15,34451803,-17917
32-16,34455709,-31915
32-17,34459615,-31517
32-18,34463521,-19562
32-19,34467427,10420
32-20,34471333,28633
32-21,34475239,25684
32-22,34479145,2178
32-23,34483051,-27776
32-24,34486957,-31370
32-25,34490863,-30978
32-26,34494769,-9591
32-27,34498675,20067
32-28,34502581,32767
32-29,34506487,32358
32-30,34510393,17027
32-31,34514299,-15333
32-32,34518205,-32768
32-1,34522117,-32359
32-2,34526023,-11793
32-3,34529929,19371
32-4,34533835,32767
32-5,34537741,21087
32-6,34541647,-7739
32-7,34545553,-32768
32-8,34549459,-32359
32-9,34553365,-26192
32-10,34557271,4222
32-11,34561177,25722
32-12,34565083,24908
32-13,34568989,3669
32-14,34572895,-25725
32-15,34576801,-32040
32-16,34580707,-31639
32-17,34584613,-12585
32-18,34588519,16311
32-19,34592425,30158
32-20,34596331,22488
32-21,34600237,-3648
32-22,34604143,-31905
32-23,34608049,-31507
32-24,34611955,-31113
32-25,34615861,-4318
32-26,34619767,22571
32-27,34623673,32767
32-28,34627579,22726
32-29,34631485,-4364
32-30,34635391,-30873
32-31,34639297,-31453
32-32,34643203,-28153
32-1,34647115,665
32-2,34651021,27237
32-3,34654927,32767
32-4,34658833,20161
