32-1,41767311,32195
32-2,41771217,20813
32-3,41775123,-4383
32-4,41779029,-26721
32-5,41782935,-30999
32-6,41786841,-12786
32-7,41790747,14150
32-8,41794653,28568
32-9,41798559,20251
32-10,41802465,-6374
32-11,41806371,-32768
32-12,41810277,-32668
32-13,41814183,-28454
32-14,41818089,-261
32-15,41821995,25962
32-16,41825901,32767
32-17,41829807,20344
32-18,41833713,-9383
32-19,41837619,-32768
32-20,41841525,-32359
32-21,41845431,-21254
32-22,41849337,10108
32-23,41853243,32470
32-24,41857149,30353
32-25,41861055,7697
32-26,41864961,-19451
32-27,41868867,-29479
32-28,41872773,-17110
32-29,41876679,6136
32-30,41880585,27101
32-31,41884491,32767
32-32,41888397,32358
32-1,41892308,16185
32-2,41896214,-9074
32-3,41900120,-27815
32-4,41904026,-25708
32-5,41907932,-3698
32-6,41911838,19692
32-7,41915744,25267
32-8,41919650,8196
32-9,41923556,-20934
32-10,41927462,-32768
32-11,41931368,-32359
32-12,41935274,-20394
32-13,41939180,9043
32-14,41943086,31855
32-15,41946992,32767
32-16,41950898,18848
32-17,41954804,-12759
32-18,41958710,-32768
32-19,41962616,-32359
32-20,41966522,-13852
32-21,41970428,17101
32-22,41974334,32767
32-23,41978240,29288
32-24,41982146,2316
32-25,41986052,-27051
32-26,41989958,-32768
32-27,41993864,-24120
32-28,41997770,3635
32-29,42001676,29509
32-30,42005582,32653
32-31,42009488,32245
32-32,42013394,8921
32-1,42017367,-17651
32-2,42021273,-31102
32-3,42025179,-24145
32-4,42029085,1601
32-5,42032991,27768
32-6,42036897,32272
32-7,42040803,22436
32-8,42044709,-8231
32-9,42048615,-32382
32-10,42052521,-32688
32-11,42056427,-12682
32-12,42060333,10299
32-13,42064239,16732
32-14,42068145,2184
32-15,42072051,-22573
32-16,42075957,-32551
32-17,42079863,-32144
32-18,42083769,-24437
32-19,42087675,-1344
32-20,42091581,21480
32-21,42095487,32767
32-22,42099393,32358
32-23,42103299,27188
32-24,42107205,2389
32-25,42111111,-16474
32-26,42115017,-17924
32-27,42118923,240
32-28,42122829,22320
32-29,42126735,28900
32-30,42130641,13027
32-31,42134547,-16136
32-32,42138453,-32768
32-1,42142304,-32359
32-2,42146210,-16870
32-3,42150116,10819
32-4,42154022,32767
32-5,42157928,32453
32-6,42161834,26770
32-7,42165740,29
32-8,42169646,-22631
32-9,42173552,-26063
32-10,42177458,-7877
32-11,42181364,17530
32-12,42185270,28687
32-13,42189176,16452
32-14,42193082,-12414
32-15,42196988,-32768
32-16,42200894,-32359
32-17,42204800,-24788
32-18,42208706,4467
32-19,42212612,29525
32-20,42216518,32767
32-21,42220424,21032
32-22,42224330,-9800
32-23,42228236,-32768
32-24,42232142,-32359
32-25,42236048,-18599
32-26,42239954,9530
32-27,42243860,32767
32-28,42247766,32682
32-29,42251672,30241
32-30,42255578,3869
32-31,42259484,-20236
32-32,42263390,-26949
32-1,42267301,-12954
32-2,42271207,13057
32-3,42275113,32433
32-4,42279019,32027
32-5,42282925,14874
32-6,42286831,-12507
32-7,42290737,-28675
32-8,42294643,-23082
32-9,42298549,-359
32-10,42302455,20810
32-11,42306361,22963
32-12,42310267,3151
32-13,42314173,-25394
32-14,42318079,-32768
32-15,42321985,-32359
32-16,42325891,-16327
32-17,42329797,12857
32-18,42333703,32767
32-19,42337609,32662
32-20,42341515,11823
32-21,42345421,-19589
32-22,42349327,-32768
32-23,42353233,-32359
32-24,42357139,-10178
32-25,42361045,17249
32-26,42364951,32767
32-27,42368857,32358
32-28,42372763,24819
32-29,42376669,6236
32-30,42380575,-7382
32-31,42384481,-11046
32-32,42388387,-1406
32-1,42392299,15191
32-2,42396205,24188
32-3,42400111,17176
32-4,42404017,-6463
32-5,42407923,-31009
32-6,42411829,-32768
32-7,42415735,-19279
32-8,42419641,8717
32-9,42423547,28004
32-10,42427453,24367
32-11,42431359,394
32-12,42435265,-28192
32-13,42439171,-32536
32-14,42443077,-32130
32-15,42446983,-8422
32-16,42450889,20351
32-17,42454795,32767
32-18,42458701,29242
32-19,42462607,3298
32-20,42466513,-26618
32-21,42470419,-32768
32-22,42474325,-28417
32-23,42478231,470
32-24,42482137,25748
32-25,42486043,30759
32-26,42489949,17070
32-27,42493855,-2357
32-28,42497761,-11198
32-29,42501667,-4202
32-30,42505573,9148
32-31,42509479,21641
32-32,42513385,27380
32-1,42517327,25678
32-2,42521233,13861
32-3,42525139,-9140
32-4,42529045,-29094
32-5,42532951,-31720
32-6,42536857,-13049
32-7,42540763,13807
32-8,42544669,28012
32-9,42548575,19263
32-10,42552481,-7460
32-11,42556387,-32768
32-12,42560293,-32359
32-13,42564199,-27506
32-14,42568105,1326
32-15,42572011,25794
32-16,42575917,30579
32-17,42579823,13347
32-18,42583729,-16623
32-19,42587635,-32293
32-20,42591541,-31890
32-21,42595447,-20706
32-22,42599353,8650
32-23,42603259,32767
32-24,42607165,32767
32-25,42611071,24715
32-26,42614977,-347
32-27,42618883,-16412
32-28,42622789,-12887
32-29,42626695,4104
32-30,42630601,23055
32-31,42634507,31758
32-32,42638413,25944
32-1,42642416,8180
32-2,42646322,-14927
32-3,42650228,-30763
32-4,42654134,-27286
32-5,42658040,-4903
32-6,42661946,20073
32-7,42665852,28676
32-8,42669758,13941
32-9,42673664,-15460
32-10,42677570,-32768
32-11,42681476,-32359
32-12,42685382,-21098
32-13,42689288,9077
32-14,42693194,30156
32-15,42697100,30187
32-16,42701006,8683
32-17,42704912,-22163
32-18,42708818,-32393
32-19,42712724,-31988
32-20,42716630,-11738
32-21,42720536,18417
32-22,42724442,32767
32-23,42728348,27092
32-24,42732254,-810
32-25,42736160,-29761
32-26,42740066,-32726
32-27,42743972,-22494
32-28,42747878,5143
32-29,42751784,29170
32-30,42755690,32659
32-31,42759596,32251
32-32,42763502,20083
32-1,42767292,-4772
32-2,42771198,-21309
32-3,42775104,-18601
32-4,42779010,2370
32-5,42782916,21400
32-6,42786822,21100
32-7,42790728,-336
32-8,42794634,-28874
32-9,42798540,-32768
32-10,42802446,-32359
32-11,42806352,-13096
32-12,42810258,16117
32-13,42814164,32767
32-14,42818070,32358
32-15,42821976,9029
32-16,42825882,-22504
32-17,42829788,-32768
32-18,42833694,-32359
32-19,42837600,-5756
32-20,42841506,23990
32-21,42845412,32767
32-22,42849318,25499
32-23,42853224,-3457
32-24,42857130,-31384
32-25,42861036,-32653
32-26,42864942,-25583
32-27,42868848,3048
32-28,42872754,29961
32-29,42876660,32767
32-30,42880566,29324
32-31,42884472,773
32-32,42888378,-26149
32-1,42892289,-32768
32-2,42896195,-19239
32-3,42900101,9077
32-4,42904007,32767
32-5,42907913,32358
32-6,42911819,24311
32-7,42915725,-3479
32-8,42919631,-25851
32-9,42923537,-27946
32-10,42927443,-8179
32-11,42931349,18079
32-12,42935255,29417
32-13,42939161,16929
32-14,42943067,-12240
32-15,42946973,-32768
32-16,42950879,-32359
32-17,42954785,-24541
32-18,42958691,5281
32-19,42962597,29667
32-20,42966503,32767
32-21,42970409,17445
32-22,42974315,-13893
32-23,42978221,-32768
32-24,42982127,-32359
32-25,42986033,-17600
32-26,42989939,10202
32-27,42993845,32657
32-28,42997751,32767
32-29,43001657,31411
32-30,43005563,6228
32-31,43009469,-17756
32-32,43013375,-25756
32-1,43017287,-12748
32-2,43021193,13441
32-3,43025099,32420
32-4,43029005,32015
32-5,43032911,13825
32-6,43036817,-14962
32-7,43040723,-31419
32-8,43044629,-25200
32-9,43048535,-547
32-10,43052441,23164
32-11,43056347,27560
32-12,43060253,8516
32-13,43064159,-22787
32-14,43068065,-32768
32-15,43071971,-32359
32-16,43075877,-12176
32-17,43079783,6519
32-18,43083689,7795
32-19,43087595,-7014
32-20,43091501,-27164
32-21,43095407,-31556
32-22,43099313,-31161
32-23,43103219,-22163
32-24,43107125,-364
32-25,43111031,21627
32-26,43114937,32767
32-27,43118843,32358
32-28,43122749,31953
32-29,43126655,23462
32-30,43130561,15747
32-31,43134467,8592
32-32,43138373,5672
32-1,43142285,8622
32-2,43146191,12903
32-3,43150097,10712
32-4,43154003,-4425
32-5,43157909,-24142
32-6,43161815,-32441
32-7,43165721,-20160
32-8,43169627,5993
32-9,43173533,25351
32-10,43177439,23533
32-11,43181345,1287
32-12,43185251,-26874
32-13,43189157,-32768
32-14,43193063,-32359
32-15,43196969,-9517
32-16,43200875,19146
32-17,43204781,32767
32-18,43208687,29557
32-19,43212593,4230
32-20,43216499,-25855
32-21,43220405,-32768
32-22,43224311,-27310
32-23,43228217,1397
32-24,43232123,24760
32-25,43236029,25780
32-26,43239935,7370
32-27,43243841,-14350
32-28,43247747,-22426
32-29,43251653,-12606
32-30,43255559,4946
32-31,43259465,21352
32-32,43263371,30943
32-1,43267648,32266
32-2,43271554,23157
32-3,43275460,-239
32-4,43279366,-22140
32-5,43283272,-27563
32-6,43287178,-11493
32-7,43291084,12966
32-8,43294990,25341
32-9,43298896,15905
32-10,43302802,-10531
32-11,43306708,-32768
32-12,43310614,-32359
32-13,43314520,-27758
32-14,43318426,-314
32-15,43322332,26191
32-16,43326238,32767
32-17,43330144,25535
32-18,43334050,-3266
32-19,43337956,-30864
32-20,43341862,-32662
32-21,43345768,-22543
32-22,43349674,8505
32-23,43353580,31835
32-24,43357486,30339
32-25,43361392,7896
32-26,43365298,-19081
32-27,43369204,-29121
32-28,43373110,-16556
32-29,43377016,6645
32-30,43380922,26774
32-31,43384828,32559
32-32,43388734,30242
32-1,43392280,14174
32-2,43396186,-9218
32-3,43400092,-27061
32-4,43403998,-26358
32-5,43407904,-5459
32-6,43411810,19769
32-7,43415716,29719
32-8,43419622,16326
32-9,43423528,-13217
32-10,43427434,-32768
32-11,43431340,-32359
32-12,43435246,-22711
32-13,43439152,7233
32-14,43443058,31088
32-15,43446964,32767
32-16,43450870,17965
32-17,43454776,-13284
32-18,43458682,-32768
32-19,43462588,-32359
32-20,43466494,-14498
32-21,43470400,16257
32-22,43474306,32767
32-23,43478212,29606
32-24,43482118,3079
32-25,43486024,-26438
32-26,43489930,-32768
32-27,43493836,-24151
32-28,43497742,3823
32-29,43501648,29862
32-30,43505554,32647
32-31,43509460,30815
32-32,43513366,5708
32-1,43517277,-21092
32-2,43521183,-32768
32-3,43525089,-25033
32-4,43528995,1873
32-5,43532901,28108
32-6,43536807,32704
32-7,43540713,20810
32-8,43544619,-9299
32-9,43548525,-32768
32-10,43552431,-32359
32-11,43556337,-16371
32-12,43560243,13892
32-13,43564149,32767
32-14,43568055,28966
32-15,43571961,3997
32-16,43575867,-26487
32-17,43579773,-32757
32-18,43583679,-32306
32-19,43587585,-4321
32-20,43591491,23661
32-21,43595397,32767
32-22,43599303,19310
32-23,43603209,-10327
32-24,43607115,-32768
32-25,43611021,-32359
32-26,43614927,-24800
32-27,43618833,4166
32-28,43622739,30275
32-29,43626645,32767
32-30,43630551,28565
32-31,43634457,-922
32-32,43638363,-27933
32-1,43642275,-32766
32-2,43646181,-19896
32-3,43650087,8672
32-4,43653993,32767
32-5,43657899,32358
32-6,43661805,28238
32-7,43665711,1280
32-8,43669617,-22388
32-9,43673523,-26830
32-10,43677429,-9000
32-11,43681335,16914
32-12,43685241,28885
32-13,43689147,17136
32-14,43693053,-11653
32-15,43696959,-32768
32-16,43700865,-32359
32-17,43704771,-25169
32-18,43708677,4409
32-19,43712583,28969
32-20,43716489,32767
32-21,43720395,17331
32-22,43724301,-13781
32-23,43728207,-32768
32-24,43732113,-32359
32-25,43736019,-18296
32-26,43739925,9473
32-27,43743831,32259
32-28,43747737,32767
32-29,43751643,31698
32-30,43755549,6458
32-31,43759455,-17780
32-32,43763361,-25971
32-1,43767273,-13103
32-2,43771179,13179
32-3,43775085,32425
32-4,43778991,32019
32-5,43782897,14986
32-6,43786803,-14180
32-7,43790709,-30815
32-8,43794615,-24189
32-9,43798521,-291
32-10,43802427,20896
32-11,43806333,21954
32-12,43810239,1305
32-13,43814145,-26988
32-14,43818051,-32768
32-15,43821957,-32359
32-16,43825863,-15911
32-17,43829769,13246
32-18,43833675,32767
32-19,43837581,32437
32-20,43841487,11754
32-21,43845393,-19844
32-22,43849299,-32768
32-23,43853205,-32359
32-24,43857111,-10083
32-25,43861017,18157
32-26,43864923,32767
32-27,43868829,32358
32-28,43872735,22126
32-29,43876641,439
32-30,43880547,-14584
32-31,43884453,-16447
32-32,43888359,-2544
32-1,43892423,19490
32-2,43896329,31845
32-3,43900235,28719
32-4,43904141,4356
32-5,43908047,-23561
32-6,43911953,-32768
32-7,43915859,-19585
32-8,43919765,7282
32-9,43923671,27067
32-10,43927577,24868
32-11,43931483,1775
32-12,43935389,-27017
32-13,43939295,-32768
32-14,43943201,-32359
32-15,43947107,-8270
32-16,43951013,20237
32-17,43954919,32767
32-18,43958825,24918
32-19,43962731,-2512
32-20,43966637,-31019
32-21,43970543,-32662
32-22,43974449,-27568
32-23,43978355,1804
32-24,43982261,26293
32-25,43986167,31169
32-26,43990073,18616
32-27,43993979,163
32-28,43997885,-8654
32-29,44001791,-2431
32-30,44005697,9853
32-31,44009603,21384
32-32,44013509,26978
32-1,44017299,26754
32-2,44021205,17470
32-3,44025111,-3489
32-4,44029017,-22809
32-5,44032923,-26196
32-6,44036829,-10555
32-7,44040735,10836
32-8,44044641,19253
32-9,44048547,7251
32-10,44052453,-18383
32-11,44056359,-32768
32-12,44060265,-32359
32-13,44064171,-26127
32-14,44068077,918
32-15,44071983,26546
32-16,44075889,32767
32-17,44079795,26191
32-18,44083701,-2804
32-19,44087607,-30322
32-20,44091513,-32683
32-21,44095419,-22764
32-22,44099325,8074
32-23,44103231,32621
32-24,44107137,32626
32-25,44111043,13094
32-26,44114949,-14236
32-27,44118855,-27050
32-28,44122761,-17662
32-29,44126667,4279
32-30,44130573,25642
32-31,44134479,32415
32-32,44138385,30435
32-1,44142266,12521
32-2,44146172,-12454
32-3,44150078,-30331
32-4,44153984,-27813
32-5,44157890,-4970
32-6,44161796,20726
32-7,44165702,29596
32-8,44169608,14838
32-9,44173514,-14996
32-10,44177420,-32768
32-11,44181326,-32359
32-12,44185232,-22445
32-13,44189138,7043
32-14,44193044,31465
32-15,44196950,32767
32-16,44200856,22592
32-17,44204762,-8517
32-18,44208668,-32768
32-19,44212574,-32359
32-20,44216480,-13509
32-21,44220386,15985
32-22,44224292,30905
32-23,44228198,19792
32-24,44232104,-9383
32-25,44236010,-32504
32-26,44239916,-32098
32-27,44243822,-21075
32-28,44247728,6315
32-29,44251634,29134
32-30,44255540,32767
32-31,44259446,32358
32-32,44263352,20572
32-1,44267263,-4311
32-2,44271169,-18521
32-3,44275075,-15849
32-4,44278981,-661
32-5,44282887,8903
32-6,44286793,1386
32-7,44290699,-18812
32-8,44294605,-32768
32-9,44298511,-32359
32-10,44302417,-30299
32-11,44306323,-9503
32-12,44310229,13693
32-13,44314135,32767
32-14,44318041,32475
32-15,44321947,32069
32-16,44325853,10774
32-17,44329759,-11059
32-18,44333665,-18174
32-19,44337571,-5327
32-20,44341477,16146
32-21,44345383,25608
32-22,44349289,13260
32-23,44353195,-14784
32-24,44357101,-32768
32-25,44361007,-32359
32-26,44364913,-23753
32-27,44368819,3217
32-28,44372725,28754
32-29,44376631,32767
32-30,44380537,32358
32-31,44384443,6123
32-32,44388349,-21556
32-1,44392261,-31683
32-2,44396167,-19581
32-3,44400073,7352
32-4,44403979,31266
32-5,44407885,32301
32-6,44411791,23717
32-7,44415697,-3335
32-8,44419603,-25110
32-9,44423509,-26976
32-10,44427415,-8024
32-11,44431321,16466
32-12,44435227,25963
32-13,44439133,12485
32-14,44443039,-16044
32-15,44446945,-32768
32-16,44450851,-32359
32-17,44454757,-24653
32-18,44458663,4141
32-19,44462569,29025
32-20,44466475,32767
32-21,44470381,22239
32-22,44474287,-8468
32-23,44478193,-32768
32-24,44482099,-32359
32-25,44486005,-19705
32-26,44489911,9007
32-27,44493817,32767
32-28,44497723,32693
32-29,44501629,27348
32-30,44505535,-475
32-31,44509441,-24532
32-32,44513347,-29964
32-1,44517259,-14122
32-2,44521165,13929
32-3,44525071,32629
32-4,44528977,32221
32-5,44532883,18913
32-6,44536789,-10105
32-7,44540695,-28723
32-8,44544601,-24843
32-9,44548507,-1650
32-10,44552413,22032
32-11,44556319,27008
32-12,44560225,8993
32-13,44564131,-20295
32-14,44568037,-32768
32-15,44571943,-32359
32-16,44575849,-16849
32-17,44579755,12763
32-18,44583661,31100
32-19,44587567,27767
32-20,44591473,3861
32-21,44595379,-26264
32-22,44599285,-32361
32-23,44603191,-31957
32-24,44607097,-9290
32-25,44611003,17469
32-26,44614909,32767
32-27,44618815,32358
32-28,44622721,29762
32-29,44626627,12973
32-30,44630533,-792
32-31,44634439,-7359
32-32,44638345,-2638
32-1,44642256,10422
32-2,44646162,20179
32-3,44650068,17464
32-4,44653974,-2071
32-5,44657880,-25756
32-6,44661786,-32768
32-7,44665692,-18953
32-8,44669598,6506
32-9,44673504,23192
32-10,44677410,17814
32-11,44681316,-5932
32-12,44685222,-32102
32-13,44689128,-32653
32-14,44693034,-32245
32-15,44696940,-8483
32-16,44700846,19540
32-17,44704752,32767
32-18,44708658,29227
32-19,44712564,3468
32-20,44716470,-26463
32-21,44720376,-32768
32-22,44724282,-28553
32-23,44728188,153
32-24,44732094,25514
32-25,44736000,31163
32-26,44739906,17298
32-27,44743812,-1618
32-28,44747718,-7600
32-29,44751624,666
32-30,44755530,8180
32-31,44759436,4210
32-32,44763342,-10887
32-1,44767284,-25291
32-2,44771190,-32529
32-3,44775096,-32122
32-4,44779002,-31721
32-5,44782908,-24566
32-6,44786814,-4908
32-7,44790720,18776
32-8,44794626,32767
32-9,44798532,32358
32-10,44802438,31953
32-11,44806344,23063
32-12,44810250,17448
32-13,44814156,14391
32-14,44818062,11403
32-15,44821968,5586
32-16,44825874,-4564
32-17,44829780,-17902
32-18,44833686,-32361
32-19,44837592,-32768
32-20,44841498,-32359
32-21,44845404,-18701
32-22,44849310,7362
32-23,44853216,30440
32-24,44857122,32767
32-25,44861028,28267
32-26,44864934,8573
32-27,44868840,-4485
32-28,44872746,-3264
32-29,44876652,6620
32-30,44880558,17050
32-31,44884464,21368
32-32,44888370,18203
32-1,44892251,7240
32-2,44896157,-9098
32-3,44900063,-22292
32-4,44903969,-21854
32-5,44907875,-4617
32-6,44911781,16839
32-7,44915687,25144
32-8,44919593,12670
32-9,44923499,-14777
32-10,44927405,-32768
32-11,44931311,-32359
32-12,44935217,-22086
32-13,44939123,7277
32-14,44943029,30539
32-15,44946935,32767
32-16,44950841,15392
32-17,44954747,-15622
32-18,44958653,-32767
32-19,44962559,-32357
32-20,44966465,-14008
32-21,44970371,16418
32-22,44974277,32767
32-23,44978183,29700
32-24,44982089,3503
32-25,44985995,-25938
32-26,44989901,-32768
32-27,44993807,-24075
32-28,44997713,3291
32-29,45001619,28994
32-30,45005525,32663
32-31,45009431,32255
32-32,45013337,10106
32-1,45017249,-16166
32-2,45021155,-30126
32-3,45025061,-23971
32-4,45028967,1039
32-5,45032873,26648
32-6,45036779,32255
32-7,45040685,20599
32-8,45044591,-8868
32-9,45048497,-32751
32-10,45052403,-32768
32-11,45056309,-15873
32-12,45060215,13569
32-13,45064121,31291
32-14,45068027,25789
32-15,45071933,-189
32-16,45075839,-29459
32-17,45079745,-32675
32-18,45083651,-32124
32-19,45087557,-5136
32-20,45091463,23663
32-21,45095369,32767
32-22,45099275,28917
32-23,45103181,1187
32-24,45107087,-27988
32-25,45110993,-32768
32-26,45114899,-26672
32-27,45118805,1816
32-28,45122711,29484
32-29,45126617,32708
32-30,45130523,27792
32-31,45134429,-1458
32-32,45138335,-28252
32-1,45142247,-32768
32-2,45146153,-19590
32-3,45150059,8527
32-4,45153965,32308
32-5,45157871,32500
32-6,45161777,26747
32-7,45165683,372
32-8,45169589,-22268
32-9,45173495,-25698
32-10,45177401,-7924
32-11,45181307,16422
32-12,45185213,26353
32-13,45189119,13260
32-14,45193025,-15316
32-15,45196931,-32768
32-16,45200837,-32359
32-17,45204743,-24704
32-18,45208649,4208
32-19,45212555,28997
32-20,45216461,32767
32-21,45220367,21385
32-22,45224273,-9371
32-23,45228179,-32768
32-24,45232085,-32359
32-25,45235991,-19773
32-26,45239897,8889
32-27,45243803,32767
32-28,45247709,32358
32-29,45251615,29588
32-30,45255521,1602
32-31,45259427,-23656
32-32,45263333,-30395
32-1,45267244,-14772
32-2,45271150,13974
32-3,45275056,32246
32-4,45278962,31842
32-5,45282868,12664
32-6,45286774,-17407
32-7,45290680,-32768
32-8,45294586,-26173
32-9,45298492,-285
32-10,45302398,24097
32-11,45306304,28275
32-12,45310210,9192
32-13,45314116,-20476
32-14,45318022,-32544
32-15,45321928,-32138
32-16,45325834,-17458
32-17,45329740,12321
32-18,45333646,32767
32-19,45337552,32614
32-20,45341458,13340
32-21,45345364,-18075
32-22,45349270,-32768
32-23,45353176,-32359
32-24,45357082,-11083
32-25,45360988,16404
32-26,45364894,32767
32-27,45368800,32456
32-28,45372706,26246
32-29,45376612,8232
32-30,45380518,-5683
32-31,45384424,-10440
32-32,45388330,-2337
32-1,45392242,14152
32-2,45396148,25260
32-3,45400054,21387
32-4,45403960,-312
32-5,45407866,-25636
32-6,45411772,-32768
32-7,45415678,-19728
32-8,45419584,6759
32-9,45423490,26779
32-10,45427396,25033
32-11,45431302,2525
32-12,45435208,-26139
32-13,45439114,-32551
32-14,45443020,-32144
32-15,45446926,-8182
32-16,45450832,19833
32-17,45454738,32022
32-18,45458644,21429
32-19,45462550,-6574
32-20,45466456,-32476
32-21,45470362,-32070
32-22,45474268,-26903
32-23,45478174,2918
32-24,45482080,26628
32-25,45485986,30357
32-26,45489892,16043
32-27,45493798,-4468
32-28,45497704,-14673
32-29,45501610,-8461
32-30,45505516,6003
32-31,45509422,21535
32-32,45513328,31185
32-1,45517240,32451
32-2,45521146,21979
32-3,45525052,-2534
32-4,45528958,-25039
32-5,45532864,-29402
32-6,45536770,-11822
32-7,45540676,13179
32-8,45544582,24680
32-9,45548488,13999
32-10,45552394,-12753
32-11,45556300,-32768
32-12,45560206,-32359
32-13,45564112,-27775
32-14,45568018,-2303
32-15,45571924,24248
32-16,45575830,32767
32-17,45579736,32358
32-18,45583642,11247
32-19,45587548,-19016
32-20,45591454,-32768
32-21,45595360,-22945
32-22,45599266,5480
32-23,45603172,28773
32-24,45607078,26802
32-25,45610984,3018
32-26,45614890,-23389
32-27,45618796,-31520
32-28,45622702,-17358
32-29,45626608,6392
32-30,45630514,26036
32-31,45634420,32748
32-32,45638326,32059
32-1,45642237,18065
32-2,45646143,-4515
32-3,45650049,-22598
32-4,45653955,-22725
32-5,45657861,-4199
32-6,45661767,16918
32-7,45665673,22317
32-8,45669579,6396
32-9,45673485,-21527
32-10,45677391,-32768
32-11,45681297,-32359
32-12,45685203,-20659
32-13,45689109,8820
32-14,45693015,30465
32-15,45696921,32725
32-16,45700827,12617
32-17,45704733,-18929
32-18,45708639,-32520
32-19,45712545,-32114
32-20,45716451,-12968
32-21,45720357,17897
32-22,45724263,32767
32-23,45728169,28611
32-24,45732075,1087
32-25,45735981,-29866
32-26,45739887,-32768
32-27,45743793,-20201
32-28,45747699,9911
32-29,45751605,27433
32-30,45755511,19745
32-31,45759417,-4831
32-32,45763323,-31335
32-1,45767235,-32369
32-2,45771141,-31965
32-3,45775047,-16614
32-4,45778953,7763
32-5,45782859,27250
32-6,45786765,32767
32-7,45790671,32358
32-8,45794577,30624
32-9,45798483,22471
32-10,45802389,15561
32-11,45806295,11067
32-12,45810201,9717
32-13,45814107,7413
32-14,45818013,-323
32-15,45821919,-16267
32-16,45825825,-32768
32-17,45829731,-32527
32-18,45833637,-30335
32-19,45837543,-4969
32-20,45841449,22840
32-21,45845355,32767
32-22,45849261,29710
32-23,45853167,2480
32-24,45857073,-26727
32-25,45860979,-32768
32-26,45864885,-26335
32-27,45868791,1312
32-28,45872697,28948
32-29,45876603,32717
32-30,45880509,30422
32-31,45884415,2642
32-32,45888321,-24494
32-1,45892232,-32768
32-2,45896138,-19387
32-3,45900044,8000
32-4,45903950,31950
32-5,45907856,32509
32-6,45911762,25825
32-7,45915668,-748
32-8,45919574,-22955
32-9,45923480,-26271
32-10,45927386,-8336
32-11,45931292,16836
32-12,45935198,28322
32-13,45939104,16771
32-14,45943010,-11599
32-15,45946916,-32768
32-16,45950822,-32359
32-17,45954728,-25090
32-18,45958634,4204
32-19,45962540,28823
32-20,45966446,32767
32-21,45970352,17673
32-22,45974258,-13295
32-23,45978164,-32768
32-24,45982070,-32359
32-25,45985976,-18803
32-26,45989882,9693
32-27,45993788,32767
32-28,45997694,32396
32-29,46001600,29560
32-30,46005506,1982
32-31,46009412,-22862
32-32,46013318,-29632
32-1,46017230,-14702
32-2,46021136,13280
32-3,46025042,32268
32-4,46028948,31864
32-5,46032854,18702
32-6,46036760,-10358
32-7,46040666,-28891
32-8,46044572,-25074
32-9,46048478,-1960
32-10,46052384,21769
32-11,46056290,26972
32-12,46060196,9271
32-13,46064102,-19961
32-14,46068008,-32768
32-15,46071914,-32359
32-16,46075820,-17915
32-17,46079726,11623
32-18,46083632,32597
32-19,46087538,32767
32-20,46091444,12624
32-21,46095350,-18576
32-22,46099256,-32695
32-23,46103162,-32286
32-24,46107068,-10334
32-25,46110974,16600
32-26,46114880,31937
32-27,46118786,32765
32-28,46122692,23005
32-29,46126598,5315
32-30,46130504,-7378
32-31,46134410,-10559
32-32,46138316,-1451
32-1,46142228,15389
32-2,46146134,27196
32-3,46150040,24326
32-4,46153946,3329
32-5,46157852,-22003
32-6,46161758,-31074
32-7,46165664,-18938
32-8,46169570,5706
32-9,46173476,23479
32-10,46177382,19968
32-11,46181288,-3022
32-12,46185194,-30194
32-13,46189100,-32768
32-14,46193006,-32359
32-15,46196912,-9409
32-16,46200818,18944
32-17,46204724,32767
32-18,46208630,30460
32-19,46212536,5527
32-20,46216442,-24631
32-21,46220348,-32768
32-22,46224254,-28819
32-23,46228160,-672
32-24,46232066,24782
32-25,46235972,30591
32-26,46239878,16830
32-27,46243784,-1534
32-28,46247690,-7375
32-29,46251596,24
32-30,46255502,6126
32-31,46259408,1074
32-32,46263314,-13577
32-1,46267347,-26409
32-2,46271253,-32377
32-3,46275159,-31972
32-4,46279065,-31573
32-5,46282971,-24228
32-6,46286877,-4336
32-7,46290783,19299
32-8,46294689,32767
32-9,46298595,32358
32-10,46302501,31953
32-11,46306407,23512
32-12,46310313,16867
32-13,46314219,12329
32-14,46318125,10442
32-15,46322031,9290
32-16,46325937,4854
32-17,46329843,-5619
32-18,46333749,-22477
32-19,46337655,-32768
32-20,46341561,-32359
32-21,46345467,-20795
32-22,46349373,8409
32-23,46353279,30868
32-24,46357185,31121
32-25,46361091,10112
32-26,46364997,-17364
32-27,46368903,-29363
32-28,46372809,-18610
32-29,46376715,4040
32-30,46380621,24682
32-31,46384527,32767
32-32,46388433,31810
32-1,46392223,18688
32-2,46396129,-2614
32-3,46400035,-20339
32-4,46403941,-22045
32-5,46407847,-4755
32-6,46411753,18145
32-7,46415659,27623
32-8,46419565,15181
32-9,46423471,-13223
32-10,46427377,-32768
32-11,46431283,-32359
32-12,46435189,-22955
32-13,46439095,6604
32-14,46443001,30220
32-15,46446907,32767
32-16,46450813,16006
32-17,46454719,-15159
32-18,46458625,-32768
32-19,46462531,-32359
32-20,46466437,-15028
32-21,46470343,15704
32-22,46474249,32767
32-23,46478155,30501
32-24,46482061,4506
32-25,46485967,-25417
32-26,46489873,-32768
32-27,46493779,-24292
32-28,46497685,3462
32-29,46501591,29688
32-30,46505497,32656
32-31,46509403,31654
32-32,46513309,7061
32-1,46517221,-19833
32-2,46521127,-32768
32-3,46525033,-25484
32-4,46528939,-30
32-5,46532845,26490
32-6,46536751,32564
32-7,46540657,27264
32-8,46544563,410
32-9,46548469,-24982
32-10,46552375,-32239
32-11,46556281,-16463
32-12,46560187,11264
32-13,46564093,29347
32-14,46567999,24673
32-15,46571905,-753
32-16,46575811,-29826
32-17,46579717,-32768
32-18,46583623,-32359
32-19,46587529,-5474
32-20,46591435,22921
32-21,46595341,32767
32-22,46599247,25497
32-23,46603153,-3031
32-24,46607059,-31241
32-25,46610965,-32660
32-26,46614871,-26654
32-27,46618777,1777
32-28,46622683,29111
32-29,46626589,32767
32-30,46630495,29742
32-31,46634401,1220
32-32,46638307,-26223
32-1,46642218,-32768
32-2,46646124,-20165
32-3,46650030,8052
32-4,46653936,32696
32-5,46657842,32509
32-6,46661748,26270
32-7,46665654,-1588
32-8,46669560,-24829
32-9,46673466,-27262
32-10,46677372,-8193
32-11,46681278,16286
32-12,46685184,25023
32-13,46689090,10594
32-14,46692996,-17920
32-15,46696902,-32768
32-16,46700808,-32359
32-17,46704714,-24192
32-18,46708620,4646
32-19,46712526,29095
32-20,46716432,32767
32-21,46720338,21400
32-22,46724244,-9532
32-23,46728150,-32768
32-24,46732056,-32359
32-25,46735962,-19094
32-26,46739868,8935
32-27,46743774,32327
32-28,46747680,32767
32-29,46751586,31300
32-30,46755492,6025
32-31,46759398,-17897
32-32,46763304,-25726
32-1,46767216,-13180
32-2,46771122,12269
32-3,46775028,32446
32-4,46778934,32041
32-5,46782840,16969
32-6,46786746,-10647
32-7,46790652,-27777
32-8,46794558,-23860
32-9,46798464,-1759
32-10,46802370,20864
32-11,46806276,25650
32-12,46810182,8085
32-13,46814088,-20628
32-14,46817994,-32768
32-15,46821900,-32359
32-16,46825806,-17300
32-17,46829712,12190
32-18,46833618,31971
32-19,46837524,30778
32-20,46841430,8302
32-21,46845336,-22569
32-22,46849242,-32499
32-23,46853148,-32093
32-24,46857054,-9539
32-25,46860960,17277
32-26,46864866,32767
32-27,46868772,32767
32-28,46872678,25690
32-29,46876584,7484
32-30,46880490,-6536
32-31,46884396,-10899
32-32,46888302,-1618
32-1,46892214,16181
32-2,46896120,28057
32-3,46900026,23909
32-4,46903932,1182
32-5,46907838,-24976
32-6,46911744,-32768
32-7,46915650,-19724
32-8,46919556,7013
32-9,46923462,27179
32-10,46927368,25536
32-11,46931274,2911
32-12,46935180,-26005
32-13,46939086,-32572
32-14,46942992,-32165
32-15,46946898,-9025
32-16,46950804,19672
32-17,46954710,32767
32-18,46958616,26294
32-19,46962522,-286
32-20,46966428,-29143
32-21,46970334,-32731
32-22,46974240,-28362
32-23,46978146,20
32-24,46982052,25164
32-25,46985958,32316
32-26,46989864,22435
32-27,46993770,5616
32-28,46997676,-4167
32-29,47001582,-1254
32-30,47005488,7777
32-31,47009394,17496
32-32,47013300,22336
32-1,47017211,21250
32-2,47021117,11198
32-3,47025023,-9324
32-4,47028929,-27553
32-5,47032835,-30199
32-6,47036741,-12663
32-7,47040647,13252
32-8,47044553,27334
32-9,47048459,19399
32-10,47052365,-7059
32-11,47056271,-32768
32-12,47060177,-32359
32-13,47064083,-28968
32-14,47067989,-1277
32-15,47071895,25905
32-16,47075801,32767
32-17,47079707,26022
32-18,47083613,-2833
32-19,47087519,-31319
32-20,47091425,-32668
32-21,47095331,-21799
32-22,47099237,9041
32-23,47103143,29602
32-24,47107049,23707
32-25,47110955,-1517
32-26,47114861,-26893
32-27,47118767,-32401
32-28,47122673,-16187
32-29,47126579,7939
32-30,47130485,27043
32-31,47134391,32767
32-32,47138297,32358
32-1,47142209,22577
32-2,47146115,-166
32-3,47150021,-20179
32-4,47153927,-22677
32-5,47157833,-4828
32-6,47161739,17762
32-7,47165645,25201
32-8,47169551,10408
32-9,47173457,-18343
32-10,47177363,-32768
32-11,47181269,-32359
32-12,47185175,-22191
32-13,47189081,7084
32-14,47192987,30762
32-15,47196893,32767
32-16,47200799,19763
32-17,47204705,-11540
32-18,47208611,-32768
32-19,47212517,-32359
32-20,47216423,-15607
32-21,47220329,15422
32-22,47224235,32767
32-23,47228141,30064
32-24,47232047,3601
32-25,47235953,-26223
32-26,47239859,-32768
32-27,47243765,-24254
32-28,47247671,3750
32-29,47251577,29956
32-30,47255483,32648
32-31,47259389,31463
32-32,47263295,6582
32-1,47267206,-20510
32-2,47271112,-32768
32-3,47275018,-25435
32-4,47278924,1218
32-5,47282830,27685
32-6,47286736,32723
32-7,47290642,21565
32-8,47294548,-8101
32-9,47298454,-32532
32-10,47302360,-32576
32-11,47306266,-17100
32-12,47310172,12943
32-13,47314078,32341
32-14,47317984,28782
32-15,47321890,3993
32-16,47325796,-26392
32-17,47329702,-32603
32-18,47333608,-32196
32-19,47337514,-4942
32-20,47341420,23254
32-21,47345326,32767
32-22,47349232,19768
32-23,47353138,-9831
32-24,47357044,-32768
32-25,47360950,-32359
32-26,47364856,-25537
32-27,47368762,3410
32-28,47372668,29855
32-29,47376574,32767
32-30,47380480,29016
32-31,47384386,-453
32-32,47388292,-27902
32-1,47392204,-32768
32-2,47396110,-20651
32-3,47400016,7826
32-4,47403922,32767
32-5,47407828,32399
32-6,47411734,29610
32-7,47415640,2802
32-8,47419546,-21544
32-9,47423452,-26898
32-10,47427358,-9793
32-11,47431264,16005
32-12,47435170,28381
32-13,47439076,17094
32-14,47442982,-11237
32-15,47446888,-32768
32-16,47450794,-32359
32-17,47454700,-25130
32-18,47458606,4524
32-19,47462512,27947
32-20,47466418,31147
32-21,47470324,12218
32-22,47474230,-18690
32-23,47478136,-32357
32-24,47482042,-31953
32-25,47485948,-17950
32-26,47489854,10061
32-27,47493760,32767
32-28,47497666,32767
32-29,47501572,31200
32-30,47505478,3708
32-31,47509384,-21680
32-32,47513290,-29323
32-1,47517202,-15097
32-2,47521108,12707
32-3,47525014,32586
32-4,47528920,32179
32-5,47532826,22187
32-6,47536732,-6171
32-7,47540638,-25660
32-8,47544544,-24338
32-9,47548450,-3274
32-10,47552356,20800
32-11,47556262,28350
32-12,47560168,13344
32-13,47564074,-15208
32-14,47567980,-32768
32-15,47571886,-32359
32-16,47575792,-18706
32-17,47579698,10779
32-18,47583604,31429
32-19,47587510,30795
32-20,47591416,8650
32-21,47595322,-22023
32-22,47599228,-32468
32-23,47603134,-32063
32-24,47607040,-10116
32-25,47610946,16742
32-26,47614852,32767
32-27,47618758,32767
32-28,47622664,26513
32-29,47626570,8271
32-30,47630476,-6036
32-31,47634382,-10754
32-32,47638288,-1962
32-1,47642199,15379
32-2,47646105,27121
32-3,47650011,23339
32-4,47653917,1122
32-5,47657823,-24753
32-6,47661729,-32768
32-7,47665635,-19074
32-8,47669541,6438
32-9,47673447,23736
32-10,47677353,19069
32-11,47681259,-4600
32-12,47685165,-31438
32-13,47689071,-32768
32-14,47692977,-32359
32-15,47696883,-8898
32-16,47700789,19291
32-17,47704695,32767
32-18,47708601,30312
32-19,47712507,5132
32-20,47716413,-24992
32-21,47720319,-32768
32-22,47724225,-28600
32-23,47728131,-334
32-24,47732037,25085
32-25,47735943,31183
32-26,47739849,18213
32-27,47743755,-35
32-28,47747661,-6134
32-29,47751567,1387
32-30,47755473,8165
32-31,47759379,4126
32-32,47763285,-10567
32-1,47767227,-24652
32-2,47771133,-32586
32-3,47775039,-32179
32-4,47778945,-31777
32-5,47782851,-25497
32-6,47786757,-6011
32-7,47790663,17869
32-8,47794569,32767
32-9,47798475,32358
32-10,47802381,31953
32-11,47806287,23295
32-12,47810193,16589
32-13,47814099,12371
32-14,47818005,10133
32-15,47821911,7703
32-16,47825817,1603
32-17,47829723,-9916
32-18,47833629,-26275
32-19,47837535,-32768
32-20,47841441,-32359
32-21,47845347,-20485
32-22,47849253,7610
32-23,47853159,31555
32-24,47857065,32767
32-25,47860971,20608
32-26,47864877,-5230
32-27,47868783,-19930
32-28,47872689,-13671
32-29,47876595,5065
32-30,47880501,23291
32-31,47884407,30409
32-32,47888313,24686
32-1,47892195,8977
32-2,47896101,-11924
32-3,47900007,-27191
32-4,47903913,-25299
32-5,47907819,-5132
32-6,47911725,18738
32-7,47915631,27594
32-8,47919537,13874
32-9,47923443,-14901
32-10,47927349,-32768
32-11,47931255,-32359
32-12,47935161,-22922
32-13,47939067,6417
32-14,47942973,30559
32-15,47946879,32767
32-16,47950785,19503
32-17,47954691,-11693
32-18,47958597,-32768
32-19,47962503,-32359
32-20,47966409,-13970
32-21,47970315,15919
32-22,47974221,31731
32-23,47978127,22068
32-24,47982033,-6615
32-25,47985939,-32571
32-26,47989845,-32164
32-27,47993751,-21648
32-28,47997657,5827
32-29,48001563,29012
32-30,48005469,32767
32-31,48009375,32358
32-32,48013281,21423
32-1,48017192,-3372
32-2,48021098,-20823
32-3,48025004,-19793
32-4,48028910,1096
32-5,48032816,22807
32-6,48036722,26498
32-7,48040628,7685
32-8,48044534,-21937
32-9,48048440,-32768
32-10,48052346,-32359
32-11,48056252,-15413
32-12,48060158,14234
32-13,48064064,32767
32-14,48067970,32358
32-15,48071876,10256
32-16,48075782,-20830
32-17,48079688,-32768
32-18,48083594,-32359
32-19,48087500,-7365
32-20,48091406,22430
32-21,48095312,32767
32-22,48099218,25460
32-23,48103124,-3221
32-24,48107030,-31398
32-25,48110936,-32655
32-26,48114842,-26819
32-27,48118748,2269
32-28,48122654,29505
32-29,48126560,32767
32-30,48130466,26466
32-31,48134372,-3525
32-32,48138278,-30176
32-1,48142251,-32679
32-2,48146157,-20218
32-3,48150063,8438
32-4,48153969,32767
32-5,48157875,32364
32-6,48161781,28696
32-7,48165687,1459
32-8,48169593,-22780
32-9,48173499,-27192
32-10,48177405,-9383
32-11,48181311,15833
32-12,48185217,26514
32-13,48189123,13650
32-14,48193029,-14853
32-15,48196935,-32768
32-16,48200841,-32359
32-17,48204747,-25235
32-18,48208653,3493
32-19,48212559,28540
32-20,48216465,32767
32-21,48220371,21985
32-22,48224277,-8478
32-23,48228183,-32768
32-24,48232089,-32359
32-25,48235995,-20526
32-26,48239901,8242
32-27,48243807,32767
32-28,48247713,32767
32-29,48251619,28930
32-30,48255525,714
32-31,48259431,-24292
32-32,48263337,-30626
32-1,48267187,-15156
32-2,48271093,13329
32-3,48274999,32694
32-4,48278905,32285
32-5,48282811,19154
32-6,48286717,-10294
32-7,48290623,-29253
32-8,48294529,-25540
32-9,48298435,-2429
32-10,48302341,21708
32-11,48306247,27267
32-12,48310153,10142
32-13,48314059,-19278
32-14,48317965,-32768
32-15,48321871,-32359
32-16,48325777,-14774
32-17,48329683,11703
32-18,48333589,23082
32-19,48337495,12496
32-20,48341401,-12687
32-21,48345307,-32204
32-22,48349213,-31802
32-23,48353119,-29543
32-24,48357025,-5750
32-25,48360931,17896
32-26,48364837,32767
32-27,48368743,32404
32-28,48372649,31998
32-29,48376555,17657
32-30,48380461,4490
32-31,48384367,-3198
32-32,48388273,-867
32-1,48392185,9909
32-2,48396091,19461
32-3,48399997,17394
32-4,48403903,785
32-5,48407809,-17539
32-6,48411715,-25198
32-7,48415621,-22602
32-8,48419527,-17044
32-9,48423433,-16501
32-10,48427339,-22363
32-11,48431245,-31486
32-12,48435151,-32446
32-13,48439057,-32041
32-14,48442963,-24847
32-15,48446869,-5173
32-16,48450775,17690
32-17,48454681,32767
32-18,48458587,32358
32-19,48462493,31953
32-20,48466399,16484
32-21,48470305,-792
32-22,48474211,-6631
32-23,48478117,2132
32-24,48482023,14088
32-25,48485929,14687
32-26,48489835,2406
32-27,48493741,-11910
32-28,48497647,-14825
32-29,48501553,-4777
32-30,48505459,7237
32-31,48509365,15154
32-32,48513271,18085
32-1,48517213,17886
32-2,48521119,10668
32-3,48525025,-6711
32-4,48528931,-23479
32-5,48532837,-27572
32-6,48536743,-13189
32-7,48540649,10308
32-8,48544555,24280
32-9,48548461,18108
32-10,48552367,-6370
32-11,48556273,-32768
32-12,48560179,-32768
32-13,48564085,-29666
32-14,48567991,-2417
32-15,48571897,24657
32-16,48575803,32767
32-17,48579709,22747
32-18,48583615,-6348
32-19,48587521,-32768
32-20,48591427,-32359
32-21,48595333,-22702
32-22,48599239,8124
32-23,48603145,31866
32-24,48607051,31974
32-25,48610957,10958
32-26,48614863,-16529
32-27,48618769,-28668
32-28,48622675,-17835
32-29,48626581,4782
32-30,48630487,25248
32-31,48634393,32767
32-32,48638299,30299
32-1,48642180,15405
32-2,48646086,-7059
32-3,48649992,-24760
32-4,48653898,-24769
32-5,48657804,-5263
32-6,48661710,18733
32-7,48665616,27925
32-8,48669522,14406
32-9,48673428,-14497
32-10,48677334,-32768
32-11,48681240,-32359
32-12,48685146,-22594
32-13,48689052,7162
32-14,48692958,30439
32-15,48696864,32767
32-16,48700770,15417
32-17,48704676,-15948
32-18,48708582,-32763
32-19,48712488,-32353
32-20,48716394,-14860
32-21,48720300,16012
32-22,48724206,32767
32-23,48728112,30476
32-24,48732018,4315
32-25,48735924,-25687
32-26,48739830,-32768
32-27,48743736,-23933
32-28,48747642,3092
32-29,48751548,28341
32-30,48755454,32673
32-31,48759360,32264
32-32,48763266,16819
32-1,48767300,-8814
32-2,48771206,-24792
32-3,48775112,-21090
32-4,48779018,1260
32-5,48782924,22295
32-6,48786830,24272
32-7,48790736,4428
32-8,48794642,-24557
32-9,48798548,-32768
32-10,48802454,-32359
32-11,48806360,-14384
32-12,48810266,15091
32-13,48814172,32767
32-14,48818078,30226
32-15,48821984,6186
32-16,48825890,-24632
32-17,48829796,-32768
32-18,48833702,-32359
32-19,48837608,-6202
32-20,48841514,23266
32-21,48845420,32767
32-22,48849326,25113
32-23,48853232,-3758
32-24,48857138,-31841
32-25,48861044,-32639
32-26,48864950,-26446
32-27,48868856,1661
32-28,48872762,28857
32-29,48876668,32767
32-30,48880574,31951
32-31,48884480,4606
32-32,48888386,-23274
32-1,48892176,-32768
32-2,48896082,-20282
32-3,48899988,7677
32-4,48903894,32475
32-5,48907800,32518
32-6,48911706,23414
32-7,48915612,-5421
32-8,48919518,-28203
32-9,48923424,-29777
32-10,48927330,-9352
32-11,48931236,17408
32-12,48935142,29026
32-13,48939048,16889
32-14,48942954,-11616
32-15,48946860,-32768
32-16,48950766,-32359
32-17,48954672,-25680
32-18,48958578,3285
32-19,48962484,28527
32-20,48966390,32767
32-21,48970296,20872
32-22,48974202,-9594
32-23,48978108,-32768
32-24,48982014,-32359
32-25,48985920,-19841
32-26,48989826,8241
32-27,48993732,32047
32-28,48997638,32767
32-29,49001544,30139
32-30,49005450,3805
32-31,49009356,-20619
32-32,49013262,-27969
32-1,49017173,-14366
32-2,49021079,12239
32-3,49024985,32565
32-4,49028891,32158
32-5,49032797,17665
32-6,49036703,-10735
32-7,49040609,-28446
32-8,49044515,-24185
32-9,49048421,-1901
32-10,49052327,19928
32-11,49056233,23155
32-12,49060139,4548
32-13,49064045,-23623
32-14,49067951,-32768
32-15,49071857,-32359
32-16,49075763,-17678
32-17,49079669,11333
32-18,49083575,32261
32-19,49087481,32767
32-20,49091387,13701
32-21,49095293,-17507
32-22,49099199,-32722
32-23,49103105,-32313
32-24,49107011,-11385
32-25,49110917,15916
32-26,49114823,32332
32-27,49118729,32755
32-28,49122635,25757
32-29,49126541,7898
32-30,49130447,-6072
32-31,49134353,-10598
32-32,49138259,-1522
32-1,49142171,15547
32-2,49146077,25583
32-3,49149983,19141
32-4,49153889,-4879
32-5,49157795,-30543
32-6,49161701,-32768
32-7,49165607,-20801
32-8,49169513,7378
32-9,49173419,27795
32-10,49177325,25774
32-11,49181231,2771
32-12,49185137,-26390
32-13,49189043,-32567
32-14,49192949,-32161
32-15,49196855,-10302
32-16,49200761,18898
32-17,49204667,32767
32-18,49208573,31390
32-19,49212479,6881
32-20,49216385,-23697
32-21,49220291,-32768
32-22,49224197,-29265
32-23,49228103,-1483
32-24,49232009,24200
32-25,49235915,30823
32-26,49239821,19074
32-27,49243727,689
32-28,49247633,-9401
32-29,49251539,-4795
32-30,49255445,6925
32-31,49259351,19113
32-32,49263257,25653
32-1,49267230,24921
32-2,49271136,14048
32-3,49275042,-7985
32-4,49278948,-27761
32-5,49282854,-31260
32-6,49286760,-13821
32-7,49290666,12683
32-8,49294572,27923
32-9,49298478,20505
32-10,49302384,-6010
32-11,49306290,-32768
32-12,49310196,-32433
32-13,49314102,-29347
32-14,49318008,-647
32-15,49321914,25247
32-16,49325820,32544
32-17,49329726,17434
32-18,49333632,-12564
32-19,49337538,-32438
32-20,49341444,-32033
32-21,49345350,-21378
32-22,49349256,10042
32-23,49353162,32171
32-24,49357068,30620
32-25,49360974,8533
32-26,49364880,-18988
32-27,49368786,-29730
32-28,49372692,-17813
32-29,49376598,5191
32-30,49380504,26137
32-31,49384410,32767
32-32,49388316,32358
32-1,49392319,21170
32-2,49396225,-2538
32-3,49400131,-22874
32-4,49404037,-25139
32-5,49407943,-6294
32-6,49411849,18299
32-7,49415755,28065
32-8,49419661,14829
32-9,49423567,-14188
32-10,49427473,-32768
32-11,49431379,-32359
32-12,49435285,-23169
32-13,49439191,6602
32-14,49443097,29999
32-15,49447003,32767
32-16,49450909,15431
32-17,49454815,-15821
32-18,49458721,-32765
32-19,49462627,-32355
32-20,49466533,-15514
32-21,49470439,15377
32-22,49474345,32767
32-23,49478251,30586
32-24,49482157,4451
32-25,49486063,-25608
32-26,49489969,-32768
32-27,49493875,-23272
32-28,49497781,3761
32-29,49501687,28554
32-30,49505593,32654
32-31,49509499,32245
32-32,49513405,18779
32-1,49517164,-6051
32-2,49521070,-20217
32-3,49524976,-17028
32-4,49528882,-602
32-5,49532788,10551
32-6,49536694,4229
32-7,49540600,-15885
32-8,49544506,-32768
32-9,49548412,-32359
32-10,49552318,-31955
32-11,49556224,-11949
32-12,49560130,11925
32-13,49564036,32403
32-14,49567942,32767
32-15,49571848,32358
32-16,49575754,8771
32-17,49579660,-13699
32-18,49583566,-20207
32-19,49587472,-6350
32-20,49591378,16002
32-21,49595284,25948
32-22,49599190,13783
32-23,49603096,-14292
32-24,49607002,-32768
32-25,49610908,-32359
32-26,49614814,-24527
32-27,49618720,2997
32-28,49622626,28811
32-29,49626532,32767
32-30,49630438,30355
32-31,49634344,2074
32-32,49638250,-25559
32-1,49642161,-32768
32-2,49646067,-20419
32-3,49649973,7603
32-4,49653879,32387
32-5,49657785,32522
32-6,49661691,26289
32-7,49665597,-1343
32-8,49669503,-24668
32-9,49673409,-28123
32-10,49677315,-9581
32-11,49681221,16508
32-12,49685127,28629
32-13,49689033,17275
32-14,49692939,-10926
32-15,49696845,-32768
32-16,49700751,-32359
32-17,49704657,-25323
32-18,49708563,3959
32-19,49712469,28291
32-20,49716375,32767
32-21,49720281,15847
32-22,49724187,-14961
32-23,49728093,-32768
32-24,49731999,-32359
32-25,49735905,-18555
32-26,49739811,9102
32-27,49743717,31768
32-28,49747623,32767
32-29,49751529,31435
32-30,49755435,6278
32-31,49759341,-18006
32-32,49763247,-26523
32-1,49767159,-14036
32-2,49771065,12281
32-3,49774971,32462
32-4,49778877,32056
32-5,49782783,15637
32-6,49786689,-13539
32-7,49790595,-30958
32-8,49794501,-25946
32-9,49798407,-2164
32-10,49802313,21947
32-11,49806219,27615
32-12,49810125,10420
32-13,49814031,-18647
32-14,49817937,-32768
32-15,49821843,-32359
32-16,49825749,-18479
32-17,49829655,10960
32-18,49833561,32321
32-19,49837467,32767
32-20,49841373,13551
32-21,49845279,-17617
32-22,49849185,-32719
32-23,49853091,-32310
32-24,49856997,-10537
32-25,49860903,15824
32-26,49864809,30123
32-27,49868715,30162
32-28,49872621,17289
32-29,49876527,-1577
32-30,49880433,-14698
32-31,49884339,-16154
32-32,49888245,-3121
32-1,49892157,18387
32-2,49896063,32395
32-3,49899969,31051
32-4,49903875,6664
32-5,49907781,-19470
32-6,49911687,-27015
32-7,49915593,-17382
32-8,49919499,-2995
32-9,49923405,1007
32-10,49927311,-9539
32-11,49931217,-27018
32-12,49935123,-32331
32-13,49939029,-31927
32-14,49942935,-25363
32-15,49946841,-5041
32-16,49950747,17555
32-17,49954653,32767
32-18,49958559,32358
32-19,49962465,31953
32-20,49966371,8933
32-21,49970277,-12662
32-22,49974183,-17458
32-23,49978089,-2954
32-24,49981995,15514
32-25,49985901,19213
32-26,49989807,5614
32-27,49993713,-12347
32-28,49997619,-18496
32-29,50001525,-8365
32-30,50005431,8558
32-31,50009337,21561
32-32,50013243,22920
32-1,50017429,12232
32-2,50021335,-8502
32-3,50025241,-31945
32-4,50029147,-32768
32-5,50033053,-32359
32-6,50036959,-9080
32-7,50040865,17858
32-8,50044771,29448
32-9,50048677,19060
32-10,50052583,-8697
32-11,50056489,-32564
32-12,50060395,-32157
32-13,50064301,-27013
32-14,50068207,-1256
32-15,50072113,22939
32-16,50076019,32767
32-17,50079925,32358
32-18,50083831,28342
32-19,50087737,12572
32-20,50091643,1980
32-21,50095549,-79
32-22,50099455,6291
32-23,50103361,11130
32-24,50107267,3935
32-25,50111173,-13245
32-26,50115079,-29667
32-27,50118985,-30753
32-28,50122891,-14376
32-29,50126797,7980
32-30,50130703,24779
32-31,50134609,30692
32-32,50138515,27424
32-1,50142152,15448
32-2,50146058,-3603
32-3,50149964,-19780
32-4,50153870,-21216
32-5,50157776,-5362
32-6,50161682,14738
32-7,50165588,21415
32-8,50169494,7603
32-9,50173400,-19639
32-10,50177306,-32768
32-11,50181212,-32359
32-12,50185118,-22739
32-13,50189024,5917
32-14,50192930,29820
32-15,50196836,32767
32-16,50200742,18629
32-17,50204648,-12335
32-18,50208554,-32360
32-19,50212460,-31184
32-20,50216366,-17880
32-21,50220272,-7358
32-22,50224178,-9128
32-23,50228084,-21451
32-24,50231990,-31358
32-25,50235896,-30966
32-26,50239802,-30166
32-27,50243708,-10123
32-28,50247614,12549
32-29,50251520,31460
32-30,50255426,32767
32-31,50259332,32358
32-32,50263238,29614
32-1,50267150,22159
32-2,50271056,15719
32-3,50274962,10954
32-4,50278868,10895
32-5,50282774,10785
32-6,50286680,6050
32-7,50290586,-6514
32-8,50294492,-24995
32-9,50298398,-32768
32-10,50302304,-32359
32-11,50306210,-16054
32-12,50310116,12348
32-13,50314022,32711
32-14,50317928,32767
32-15,50321834,12598
32-16,50325740,-17768
32-17,50329646,-32705
32-18,50333552,-32297
32-19,50337458,-7316
32-20,50341364,21294
32-21,50345270,32767
32-22,50349176,20524
32-23,50353082,-8680
32-24,50356988,-32720
32-25,50360894,-32311
32-26,50364800,-25997
32-27,50368706,1651
32-28,50372612,28221
32-29,50376518,32767
32-30,50380424,32358
32-31,50384330,5992
32-32,50388236,-22275
32-1,50392147,-32725
32-2,50396053,-20884
32-3,50399959,5969
32-4,50403865,30825
32-5,50407771,32364
32-6,50411677,28204
32-7,50415583,2268
32-8,50419489,-20507
32-9,50423395,-24845
32-10,50427301,-8807
32-11,50431207,13612
32-12,50435113,22279
32-13,50439019,9350
32-14,50442925,-17644
32-15,50446831,-32768
32-16,50450737,-32359
32-17,50454643,-24975
32-18,50458549,3067
32-19,50462455,27790
32-20,50466361,32767
32-21,50470267,21386
32-22,50474173,-8829
32-23,50478079,-32768
32-24,50481985,-32359
32-25,50485891,-20438
32-26,50489797,8249
32-27,50493703,32767
32-28,50497609,32767
32-29,50501515,28892
32-30,50505421,302
32-31,50509327,-25313
32-32,50513233,-29867
32-1,50517145,-11198
32-2,50521051,15277
32-3,50524957,27063
32-4,50528863,14535
32-5,50532769,-13890
32-6,50536675,-32768
32-7,50540581,-32359
32-8,50544487,-24787
32-9,50548393,768
32-10,50552299,24138
32-11,50556205,32767
32-12,50560111,32358
32-13,50564017,24822
32-14,50567923,4270
32-15,50571829,-8092
32-16,50575735,-6117
32-17,50579641,6559
32-18,50583547,14981
32-19,50587453,8476
32-20,50591359,-12025
32-21,50595265,-32768
32-22,50599171,-32359
32-23,50603077,-31436
32-24,50606983,-8015
32-25,50610889,17296
32-26,50614795,32767
32-27,50618701,32767
32-28,50622607,24975
32-29,50626513,7021
32-30,50630419,-5568
32-31,50634325,-8811
32-32,50638231,-414
32-1,50642142,14844
32-2,50646048,24998
32-3,50649954,22301
32-4,50653860,2820
32-5,50657766,-21080
32-6,50661672,-30201
32-7,50665578,-19530
32-8,50669484,4666
32-9,50673390,24169
32-10,50677296,23989
32-11,50681202,3319
32-12,50685108,-25126
32-13,50689014,-32768
32-14,50692920,-32359
32-15,50696826,-10577
32-16,50700732,18257
32-17,50704638,32767
32-18,50708544,27626
32-19,50712450,2154
32-20,50716356,-27105
32-21,50720262,-32768
32-22,50724168,-28471
32-23,50728074,-513
32-24,50731980,24169
32-25,50735886,30412
32-26,50739792,19297
32-27,50743698,1976
32-28,50747604,-7171
32-29,50751510,-2605
32-30,50755416,7945
32-31,50759322,18236
32-32,50763228,23218
32-1,50767262,22260
32-2,50771168,12403
32-3,50775074,-8115
32-4,50778980,-26786
32-5,50782886,-30226
32-6,50786792,-13457
32-7,50790698,12485
32-8,50794604,27502
32-9,50798510,20303
32-10,50802416,-6016
32-11,50806322,-32768
32-12,50810228,-32768
32-13,50814134,-30092
32-14,50818040,-2708
32-15,50821946,24823
32-16,50825852,32767
32-17,50829758,26879
32-18,50833664,-1646
32-19,50837570,-30279
32-20,50841476,-32707
32-21,50845382,-23387
32-22,50849288,7434
32-23,50853194,30511
32-24,50857100,28447
32-25,50861006,5552
32-26,50864912,-21400
32-27,50868818,-31041
32-28,50872724,-17721
32-29,50876630,5714
32-30,50880536,25515
32-31,50884442,32704
32-32,50888348,31681
32-1,50892138,18486
32-2,50896044,-3603
32-3,50899950,-22135
32-4,50903856,-23335
32-5,50907762,-5289
32-6,50911668,16920
32-7,50915574,24195
32-8,50919480,9531
32-9,50923386,-18716
32-10,50927292,-32768
32-11,50931198,-32359
32-12,50935104,-22553
32-13,50939010,6410
32-14,50942916,30086
32-15,50946822,32767
32-16,50950728,19387
32-17,50954634,-11680
32-18,50958540,-32768
32-19,50962446,-32359
32-20,50966352,-16364
32-21,50970258,14587
32-22,50974164,32767
32-23,50978070,30256
32-24,50981976,4047
32-25,50985882,-25980
32-26,50989788,-32768
32-27,50993694,-24442
32-28,50997600,3595
32-29,51001506,29929
32-30,51005412,32653
32-31,51009318,31524
32-32,51013224,6671
32-1,51017135,-20611
32-2,51021041,-32768
32-3,51024947,-25835
32-4,51028853,551
32-5,51032759,27068
32-6,51036665,32744
32-7,51040571,22171
32-8,51044477,-6854
32-9,51048383,-31467
32-10,51052289,-32592
32-11,51056195,-17549
32-12,51060101,12027
32-13,51064007,31557
32-14,51067913,28426
32-15,51071819,4056
32-16,51075725,-26009
32-17,51079631,-32593
32-18,51083537,-32186
32-19,51087443,-6581
32-20,51091349,22403
32-21,51095255,32767
32-22,51099161,24828
32-23,51103067,-3620
32-24,51106973,-31753
32-25,51110879,-32638
32-26,51114785,-27315
32-27,51118691,1829
32-28,51122597,29086
32-29,51126503,32767
32-30,51130409,25760
32-31,51134315,-4415
32-32,51138221,-31022
32-1,51142133,-32649
32-2,51146039,-20767
32-3,51149945,7718
32-4,51153851,32437
32-5,51157757,32642
32-6,51161663,31229
32-7,51165569,4970
32-8,51169475,-19666
32-9,51173381,-26004
32-10,51177287,-10267
32-11,51181193,14773
32-12,51185099,27231
32-13,51189005,16751
32-14,51192911,-10647
32-15,51196817,-32768
32-16,51200723,-32359
32-17,51204629,-26004
32-18,51208535,2730
32-19,51212441,27459
32-20,51216347,32767
32-21,51220253,16872
32-22,51224159,-13623
32-23,51228065,-32768
32-24,51231971,-32359
32-25,51235877,-20057
32-26,51239783,8463
32-27,51243689,32374
32-28,51247595,32767
32-29,51251501,28703
32-30,51255407,532
32-31,51259313,-24551
32-32,51263219,-31079
32-1,51267131,-15599
32-2,51271037,13118
32-3,51274943,32717
32-4,51278849,32307
32-5,51282755,18918
32-6,51286661,-10863
32-7,51290567,-29931
32-8,51294473,-26219
32-9,51298379,-2842
32-10,51302285,21728
32-11,51306191,27922
32-12,51310097,11278
32-13,51314003,-17672
32-14,51317909,-32768
32-15,51321815,-32359
32-16,51325721,-18834
32-17,51329627,10751
32-18,51333533,31295
32-19,51337439,31021
32-20,51341345,9411
32-21,51345251,-21373
32-22,51349157,-32486
32-23,51353063,-32080
32-24,51356969,-10892
32-25,51360875,15803
32-26,51364781,32109
32-27,51368687,32767
32-28,51372593,27901
32-29,51376499,10378
32-30,51380405,-4450
32-31,51384311,-10281
32-32,51388217,-2407
32-1,51392128,14811
32-2,51396034,26892
32-3,51399940,23310
32-4,51403846,1037
32-5,51407752,-25164
32-6,51411658,-32768
32-7,51415564,-19555
32-8,51419470,6067
32-9,51423376,24032
32-10,51427282,20306
32-11,51431188,-2932
32-12,51435094,-30221
32-13,51439000,-32333
32-14,51442906,-31929
32-15,51446812,-9508
32-16,51450718,18963
32-17,51454624,32767
32-18,51458530,31165
32-19,51462436,6506
32-20,51466342,-24074
32-21,51470248,-32768
32-22,51474154,-29188
32-23,51478060,-1436
32-24,51481966,24327
32-25,51485872,31423
32-26,51489778,20349
32-27,51493684,2189
32-28,51497590,-8470
32-29,51501496,-4598
32-30,51505402,6774
32-31,51509308,19027
32-32,51513214,25841
32-1,51517248,25255
32-2,51521154,14505
32-3,51525060,-7401
32-4,51528966,-27227
32-5,51532872,-30427
32-6,51536778,-12902
32-7,51540684,12420
32-8,51544590,25439
32-9,51548496,15842
32-10,51552402,-11278
32-11,51556308,-32768
32-12,51560214,-32359
32-13,51564120,-28877
32-14,51568026,-1130
32-15,51571932,25671
32-16,51575838,32767
32-17,51579744,26510
32-18,51583650,-2542
32-19,51587556,-30884
32-20,51591462,-32683
32-21,51595368,-23850
32-22,51599274,7228
32-23,51603180,31841
32-24,51607086,32298
32-25,51610992,11345
32-26,51614898,-16221
32-27,51618804,-28550
32-28,51622710,-17859
32-29,51626616,4523
32-30,51630522,25036
32-31,51634428,32525
32-32,51638334,30895
32-1,51642124,16197
32-2,51646030,-6789
32-3,51649936,-25446
32-4,51653842,-25958
32-5,51657748,-6270
32-6,51661654,18212
32-7,51665560,27637
32-8,51669466,13960
32-9,51673372,-15037
32-10,51677278,-32768
32-11,51681184,-32359
32-12,51685090,-22870
32-13,51688996,6944
32-14,51692902,30041
32-15,51696808,32767
32-16,51700714,14492
32-17,51704620,-16822
32-18,51708526,-32740
32-19,51712432,-32331
32-20,51716338,-15190
32-21,51720244,15818
32-22,51724150,32767
32-23,51728056,30798
32-24,51731962,4575
32-25,51735868,-25816
32-26,51739774,-32768
32-27,51743680,-24320
32-28,51747586,3060
32-29,51751492,29156
32-30,51755398,32667
32-31,51759304,32259
32-32,51763210,13101
32-1,51767121,-14276
32-2,51771027,-30277
32-3,51774933,-24986
32-4,51778839,316
32-5,51782745,25152
32-6,51786651,30402
32-7,51790557,11952
32-8,51794463,-18329
32-9,51798369,-32768
32-10,51802275,-32359
32-11,51806181,-16289
32-12,51810087,13749
32-13,51813993,32767
32-14,51817899,32358
32-15,51821805,10276
32-16,51825711,-20845
32-17,51829617,-32768
32-18,51833523,-32359
32-19,51837429,-7112
32-20,51841335,22139
32-21,51845241,32767
32-22,51849147,21672
32-23,51853053,-7604
32-24,51856959,-32768
32-25,51860865,-32359
32-26,51864771,-26264
32-27,51868677,2699
32-28,51872583,29549
32-29,51876489,32767
32-30,51880395,28208
32-31,51884301,-1407
32-32,51888207,-28824
32-1,51892119,-32745
32-2,51896025,-21370
32-3,51899931,7674
32-4,51903837,32767
32-5,51907743,32358
32-6,51911649,27292
32-7,51915555,-1405
32-8,51919461,-26144
32-9,51923367,-30432
32-10,51927273,-11663
32-11,51931179,16404
32-12,51935085,31331
32-13,51938991,22269
32-14,51942897,-5279
32-15,51946803,-32362
32-16,51950709,-32768
32-17,51954615,-27173
32-18,51958521,1732
32-19,51962427,27181
32-20,51966333,32745
32-21,51970239,17061
32-22,51974145,-13483
32-23,51978051,-32768
32-24,51981957,-32359
32-25,51985863,-19748
32-26,51989769,8073
32-27,51993675,31548
32-28,51997581,32767
32-29,52001487,31421
32-30,52005393,5491
32-31,52009299,-19609
32-32,52013205,-28248
32-1,52017116,-15617
32-2,52021022,10707
32-3,52024928,32554
32-4,52028834,32146
32-5,52032740,21920
32-6,52036646,-4902
32-7,52040552,-23024
32-8,52044458,-21418
32-9,52048364,-2470
32-10,52052270,17207
32-11,52056176,20331
32-12,52060082,3360
32-13,52063988,-23492
32-14,52067894,-32768
32-15,52071800,-32359
32-16,52075706,-18389
32-17,52079612,10272
32-18,52083518,31679
32-19,52087424,32767
32-20,52091330,14383
32-21,52095236,-16647
32-22,52099142,-32741
32-23,52103048,-32332
32-24,52106954,-12122
32-25,52110860,14975
32-26,52114766,31594
32-27,52118672,32766
32-28,52122578,25974
32-29,52126484,8413
32-30,52130390,-5803
32-31,52134296,-10769
32-32,52138202,-2483
32-1,52142114,14603
32-2,52146020,26348
32-3,52149926,22618
32-4,52153832,579
32-5,52157738,-25280
32-6,52161644,-32768
32-7,52165550,-20838
32-8,52169456,5566
32-9,52173362,26188
32-10,52177268,25614
32-11,52181174,2354
32-12,52185080,-26604
32-13,52188986,-32515
32-14,52192892,-29161
32-15,52196798,-12924
32-16,52200704,-4616
32-17,52204610,-9806
32-18,52208516,-22127
32-19,52212422,-31128
32-20,52216328,-30739
32-21,52220234,-30355
32-22,52224140,-14442
32-23,52228046,6980
32-24,52231952,27672
32-25,52235858,32767
32-26,52239764,32358
32-27,52243670,31571
32-28,52247576,23601
32-29,52251482,16241
32-30,52255388,9613
32-31,52259294,7434
32-32,52263200,9071
32-1,52267264,10488
32-2,52271170,4623
32-3,52275076,-11237
32-4,52278982,-27478
32-5,52282888,-31159
32-6,52286794,-15167
32-7,52290700,11404
32-8,52294606,29170
32-9,52298512,25622
32-10,52302418,1061
32-11,52306324,-28202
32-12,52310230,-32768
32-13,52314136,-31218
32-14,52318042,-4296
32-15,52321948,23716
32-16,52325854,32767
32-17,52329760,23551
32-18,52333666,-5274
32-19,52337572,-32588
32-20,52341478,-32591
32-21,52345384,-24068
32-22,52349290,6598
32-23,52353196,31044
32-24,52357102,32151
32-25,52361008,11777
32-26,52364914,-15794
32-27,52368820,-28509
32-28,52372726,-18035
32-29,52376632,4323
32-30,52380538,24695
32-31,52384444,32636
32-32,52388350,30328
32-1,52392109,15912
32-2,52396015,-6787
32-3,52399921,-24983
32-4,52403827,-24854
32-5,52407733,-5647
32-6,52411639,16714
32-7,52415545,23239
32-8,52419451,7688
32-9,52423357,-20537
32-10,52427263,-32768
32-11,52431169,-32359
32-12,52435075,-22275
32-13,52438981,6651
32-14,52442887,30158
32-15,52446793,32767
32-16,52450699,19352
32-17,52454605,-12304
32-18,52458511,-32768
32-19,52462417,-32359
32-20,52466323,-13430
32-21,52470229,15181
32-22,52474135,28171
32-23,52478041,15431
32-24,52481947,-13564
32-25,52485853,-32354
32-26,52489759,-31950
32-27,52493665,-18148
32-28,52497571,9420
32-29,52501477,29862
32-30,52505383,32767
32-31,52509289,32358
32-32,52513195,27405
32-1,52517107,14636
32-2,52521013,4430
32-3,52524919,283
32-4,52528825,5102
32-5,52532731,10332
32-6,52536637,7649
32-7,52540543,-6126
32-8,52544449,-26626
32-9,52548355,-32768
32-10,52552261,-32359
32-11,52556167,-15099
32-12,52560073,13615
32-13,52563979,32290
32-14,52567885,30066
32-15,52571791,6806
32-16,52575697,-23504
32-17,52579603,-32509
32-18,52583509,-32103
32-19,52587415,-6839
32-20,52591321,22492
32-21,52595227,32767
32-22,52599133,25320
32-23,52603039,-3135
32-24,52606945,-31389
32-25,52610851,-32654
32-26,52614757,-27281
32-27,52618663,1080
32-28,52622569,28588
32-29,52626475,32767
32-30,52630381,29557
32-31,52634287,991
32-32,52638193,-26661
32-1,52642105,-32768
32-2,52646011,-21163
32-3,52649917,7159
32-4,52653823,32446
32-5,52657729,32536
32-6,52661635,27097
32-7,52665541,-1090
32-8,52669447,-25237
32-9,52673353,-29091
32-10,52677259,-10477
32-11,52681165,16138
32-12,52685071,28794
32-13,52688977,17796
32-14,52692883,-10184
32-15,52696789,-32768
32-16,52700695,-32359
32-17,52704601,-26195
32-18,52708507,2381
32-19,52712413,27955
32-20,52716319,32767
32-21,52720225,21451
32-22,52724131,-8578
32-23,52728037,-32768
32-24,52731943,-32359
32-25,52735849,-19956
32-26,52739755,7668
32-27,52743661,30746
32-28,52747567,32767
32-29,52751473,27857
32-30,52755379,2642
32-31,52759285,-20666
32-32,52763191,-27742
32-1,52767102,-14378
32-2,52771008,11877
32-3,52774914,32611
32-4,52778820,32203
32-5,52782726,16522
32-6,52786632,-12552
32-7,52790538,-30264
32-8,52794444,-25443
32-9,52798350,-2288
32-10,52802256,20574
32-11,52806162,24644
32-12,52810068,6711
32-13,52813974,-22860
32-14,52817880,-32768
32-15,52821786,-32359
32-16,52825692,-13228
32-17,52829598,9646
32-18,52833504,15972
32-19,52837410,2678
32-20,52841316,-20615
32-21,52845222,-31887
32-22,52849128,-31489
32-23,52853034,-26115
32-24,52856940,-3456
32-25,52860846,18493
32-26,52864752,32767
32-27,52868658,32358
32-28,52872564,31953
32-29,52876470,21260
32-30,52880376,9773
32-31,52884282,799
32-32,52888188,-4778
32-1,52892130,-9375
32-2,52896036,-16394
32-3,52899942,-25849
32-4,52903848,-32768
32-5,52907754,-32359
32-6,52911660,-31586
32-7,52915566,-13740
32-8,52919472,9343
32-9,52923378,29679
32-10,52927284,32767
32-11,52931190,32358
32-12,52935096,24992
32-13,52939002,13664
32-14,52942908,6572
32-15,52946814,5408
32-16,52950720,9231
32-17,52954626,10739
32-18,52958532,4357
32-19,52962438,-12119
32-20,52966344,-31092
32-21,52970250,-32768
32-22,52974156,-27561
32-23,52978062,-1591
32-24,52981968,22560
32-25,52985874,30365
32-26,52989780,20715
32-27,52993686,2989
32-28,52997592,-8384
32-29,53001498,-5927
32-30,53005404,4247
32-31,53009310,15516
32-32,53013216,21984
32-1,53017281,22481
32-2,53021187,14288
32-3,53025093,-4552
32-4,53028999,-22538
32-5,53032905,-26782
32-6,53036811,-12389
32-7,53040717,10927
32-8,53044623,24300
32-9,53048529,16670
32-10,53052435,-8861
32-11,53056341,-32768
32-12,53060247,-32359
32-13,53064153,-29815
32-14,53068059,-3048
32-15,53071965,24334
32-16,53075871,32767
32-17,53079777,27755
32-18,53083683,-281
32-19,53087589,-29207
32-20,53091495,-32748
32-21,53095401,-24979
32-22,53099307,5495
32-23,53103213,30723
32-24,53107119,32153
32-25,53111025,11807
32-26,53114931,-15451
32-27,53118837,-27757
32-28,53122743,-16932
32-29,53126649,5233
32-30,53130555,24686
32-31,53134461,32471
32-32,53138367,29918
32-1,53142095,17057
32-2,53146001,-3949
32-3,53149907,-21997
32-4,53153813,-23971
32-5,53157719,-6758
32-6,53161625,16176
32-7,53165531,25583
32-8,53169437,13044
32-9,53173343,-14799
32-10,53177249,-32768
32-11,53181155,-32359
32-12,53185061,-23578
32-13,53188967,5619
32-14,53192873,29121
32-15,53196779,32767
32-16,53200685,15140
32-17,53204591,-15829
32-18,53208497,-32761
32-19,53212403,-32351
32-20,53216309,-16269
32-21,53220215,14554
32-22,53224121,32767
32-23,53228027,30843
32-24,53231933,5058
32-25,53235839,-25308
32-26,53239745,-32768
32-27,53243651,-24731
32-28,53247557,3103
32-29,53251463,29825
32-30,53255369,32664
32-31,53259275,32255
32-32,53263181,8410
32-1,53267093,-19376
32-2,53270999,-32768
32-3,53274905,-26631
32-4,53278811,-1108
32-5,53282717,26239
32-6,53286623,32767
32-7,53290529,27178
32-8,53294435,-176
32-9,53298341,-26370
32-10,53302247,-32768
32-11,53306153,-17600
32-12,53310059,10646
32-13,53313965,29196
32-14,53317871,24713
32-15,53321777,-464
32-16,53325683,-29403
32-17,53329589,-32575
32-18,53333495,-32168
32-19,53337401,-6119
32-20,53341307,22333
32-21,53345213,32767
32-22,53349119,25301
32-23,53353025,-3008
32-24,53356931,-31367
32-25,53360837,-32656
32-26,53364743,-27620
32-27,53368649,752
32-28,53372555,28412
32-29,53376461,32767
32-30,53380367,29628
32-31,53384273,941
32-32,53388179,-26846
32-1,53392090,-32768
32-2,53395996,-21346
32-3,53399902,7110
32-4,53403808,32590
32-5,53407714,32536
32-6,53411620,27520
32-7,53415526,-958
32-8,53419432,-25361
32-9,53423338,-28574
32-10,53427244,-9608
32-11,53431150,15608
32-12,53435056,25339
32-13,53438962,11643
32-14,53442868,-16454
32-15,53446774,-32768
32-16,53450680,-32359
32-17,53454586,-25113
32-18,53458492,3432
32-19,53462398,28129
32-20,53466304,32767
32-21,53470210,21141
32-22,53474116,-9297
32-23,53478022,-32768
32-24,53481928,-32359
32-25,53485834,-20550
32-26,53489740,8123
32-27,53493646,32564
32-28,53497552,32767
32-29,53501458,29151
32-30,53505364,1363
32-31,53509270,-23650
32-32,53513176,-30539
32-1,53517088,-15560
32-2,53520994,12872
32-3,53524900,32685
32-4,53528806,32276
32-5,53532712,19000
32-6,53536618,-10744
32-7,53540524,-29860
32-8,53544430,-26362
32-9,53548336,-3003
32-10,53552242,21904
32-11,53556148,28637
32-12,53560054,12280
32-13,53563960,-16934
32-14,53567866,-32768
32-15,53571772,-32359
32-16,53575678,-18782
32-17,53579584,10921
32-18,53583490,31470
32-19,53587396,31139
32-20,53591302,9508
32-21,53595208,-21162
32-22,53599114,-32496
32-23,53603020,-32090
32-24,53606926,-10674
32-25,53610832,16712
32-26,53614738,32767
32-27,53618644,32738
32-28,53622550,22790
32-29,53626456,2037
32-30,53630362,-13584
32-31,53634268,-16681
32-32,53638174,-3896
32-1,53642147,17950
32-2,53646053,32219
32-3,53649959,29434
32-4,53653865,5895
32-5,53657771,-22242
32-6,53661677,-32768
32-7,53665583,-21090
32-8,53669489,5635
32-9,53673395,26803
32-10,53677301,27120
32-11,53681207,4586
32-12,53685113,-26474
32-13,53689019,-32647
32-14,53692925,-29861
32-15,53696831,-8595
32-16,53700737,5428
32-17,53704643,1702
32-18,53708549,-14482
32-19,53712455,-31668
32-20,53716361,-31273
32-21,53720267,-30882
32-22,53724173,-17012
32-23,53728079,4879
32-24,53731985,26203
32-25,53735891,32767
32-26,53739797,32358
32-27,53743703,30948
32-28,53747609,22950
32-29,53751515,16521
32-30,53755421,10585
32-31,53759327,7868
32-32,53763233,8415
32-1,53767266,9788
32-2,53771172,5506
32-3,53775078,-8456
32-4,53778984,-23949
32-5,53782890,-28390
32-6,53786796,-13858
32-7,53790702,10736
32-8,53794608,25913
32-9,53798514,20270
32-10,53802420,-4601
32-11,53806326,-31971
32-12,53810232,-32768
32-13,53814138,-30851
32-14,53818044,-4189
32-15,53821950,23730
32-16,53825856,32767
32-17,53829762,26991
32-18,53833668,-1161
32-19,53837574,-29767
32-20,53841480,-32721
32-21,53845386,-24898
32-22,53849292,5519
32-23,53853198,30839
32-24,53857104,32588
32-25,53861010,12490
32-26,53864916,-14912
32-27,53868822,-27442
32-28,53872728,-16638
32-29,53876634,5473
32-30,53880540,24697
32-31,53884446,32464
32-32,53888352,29296
32-1,53892081,16643
32-2,53895987,-3974
32-3,53899893,-21723
32-4,53903799,-23293
32-5,53907705,-6171
32-6,53911611,15667
32-7,53915517,23316
32-8,53919423,9259
32-9,53923329,-18518
32-10,53927235,-32768
32-11,53931141,-32359
32-12,53935047,-23147
32-13,53938953,5522
32-14,53942859,29462
32-15,53946765,32767
32-16,53950671,19757
32-17,53954577,-11030
32-18,53958483,-32768
32-19,53962389,-32359
32-20,53966295,-17231
32-21,53970201,13682
32-22,53974107,32767
32-23,53978013,30698
32-24,53981919,4768
32-25,53985825,-25411
32-26,53989731,-32768
32-27,53993637,-24083
32-28,53997543,2837
32-29,54001449,28041
32-30,54005355,32681
32-31,54009261,32273
32-32,54013167,20134
32-1,54017079,-5024
32-2,54020985,-22075
32-3,54024891,-21052
32-4,54028797,-948
32-5,54032703,19940
32-6,54036609,23516
32-7,54040515,6125
32-8,54044421,-21772
32-9,54048327,-32768
32-10,54052233,-32359
32-11,54056139,-16156
32-12,54060045,13007
32-13,54063951,32203
32-14,54067857,30192
32-15,54071763,7097
32-16,54075669,-23505
32-17,54079575,-32492
32-18,54083481,-32086
32-19,54087387,-6602
32-20,54091293,22061
32-21,54095199,32767
32-22,54099105,20342
32-23,54103011,-8872
32-24,54106917,-32567
32-25,54110823,-32161
32-26,54114729,-26605
32-27,54118635,2188
32-28,54122541,29037
32-29,54126447,32767
32-30,54130353,28742
32-31,54134259,-753
32-32,54138165,-28557
32-1,54142076,-32763
32-2,54145982,-21893
32-3,54149888,6617
32-4,54153794,32271
32-5,54157700,32559
32-6,54161606,30641
32-7,54165512,3600
32-8,54169418,-21442
32-9,54173324,-27463
32-10,54177230,-11045
32-11,54181136,14833
32-12,54185042,28039
32-13,54188948,18038
32-14,54192854,-9194
32-15,54196760,-32768
32-16,54200666,-32359
32-17,54204572,-26513
32-18,54208478,2055
32-19,54212384,27122
32-20,54216290,32767
32-21,54220196,17403
32-22,54224102,-12902
32-23,54228008,-32768
32-24,54231914,-32359
32-25,54235820,-20588
32-26,54239726,7734
32-27,54243632,31859
32-28,54247538,32767
32-29,54251444,29424
32-30,54255350,1754
32-31,54259256,-23538
32-32,54263162,-30825
32-1,54267135,-16122
32-2,54271041,12320
32-3,54274947,32693
32-4,54278853,32284
32-5,54282759,19616
32-6,54286665,-10369
32-7,54290571,-29643
32-8,54294477,-25745
32-9,54298383,-2866
32-10,54302289,19763
32-11,54306195,23284
32-12,54310101,4934
32-13,54314007,-23173
32-14,54317913,-32768
32-15,54321819,-32359
32-16,54325725,-18426
32-17,54329631,10491
32-18,54333537,31936
32-19,54337443,32767
32-20,54341349,15536
32-21,54345255,-15540
32-22,54349161,-32768
32-23,54353067,-32359
32-24,54356973,-12189
32-25,54360879,14985
32-26,54364785,32201
32-27,54368691,32733
32-28,54372597,27640
32-29,54376503,9576
32-30,54380409,-5628
32-31,54384315,-11182
32-32,54388221,-2736
32-1,54392132,14791
32-2,54396038,26859
32-3,54399944,23332
32-4,54403850,1459
32-5,54407756,-24354
32-6,54411662,-32768
32-7,54415568,-19859
32-8,54419474,5657
32-9,54423380,24301
32-10,54427286,21563
32-11,54431192,-1453
32-12,54435098,-29489
32-13,54439004,-32661
32-14,54442910,-32253
32-15,54446816,-10185
32-16,54450722,18560
32-17,54454628,32767
32-18,54458534,30783
32-19,54462440,5895
32-20,54466346,-24694
32-21,54470252,-32768
32-22,54474158,-29481
32-23,54478064,-1770
32-24,54481970,24175
32-25,54485876,31873
32-26,54489782,21797
32-27,54493688,4361
32-28,54497594,-6328
32-29,54501500,-2986
32-30,54505406,7561
32-31,54509312,18878
32-32,54513218,25034
32-1,54517252,24326
32-2,54521158,14228
32-3,54525064,-6632
32-4,54528970,-26114
32-5,54532876,-30497
32-6,54536782,-14294
32-7,54540688,11805
32-8,54544594,27708
32-9,54548500,21268
32-10,54552406,-4985
32-11,54556312,-32751
32-12,54560218,-32768
32-13,54564124,-30666
32-14,54568030,-2675
32-15,54571936,24599
32-16,54575842,32767
32-17,54579748,22810
32-18,54583654,-6700
32-19,54587560,-32768
32-20,54591466,-32359
32-21,54595372,-23720
32-22,54599278,7465
32-23,54603184,32015
32-24,54607090,32767
32-25,54610996,12850
32-26,54614902,-14919
32-27,54618808,-28106
32-28,54622714,-18220
32-29,54626620,3726
32-30,54630526,24544
32-31,54634432,32607
32-32,54638338,31742
32-1,54642067,17384
32-2,54645973,-6035
32-3,54649879,-25478
32-4,54653785,-26566
32-5,54657691,-7130
32-6,54661597,17523
32-7,54665503,27193
32-8,54669409,13806
32-9,54673315,-14871
32-10,54677221,-32768
32-11,54681127,-32359
32-12,54685033,-23762
32-13,54688939,5429
32-14,54692845,29620
32-15,54696751,32767
32-16,54700657,18966
32-17,54704563,-11998
32-18,54708469,-32768
32-19,54712375,-32359
32-20,54716281,-15355
32-21,54720187,14793
32-22,54724093,31699
32-23,54727999,23135
32-24,54731905,-5336
32-25,54735811,-32568
32-26,54739717,-32161
32-27,54743623,-22639
32-28,54747529,7732
32-29,54751435,32703
32-30,54755341,32767
32-31,54759247,25353
32-32,54763153,-3334
32-1,54767064,-29660
32-2,54770970,-32674
32-3,54774876,-25979
32-4,54778782,220
32-5,54782688,25063
32-6,54786594,32767
32-7,54790500,32358
32-8,54794406,23540
32-9,54798312,3473
32-10,54802218,-8506
32-11,54806124,-6279
32-12,54810030,6384
32-13,54813936,14908
32-14,54817842,8655
32-15,54821748,-11938
32-16,54825654,-32768
32-17,54829560,-32359
32-18,54833466,-31377
32-19,54837372,-6466
32-20,54841278,21172
32-21,54845184,32767
32-22,54849090,29020
32-23,54852996,2403
32-24,54856902,-27096
32-25,54860808,-32768
32-26,54864714,-28518
32-27,54868620,-165
32-28,54872526,27941
32-29,54876432,32767
32-30,54880338,25351
32-31,54884244,-4701
32-32,54888150,-31328
32-1,54892184,-32636
32-2,54896090,-21417
32-3,54899996,7257
32-4,54903902,32314
32-5,54907808,32670
32-6,54911714,29849
32-7,54915620,2330
32-8,54919526,-22654
32-9,54923432,-27715
32-10,54927338,-10439
32-11,54931244,14859
32-12,54935150,26133
32-13,54939056,14170
32-14,54942962,-13446
32-15,54946868,-32768
32-16,54950774,-32359
32-17,54954680,-26192
32-18,54958586,1874
32-19,54962492,27323
32-20,54966398,32767
32-21,54970304,22786
32-22,54974210,-6910
32-23,54978116,-32689
32-24,54982022,-32560
32-25,54985928,-21756
32-26,54989834,6597
32-27,54993740,31421
32-28,54997646,32767
32-29,55001552,28365
32-30,55005458,737
32-31,55009364,-24242
32-32,55013270,-31082
32-1,55017060,-16152
32-2,55020966,12104
32-3,55024872,32734
32-4,55028778,32324
32-5,55032684,19641
32-6,55036590,-9775
32-7,55040496,-29141
32-8,55044402,-26381
32-9,55048308,-3814
32-10,55052214,20884
32-11,55056120,28083
32-12,55060026,12548
32-13,55063932,-16189
32-14,55067838,-32768
32-15,55071744,-32359
32-16,55075650,-19792
32-17,55079556,9694
32-18,55083462,31223
32-19,55087368,32318
32-20,55091274,11895
32-21,55095180,-19051
32-22,55099086,-32535
32-23,55102992,-32129
32-24,55106898,-11513
32-25,55110804,14628
32-26,55114710,30381
32-27,55118616,32767
32-28,55122522,26962
32-29,55126428,10799
32-30,55130334,-3419
32-31,55134240,-9278
32-32,55138146,-2375
32-1,55142118,13656
32-2,55146024,26494
32-3,55149930,25845
32-4,55153836,7420
32-5,55157742,-16180
32-6,55161648,-26131
32-7,55165554,-17421
32-8,55169460,3173
32-9,55173366,18930
32-10,55177272,16411
32-11,55181178,-4367
32-12,55185084,-30504
32-13,55188990,-32768
32-14,55192896,-32359
32-15,55196802,-11550
32-16,55200708,17018
32-17,55204614,32767
32-18,55208520,31943
32-19,55212426,8181
32-20,55216332,-22747
32-21,55220238,-32768
32-22,55224144,-30054
32-23,55228050,-3025
32-24,55231956,23210
32-25,55235862,31618
32-26,55239768,21814
32-27,55243674,4166
32-28,55247580,-7160
32-29,55251486,-4347
32-30,55255392,6124
32-31,55259298,17512
32-32,55263204,23883
32-1,55267207,23594
32-2,55271113,14115
32-3,55275019,-6204
32-4,55278925,-25433
32-5,55282831,-29345
32-6,55286737,-13259
32-7,55290643,11178
32-8,55294549,24282
32-9,55298455,15294
32-10,55302361,-11217
32-11,55306267,-32768
32-12,55310173,-32359
32-13,55314079,-29536
32-14,55317985,-2229
32-15,55321891,24807
32-16,55325797,32767
32-17,55329703,27214
32-18,55333609,-1490
32-19,55337515,-30246
32-20,55341421,-32713
32-21,55345327,-24964
32-22,55349233,5930
32-23,55353139,31493
32-24,55357045,32665
32-25,55360951,13367
32-26,55364857,-14346
32-27,55368763,-27687
32-28,55372669,-17856
32-29,55376575,3983
32-30,55380481,24423
32-31,55384387,32480
32-32,55388293,31181
32-1,55392053,17237
32-2,55395959,-5719
32-3,55399865,-24887
32-4,55403771,-25516
32-5,55407677,-6398
32-6,55411583,16436
32-7,55415489,23431
32-8,55419395,7955
32-9,55423301,-20406
32-10,55427207,-32768
32-11,55431113,-32359
32-12,55435019,-22534
32-13,55438925,6452
32-14,55442831,29845
32-15,55446737,32767
32-16,55450643,18837
32-17,55454549,-12339
32-18,55458455,-32768
32-19,55462361,-32359
32-20,55466267,-16623
32-21,55470173,14547
32-22,55474079,32767
32-23,55477985,30359
32-24,55481891,3900
32-25,55485797,-26327
32-26,55489703,-32768
32-27,55493609,-24020
32-28,55497515,3141
32-29,55501421,28575
32-30,55505327,32670
32-31,55509233,32261
32-32,55513139,19209
32-1,55517203,-6879
32-2,55521109,-24108
32-3,55525015,-22063
32-4,55528921,-324
32-5,55532827,21788
32-6,55536733,25525
32-7,55540639,7301
32-8,55544545,-21498
32-9,55548451,-32768
32-10,55552357,-32359
32-11,55556263,-15866
32-12,55560169,13551
32-13,55564075,32685
32-14,55567981,30706
32-15,55571887,7630
32-16,55575793,-22903
32-17,55579699,-32529
32-18,55583605,-32123
32-19,55587511,-8100
32-20,55591417,21709
32-21,55595323,32767
32-22,55599229,28614
32-23,55603135,1436
32-24,55607041,-27935
32-25,55610947,-32768
32-26,55614853,-28437
32-27,55618759,-236
32-28,55622665,28011
32-29,55626571,32767
32-30,55630477,27784
32-31,55634383,-1611
32-32,55638289,-29039
32-1,55642048,-32734
32-2,55645954,-21654
32-3,55649860,6755
32-4,55653766,32009
32-5,55657672,32586
32-6,55661578,29247
32-7,55665484,1908
32-8,55669390,-22747
32-9,55673296,-27616
32-10,55677202,-10317
32-11,55681108,14862
32-12,55685014,26108
32-13,55688920,14175
32-14,55692826,-13516
32-15,55696732,-32768
32-16,55700638,-32359
32-17,55704544,-26028
32-18,55708450,2184
32-19,55712356,27504
32-20,55716262,32767
32-21,55720168,22287
32-22,55724074,-7504
32-23,55727980,-32768
32-24,55731886,-32359
32-25,55735792,-20862
32-26,55739698,6670
32-27,55743604,30439
32-28,55747510,32767
32-29,55751416,29849
32-30,55755322,4920
32-31,55759228,-19220
32-32,55763134,-27662
32-1,55767045,-15298
32-2,55770951,10947
32-3,55774857,32562
32-4,55778763,32154
32-5,55782669,18119
32-6,55786575,-10987
32-7,55790481,-29504
32-8,55794387,-25780
32-9,55798293,-3252
32-10,55802199,19783
32-11,55806105,24636
32-12,55810011,7293
32-13,55813917,-21149
32-14,55817823,-32768
32-15,55821729,-32359
32-16,55825635,-19147
32-17,55829541,9974
32-18,55833447,31871
32-19,55837353,32767
32-20,55841259,15956
32-21,55845165,-15173
32-22,55849071,-32768
32-23,55852977,-32359
32-24,55856883,-12888
32-25,55860789,14272
32-26,55864695,31596
32-27,55868601,32758
32-28,55872507,27525
32-29,55876413,9492
32-30,55880319,-5949
32-31,55884225,-11604
32-32,55888131,-3159
32-1,55892074,14550
32-2,55895980,26472
32-3,55899886,22225
32-4,55903792,-277
32-5,55907698,-26329
32-6,55911604,-32768
32-7,55915510,-20819
32-8,55919416,5482
32-9,55923322,25164
32-10,55927228,23418
32-11,55931134,741
32-12,55935040,-27841
32-13,55938946,-32438
32-14,55942852,-32032
32-15,55946758,-11399
32-16,55950664,17648
32-17,55954570,32767
32-18,55958476,32358
32-19,55962382,8815
32-20,55966288,-22525
32-21,55970194,-32768
32-22,55974100,-30098
32-23,55978006,-2332
32-24,55981912,23429
32-25,55985818,28958
32-26,55989724,14605
32-27,55993630,-6580
32-28,55997536,-18929
32-29,56001442,-14484
32-30,56005348,-42
32-31,56009254,16474
32-32,56013160,27704
32-1,56017224,30713
32-2,56021130,21335
32-3,56025036,-1421
32-4,56028942,-23585
32-5,56032848,-29966
32-6,56036754,-14467
32-7,56040660,11581
32-8,56044566,27631
32-9,56048472,21424
32-10,56052378,-4575
32-11,56056284,-32507
32-12,56060190,-32768
32-13,56064096,-30958
32-14,56068002,-2570
32-15,56071908,23914
32-16,56075814,32316
32-17,56079720,18179
32-18,56083626,-11660
32-19,56087532,-32726
32-20,56091438,-32318
32-21,56095344,-23317
32-22,56099250,8033
32-23,56103156,31445
32-24,56107062,31794
32-25,56110968,11094
32-26,56114874,-16713
32-27,56118780,-28975
32-28,56122686,-18286
32-29,56126592,4007
32-30,56130498,25113
32-31,56134404,32767
32-32,56138310,32358
32-1,56142191,23092
32-2,56146097,-877
32-3,56150003,-22196
32-4,56153909,-25069
32-5,56157815,-7170
32-6,56161721,15664
32-7,56165627,23031
32-8,56169533,8253
32-9,56173439,-19656
32-10,56177345,-32768
32-11,56181251,-32359
32-12,56185157,-23233
32-13,56189063,5524
32-14,56192969,29271
32-15,56196875,32767
32-16,56200781,19134
32-17,56204687,-11886
32-18,56208593,-32768
32-19,56212499,-32359
32-20,56216405,-17432
32-21,56220311,13756
32-22,56224217,32767
32-23,56228123,31384
32-24,56232029,5454
32-25,56235935,-25004
32-26,56239841,-32768
32-27,56243747,-23774
32-28,56247653,3354
32-29,56251559,28873
32-30,56255465,32661
32-31,56259371,32252
32-32,56263277,18385
32-1,56267036,-8010
32-2,56270942,-25030
32-3,56274848,-22056
32-4,56278754,-83
32-5,56282660,20563
32-6,56286566,21819
32-7,56290472,1865
32-8,56294378,-26270
32-9,56298284,-32768
32-10,56302190,-32359
32-11,56306096,-15395
32-12,56310002,13579
32-13,56313908,32767
32-14,56317814,32358
32-15,56321720,11255
32-16,56325626,-19828
32-17,56329532,-32768
32-18,56333438,-32359
32-19,56337344,-8509
32-20,56341250,21437
32-21,56345156,32767
32-22,56349062,25767
32-23,56352968,-2447
32-24,56356874,-30925
32-25,56360780,-32675
32-26,56364686,-27895
32-27,56368592,263
32-28,56372498,28021
32-29,56376404,32767
32-30,56380310,29860
32-31,56384216,1477
32-32,56388122,-26395
32-1,56392034,-32768
32-2,56395940,-22007
32-3,56399846,6238
32-4,56403752,32155
32-5,56407658,32562
32-6,56411564,28521
32-7,56415470,239
32-8,56419376,-24675
32-9,56423282,-29404
32-10,56427188,-11312
32-11,56431094,15620
32-12,56435000,29132
32-13,56438906,18933
32-14,56442812,-8676
32-15,56446718,-32768
32-16,56450624,-32359
32-17,56454530,-26484
32-18,56458436,2315
32-19,56462342,27428
32-20,56466248,32767
32-21,56470154,17581
32-22,56474060,-12768
32-23,56477966,-32768
32-24,56481872,-32359
32-25,56485778,-20335
32-26,56489684,8023
32-27,56493590,31952
32-28,56497496,32767
32-29,56501402,29386
32-30,56505308,2005
32-31,56509214,-23124
32-32,56513120,-30558
32-1,56517031,-16148
32-2,56520937,12065
32-3,56524843,32685
32-4,56528749,32276
32-5,56532655,19313
32-6,56536561,-10421
32-7,56540467,-29974
32-8,56544373,-27006
32-9,56548279,-3777
32-10,56552185,21593
32-11,56556091,29081
32-12,56559997,13199
32-13,56563903,-16184
32-14,56567809,-32768
32-15,56571715,-32359
32-16,56575621,-20099
32-17,56579527,9456
32-18,56583433,31964
32-19,56587339,32767
32-20,56591245,16353
32-21,56595151,-14664
32-22,56599057,-32768
32-23,56602963,-32359
32-24,56606869,-12521
32-25,56610775,14193
32-26,56614681,30612
32-27,56618587,32767
32-28,56622493,24452
32-29,56626399,6547
32-30,56630305,-8155
32-31,56634211,-12703
32-32,56638117,-3378
32-1,56642059,15046
32-2,56645965,28354
32-3,56649871,25950
32-4,56653777,4770
32-5,56657683,-21175
32-6,56661589,-31480
32-7,56665495,-20318
32-8,56669401,4344
32-9,56673307,23600
32-10,56677213,22399
32-11,56681119,-1075
32-12,56685025,-29787
32-13,56688931,-32768
32-14,56692837,-29595
32-15,56696743,-12362
32-16,56700649,-3653
32-17,56704555,-8856
32-18,56708461,-21502
32-19,56712367,-31411
32-20,56716273,-31018
32-21,56720179,-30631
32-22,56724085,-14440
32-23,56727991,6831
32-24,56731897,27593
32-25,56735803,32767
32-26,56739709,32358
32-27,56743615,30457
32-28,56747521,21755
32-29,56751427,15170
32-30,56755333,10253
32-31,56759239,8889
32-32,56763145,10168
32-1,56767026,11784
32-2,56770932,7956
32-3,56774838,-5162
32-4,56778744,-20527
32-5,56782650,-26426
32-6,56786556,-14462
32-7,56790462,9169
32-8,56794368,26383
32-9,56798274,23954
32-10,56802180,977
32-11,56806086,-27499
32-12,56809992,-32768
32-13,56813898,-31392
32-14,56817804,-5251
32-15,56821710,22750
32-16,56825616,32767
32-17,56829522,23389
32-18,56833428,-5379
32-19,56837334,-32716
32-20,56841240,-32586
32-21,56845146,-25006
32-22,56849052,5576
32-23,56852958,30829
32-24,56856864,32767
32-25,56860770,13905
32-26,56864676,-13434
32-27,56868582,-26367
32-28,56872488,-15946
32-29,56876394,5824
32-30,56880300,24725
32-31,56884206,32424
32-32,56888112,30194
32-1,56892024,19559
32-2,56895930,836
32-3,56899836,-16536
32-4,56903742,-20458
32-5,56907648,-6720
32-6,56911554,13638
32-7,56915460,22634
32-8,56919366,11643
32-9,56923272,-14274
32-10,56927178,-32768
32-11,56931084,-32359
32-12,56934990,-24170
32-13,56938896,4299
32-14,56942802,28215
32-15,56946708,32767
32-16,56950614,15488
32-17,56954520,-15082
32-18,56958426,-32768
32-19,56962332,-32359
32-20,56966238,-17143
32-21,56970144,13545
32-22,56974050,32767
32-23,56977956,30973
32-24,56981862,5406
32-25,56985768,-25056
32-26,56989674,-32768
32-27,56993580,-24840
32-28,56997486,3027
32-29,57001392,29855
32-30,57005298,32666
32-31,57009204,32257
32-32,57013110,8724
32-1,57017022,-19294
32-2,57020928,-32768
32-3,57024834,-27259
32-4,57028740,-1415
32-5,57032646,26192
32-6,57036552,32767
32-7,57040458,24872
32-8,57044364,-3628
32-9,57048270,-29537
32-10,57052176,-32666
32-11,57056082,-19099
32-12,57059988,10312
32-13,57063894,31100
32-14,57067800,29505
32-15,57071706,6284
32-16,57075612,-23939
32-17,57079518,-32687
32-18,57083424,-32279
32-19,57087330,-8211
32-20,57091236,20972
32-21,57095142,32767
32-22,57099048,24603
32-23,57102954,-3398
32-24,57106860,-31583
32-25,57110766,-32640
32-26,57114672,-28451
32-27,57118578,242
32-28,57122484,28019
32-29,57126390,32767
32-30,57130296,27069
32-31,57134202,-2790
32-32,57138108,-30271
32-1,57142019,-32695
32-2,57145925,-22270
32-3,57149831,6460
32-4,57153737,32206
32-5,57157643,32634
32-6,57161549,30564
32-7,57165455,2777
32-8,57169361,-22836
32-9,57173267,-28155
32-10,57177173,-10885
32-11,57181079,14258
32-12,57184985,25109
32-13,57188891,12613
32-14,57192797,-14962
32-15,57196703,-32768
32-16,57200609,-32359
32-17,57204515,-26014
32-18,57208421,2031
32-19,57212327,27353
32-20,57216233,32767
32-21,57220139,23046
32-22,57224045,-6716
32-23,57227951,-32510
32-24,57231857,-32567
32-25,57235763,-21656
32-26,57239669,6744
32-27,57243575,31652
32-28,57247481,32755
32-29,57251387,29275
32-30,57255293,1784
32-31,57259199,-23356
32-32,57263105,-30647
32-1,57267017,-16118
32-2,57270923,12039
32-3,57274829,32681
32-4,57278735,32272
32-5,57282641,19800
32-6,57286547,-9871
32-7,57290453,-29373
32-8,57294359,-25991
32-9,57298265,-3092
32-10,57302171,20454
32-11,57306077,25264
32-12,57309983,7489
32-13,57313889,-21374
32-14,57317795,-32768
32-15,57321701,-32359
32-16,57325607,-19056
32-17,57329513,10125
32-18,57333419,32049
32-19,57337325,32767
32-20,57341231,16952
32-21,57345137,-14127
32-22,57349043,-32768
32-23,57352949,-32359
32-24,57356855,-12710
32-25,57360761,15121
32-26,57364667,32526
32-27,57368573,32734
32-28,57372479,24537
32-29,57376385,4752
32-30,57380291,-10550
32-31,57384197,-14199
32-32,57388103,-3193
32-1,57392076,16374
32-2,57395982,29622
32-3,57399888,27010
32-4,57403794,5757
32-5,57407700,-20049
32-6,57411606,-30985
32-7,57415512,-21939
32-8,57419418,2736
32-9,57423324,26536
32-10,57427230,31864
32-11,57431136,16498
32-12,57435042,-13616
32-13,57438948,-32768
32-14,57442854,-32359
32-15,57446760,-13537
32-16,57450666,15781
32-17,57454572,32088
32-18,57458478,25143
32-19,57462384,-1099
32-20,57466290,-29675
32-21,57470196,-32316
32-22,57474102,-28861
32-23,57478008,-1001
32-24,57481914,24152
32-25,57485820,32026
32-26,57489726,22606
32-27,57493632,4968
32-28,57497538,-6735
32-29,57501444,-3924
32-30,57505350,6667
32-31,57509256,17768
32-32,57513162,23556
32-1,57517012,23181
32-2,57520918,14862
32-3,57524824,-3461
32-4,57528730,-21672
32-5,57532636,-27656
32-6,57536542,-14862
32-7,57540448,9876
32-8,57544354,28345
32-9,57548260,26428
32-10,57552166,3098
32-11,57556072,-26164
32-12,57559978,-32768
32-13,57563884,-31208
32-14,57567790,-4281
32-15,57571696,22560
32-16,57575602,31415
32-17,57579508,17174
32-18,57583414,-12233
32-19,57587320,-32654
32-20,57591226,-32246
32-21,57595132,-23645
32-22,57599038,6675
32-23,57602944,31725
32-24,57606850,32767
32-25,57610756,18289
32-26,57614662,-9285
32-27,57618568,-24493
32-28,57622474,-16809
32-29,57626380,3498
32-30,57630286,23226
32-31,57634192,32425
32-32,57638098,30002
32-1,57642010,17663
32-2,57645916,-3301
32-3,57649822,-21826
32-4,57653728,-23974
32-5,57657634,-7113
32-6,57661540,15019
32-7,57665446,23170
32-8,57669352,9510
32-9,57673258,-17993
32-10,57677164,-32768
32-11,57681070,-32359
32-12,57684976,-23733
32-13,57688882,4705
32-14,57692788,28914
32-15,57696694,32767
32-16,57700600,20050
32-17,57704506,-10810
32-18,57708412,-32768
32-19,57712318,-32359
32-20,57716224,-15039
32-21,57720130,13499
32-22,57724036,27531
32-23,57727942,15933
32-24,57731848,-12831
32-25,57735754,-32320
32-26,57739660,-31916
32-27,57743566,-19385
32-28,57747472,8012
32-29,57751378,29037
32-30,57755284,32767
32-31,57759190,32358
32-32,57763096,27296
32-1,57767008,8749
32-2,57770914,-5916
32-3,57774820,-9063
32-4,57778726,2744
32-5,57782632,16176
32-6,57786538,17045
32-7,57790444,1451
32-8,57794350,-23231
32-9,57798256,-32768
32-10,57802162,-32359
32-11,57806068,-16483
32-12,57809974,12444
32-13,57813880,31897
32-14,57817786,30134
32-15,57821692,7218
32-16,57825598,-23353
32-17,57829504,-32480
32-18,57833410,-32074
32-19,57837316,-7674
32-20,57841222,21518
32-21,57845128,32767
32-22,57849034,22717
32-23,57852940,-5852
32-24,57856846,-32768
32-25,57860752,-32359
32-26,57864658,-27851
32-27,57868564,693
32-28,57872470,28220
32-29,57876376,32767
32-30,57880282,29020
32-31,57884188,-151
32-32,57888094,-28231
32-1,57892005,-32768
32-2,57895911,-22660
32-3,57899817,5683
32-4,57903723,31636
32-5,57907629,32583
32-6,57911535,31208
32-7,57915441,4434
32-8,57919347,-20806
32-9,57923253,-27483
32-10,57927159,-11838
32-11,57931065,14024
32-12,57934971,28111
32-13,57938877,19344
32-14,57942783,-7188
32-15,57946689,-32768
32-16,57950595,-32419
32-17,57954501,-27355
32-18,57958407,697
32-19,57962313,26461
32-20,57966219,32767
32-21,57970125,19260
32-22,57974031,-10626
32-23,57977937,-32768
32-24,57981843,-32359
32-25,57985749,-21040
32-26,57989655,6877
32-27,57993561,30613
32-28,57997467,32767
32-29,58001373,27584
32-30,58005279,951
32-31,58009185,-23400
32-32,58013091,-30416
32-1,58017003,-16143
32-2,58020909,11480
32-3,58024815,32730
32-4,58028721,32320
32-5,58032627,20598
32-6,58036533,-8693
32-7,58040439,-28329
32-8,58044345,-25770
32-9,58048251,-3885
32-10,58052157,19050
32-11,58056063,23932
32-12,58059969,6891
32-13,58063875,-21240
32-14,58067781,-32768
32-15,58071687,-32359
32-16,58075593,-19844
32-17,58079499,9111
32-18,58083405,31524
32-19,58087311,32767
32-20,58091217,17478
32-21,58095123,-13619
32-22,58099029,-32768
32-23,58102935,-32359
32-24,58106841,-13537
32-25,58110747,13544
32-26,58114653,31583
32-27,58118559,32767
32-28,58122465,29582
32-29,58126371,11809
32-30,58130277,-4312
32-31,58134183,-11045
32-32,58138089,-3604
32-1,58142000,13586
32-2,58145906,26098
32-3,58149812,23305
32-4,58153718,2447
32-5,58157624,-22704
32-6,58161530,-32768
32-7,58165436,-21968
32-8,58169342,3728
32-9,58173248,26350
32-10,58177154,29075
32-11,58181060,8976
32-12,58184966,-22309
32-13,58188872,-32768
32-14,58192778,-32359
32-15,58196684,-9465
32-16,58200590,15651
32-17,58204496,22472
32-18,58208402,7843
32-19,58212308,-18357
32-20,58216214,-32183
32-21,58220120,-31781
32-22,58224026,-24640
32-23,58227932,-448
32-24,58231838,22986
32-25,58235744,32767
32-26,58239650,32358
32-27,58243556,28216
32-28,58247462,16345
32-29,58251368,9779
32-30,58255274,7545
32-31,58259180,8557
32-32,58263086,10972
32-1,58266998,11622
32-2,58270904,5560
32-3,58274810,-9316
32-4,58278716,-25391
32-5,58282622,-30159
32-6,58286528,-15171
32-7,58290434,10435
32-8,58294340,26585
32-9,58298246,20922
32-10,58302152,-4475
32-11,58306058,-32109
32-12,58309964,-32768
32-13,58313870,-31206
32-14,58317776,-3912
32-15,58321682,23664
32-16,58325588,32767
32-17,58329494,23812
32-18,58333400,-5191
32-19,58337306,-32768
32-20,58341212,-32527
32-21,58345118,-24824
32-22,58349024,6159
32-23,58352930,31276
32-24,58356836,32767
32-25,58360742,12684
32-26,58364648,-15048
32-27,58368554,-27843
32-28,58372460,-17083
32-29,58376366,5113
32-30,58380272,24848
32-31,58384178,32573
32-32,58388084,31903
32-1,58391996,19453
32-2,58395902,-319
32-3,58399808,-15171
32-4,58403714,-17934
32-5,58407620,-10821
32-6,58411526,-4984
32-7,58415432,-8981
32-8,58419338,-21312
32-9,58423244,-32613
32-10,58427150,-32205
32-11,58431056,-31803
32-12,58434962,-16754
32-13,58438868,5350
32-14,58442774,27084
32-15,58446680,32767
32-16,58450586,32358
32-17,58454492,24105
32-18,58458398,3051
32-19,58462304,-10588
32-20,58466210,-7884
32-21,58470116,8997
32-22,58474022,23663
32-23,58477928,19304
32-24,58481834,-5444
32-25,58485740,-32213
32-26,58489646,-32768
32-27,58493552,-23191
32-28,58497458,3868
32-29,58501364,27731
32-30,58505270,32661
32-31,58509176,32253
32-32,58513082,18026
32-1,58516993,-6565
32-2,58520899,-22535
32-3,58524805,-20931
32-4,58528711,-634
32-5,58532617,21038
32-6,58536523,26061
32-7,58540429,9910
32-8,58544335,-18206
32-9,58548241,-32768
32-10,58552147,-32359
32-11,58556053,-17510
32-12,58559959,11504
32-13,58563865,32767
32-14,58567771,32767
32-15,58571677,13550
32-16,58575583,-17176
32-17,58579489,-32724
32-18,58583395,-32315
32-19,58587301,-8876
32-20,58591207,20245
32-21,58595113,32767
32-22,58599019,21671
32-23,58602925,-6900
32-24,58606831,-32756
32-25,58610737,-32347
32-26,58614643,-27008
32-27,58618549,-284
32-28,58622455,26054
32-29,58626361,32767
32-30,58630267,32358
32-31,58634173,13014
32-32,58638079,-14779
32-1,58641991,-28761
32-2,58645897,-21005
32-3,58649803,4799
32-4,58653709,29620
32-5,58657615,32165
32-6,58661521,17967
32-7,58665427,-12620
32-8,58669333,-32768
32-9,58673239,-32359
32-10,58677145,-11469
32-11,58681051,17713
32-12,58684957,32767
32-13,58688863,25551
32-14,58692769,-853
32-15,58696675,-29152
32-16,58700581,-32714
32-17,58704487,-28384
32-18,58708393,-80
32-19,58712299,26330
32-20,58716205,32767
32-21,58720111,18999
32-22,58724017,-10948
32-23,58727923,-32768
32-24,58731829,-32359
32-25,58735735,-21301
32-26,58739641,6788
32-27,58743547,31226
32-28,58747453,32767
32-29,58751359,29688
32-30,58755265,2427
32-31,58759171,-23121
32-32,58763077,-31032
32-1,58766989,-16928
32-2,58770895,11129
32-3,58774801,32704
32-4,58778707,32295
32-5,58782613,20527
32-6,58786519,-8484
32-7,58790425,-28347
32-8,58794331,-26591
32-9,58798237,-4562
32-10,58802143,20610
32-11,58806049,28883
32-12,58809955,14095
32-13,58813861,-14941
32-14,58817767,-32768
32-15,58821673,-32359
32-16,58825579,-20785
32-17,58829485,8868
32-18,58833391,31100
32-19,58837297,32767
32-20,58841203,13437
32-21,58845109,-17616
32-22,58849015,-32717
32-23,58852921,-32309
32-24,58856827,-12670
32-25,58860733,13559
32-26,58864639,29996
32-27,58868545,32767
32-28,58872451,27976
32-29,58876357,11558
32-30,58880263,-3556
32-31,58884169,-10153
32-32,58888075,-3258
32-1,58891986,13573
32-2,58895892,26309
32-3,58899798,23643
32-4,58903704,2618
32-5,58907610,-22978
32-6,58911516,-32768
32-7,58915422,-21549
32-8,58919328,3968
32-9,58923234,25340
32-10,58927140,26423
32-11,58931046,5367
32-12,58934952,-24369
32-13,58938858,-32768
32-14,58942764,-32359
32-15,58946670,-12918
32-16,58950576,16715
32-17,58954482,32767
32-18,58958388,29683
32-19,58962294,4916
32-20,58966200,-25837
32-21,58970106,-32768
32-22,58974012,-30651
32-23,58977918,-2468
32-24,58981824,23562
32-25,58985730,29966
32-26,58989636,16797
32-27,58993542,-4477
32-28,58997448,-18189
32-29,59001354,-14888
32-30,59005260,-1048
32-31,59009166,15390
32-32,59013072,26933
32-1,59016953,30284
32-2,59020859,21650
32-3,59024765,-631
32-4,59028671,-23120
32-5,59032577,-29536
32-6,59036483,-14279
32-7,59040389,10415
32-8,59044295,24185
32-9,59048201,15798
32-10,59052107,-10433
32-11,59056013,-32768
32-12,59059919,-32359
32-13,59063825,-30363
32-14,59067731,-3241
32-15,59071637,23916
32-16,59075543,32767
32-17,59079449,26642
32-18,59083355,-1947
32-19,59087261,-30762
32-20,59091167,-32694
32-21,59095073,-25934
32-22,59098979,4996
32-23,59102885,30965
32-24,59106791,32715
32-25,59110697,13719
32-26,59114603,-14062
32-27,59118509,-27610
32-28,59122415,-17857
32-29,59126321,3964
32-30,59130227,24770
32-31,59134133,32517
32-32,59138039,32110
32-1,59141981,18764
32-2,59145887,-5126
32-3,59149793,-25441
32-4,59153699,-26765
32-5,59157605,-7549
32-6,59161511,16022
32-7,59165417,23736
32-8,59169323,8781
32-9,59173229,-19371
32-10,59177135,-32768
32-11,59181041,-32359
32-12,59184947,-23345
32-13,59188853,5397
32-14,59192759,29227
32-15,59196665,32767
32-16,59200571,19814
32-17,59204477,-10992
32-18,59208383,-32768
32-19,59212289,-32359
32-20,59216195,-17647
32-21,59220101,13458
32-22,59224007,32767
32-23,59227913,31248
32-24,59231819,5337
32-25,59235725,-25215
32-26,59239631,-32768
32-27,59243537,-24443
32-28,59247443,2997
32-29,59251349,29147
32-30,59255255,32670
32-31,59259161,32261
32-32,59263067,13902
32-1,59266979,-13395
32-2,59270885,-29848
32-3,59274791,-25815
32-4,59278697,-1400
32-5,59282603,23977
32-6,59286509,30823
32-7,59290415,14311
32-8,59294321,-15448
32-9,59298227,-32768
32-10,59302133,-32359
32-11,59306039,-17407
32-12,59309945,12374
32-13,59313851,32273
32-14,59317757,30753
32-15,59321663,8119
32-16,59325569,-22338
32-17,59329475,-32504
32-18,59333381,-32098
32-19,59337287,-8007
32-20,59341193,21310
32-21,59345099,32767
32-22,59349005,24208
32-23,59352911,-3930
32-24,59356817,-31955
32-25,59360723,-32624
32-26,59364629,-28086
32-27,59368535,9
32-28,59372441,27604
32-29,59376347,32767
32-30,59380253,29659
32-31,59384159,1354
32-32,59388065,-26648
32-1,59391977,-32768
32-2,59395883,-22672
32-3,59399789,5650
32-4,59403695,31778
32-5,59407601,32582
32-6,59411507,28229
32-7,59415413,-250
32-8,59419319,-25378
32-9,59423225,-30194
32-10,59427131,-12079
32-11,59431037,15240
32-12,59434943,29446
32-13,59438849,20006
32-14,59442755,-7257
32-15,59446661,-32768
32-16,59450567,-32359
32-17,59454473,-27427
32-18,59458379,554
32-19,59462285,26895
32-20,59466191,32767
32-21,59470097,23319
32-22,59474003,-5962
32-23,59477909,-32232
32-24,59481815,-32584
32-25,59485721,-21335
32-26,59489627,5864
32-27,59493533,29373
32-28,59497439,32767
32-29,59501345,28090
32-30,59505251,3543
32-31,59509157,-19971
32-32,59513063,-27886
32-1,59516974,-15426
32-2,59520880,10176
32-3,59524786,32341
32-4,59528692,32219
32-5,59532598,20681
32-6,59536504,-6537
32-7,59540410,-25102
32-8,59544316,-23635
32-9,59548222,-3661
32-10,59552128,18376
32-11,59556034,24084
32-12,59559940,8268
32-13,59563846,-19762
32-14,59567752,-32768
32-15,59571658,-32359
32-16,59575564,-20242
32-17,59579470,8689
32-18,59583376,31566
32-19,59587282,32767
32-20,59591188,18573
32-21,59595094,-12425
32-22,59599000,-32768
32-23,59602906,-32359
32-24,59606812,-14066
32-25,59610718,13138
32-26,59614624,31382
32-27,59618530,32767
32-28,59622436,28373
32-29,59626342,9969
32-30,59630248,-6279
32-31,59634154,-12311
32-32,59638060,-3911
32-1,59641972,13815
32-2,59645878,25946
32-3,59649784,21140
32-4,59653690,-677
32-5,59657596,-22127
32-6,59661502,-28424
32-7,59665408,-23167
32-8,59669314,-16151
32-9,59673220,-14945
32-10,59677126,-20757
32-11,59681032,-30319
32-12,59684938,-31778
32-13,59688844,-31381
32-14,59692750,-24163
32-15,59696656,-4525
32-16,59700562,18269
32-17,59704468,32767
32-18,59708374,32358
32-19,59712280,31953
32-20,59716186,15617
32-21,59720092,-1515
32-22,59723998,-7093
32-23,59727904,1336
32-24,59731810,12920
32-25,59735716,13365
32-26,59739622,1062
32-27,59743528,-14046
32-28,59747434,-18517
32-29,59751340,-8450
32-30,59755246,5733
32-31,59759152,16467
32-32,59763058,21608
32-1,59767000,22141
32-2,59770906,15336
32-3,59774812,-2032
32-4,59778718,-20595
32-5,59782624,-27200
32-6,59786530,-14930
32-7,59790436,8400
32-8,59794342,23888
32-9,59798248,18538
32-10,59802154,-6112
32-11,59806060,-32768
32-12,59809966,-32768
32-13,59813872,-31535
32-14,59817778,-4591
32-15,59821684,22797
32-16,59825590,32767
32-17,59829496,23373
32-18,59833402,-5336
32-19,59837308,-32768
32-20,59841214,-32359
32-21,59845120,-24854
32-22,59849026,6230
32-23,59852932,30185
32-24,59856838,29965
32-25,59860744,8311
32-26,59864650,-19142
32-27,59868556,-30173
32-28,59872462,-18067
32-29,59876368,4777
32-30,59880274,25488
32-31,59884180,32767
32-32,59888086,32358
32-1,59891967,23088
32-2,59895873,-864
32-3,59899779,-22488
32-4,59903685,-26413
32-5,59907591,-8865
32-6,59911497,15881
32-7,59915403,26806
32-8,59919309,15068
32-9,59923215,-12514
32-10,59927121,-32768
32-11,59931027,-32359
32-12,59934933,-24052
32-13,59938839,5187
32-14,59942745,27637
32-15,59946651,29719
32-16,59950557,9767
32-17,59954463,-20661
32-18,59958369,-32301
32-19,59962275,-31898
32-20,59966181,-15556
32-21,59970087,14895
32-22,59973993,32767
32-23,59977899,29405
32-24,59981805,3008
32-25,59985711,-27356
32-26,59989617,-32768
32-27,59993523,-24078
32-28,59997429,3369
32-29,60001335,28573
32-30,60005241,32668
32-31,60009147,32259
32-32,60013053,21019
32-1,60016965,-4743
32-2,60020871,-22528
32-3,60024777,-21591
32-4,60028683,-1277
32-5,60032589,19277
32-6,60036495,21582
32-7,60040401,2915
32-8,60044307,-24883
32-9,60048213,-32768
32-10,60052119,-32359
32-11,60056025,-16649
32-12,60059931,12162
32-13,60063837,32695
32-14,60067743,32767
32-15,60071649,13667
32-16,60075555,-17243
32-17,60079461,-32724
32-18,60083367,-32316
32-19,60087273,-9635
32-20,60091179,20302
32-21,60095085,32767
32-22,60098991,25921
32-23,60102897,-1817
32-24,60106803,-30390
32-25,60110709,-32691
32-26,60114615,-28542
32-27,60118521,-690
32-28,60122427,27212
32-29,60126333,32767
32-30,60130239,29757
32-31,60134145,1608
32-32,60138051,-26381
32-1,60141963,-32768
32-2,60145869,-22603
32-3,60149775,5652
32-4,60153681,31681
32-5,60157587,32582
32-6,60161493,27928
32-7,60165399,-542
32-8,60169305,-25470
32-9,60173211,-30186
32-10,60177117,-12121
32-11,60181023,15194
32-12,60184929,29560
32-13,60188835,20414
32-14,60192741,-6690
32-15,60196647,-32768
32-16,60200553,-32359
32-17,60204459,-27309
32-18,60208365,1071
32-19,60212271,26906
32-20,60216177,32767
32-21,60220083,19737
32-22,60223989,-10148
32-23,60227895,-32768
32-24,60231801,-32359
32-25,60235707,-21250
32-26,60239613,6943
32-27,60243519,31414
32-28,60247425,32767
32-29,60251331,29594
32-30,60255237,2373
32-31,60259143,-22940
32-32,60263049,-30515
32-1,60266960,-16437
32-2,60270866,10835
32-3,60274772,32694
32-4,60278678,32285
32-5,60282584,23238
32-6,60286490,-3374
32-7,60290396,-22067
32-8,60294302,-21138
32-9,60298208,-2996
32-10,60302114,15981
32-11,60306020,18535
32-12,60309926,1380
32-13,60313832,-25110
32-14,60317738,-32768
32-15,60321644,-32359
32-16,60325550,-18840
32-17,60329456,9628
32-18,60333362,31751
32-19,60337268,32767
32-20,60341174,18131
32-21,60345080,-13044
32-22,60348986,-32768
32-23,60352892,-32359
32-24,60356798,-13631
32-25,60360704,14504
32-26,60364610,32757
32-27,60368516,32750
32-28,60372422,27020
32-29,60376328,7719
32-30,60380234,-7582
32-31,60384140,-12012
32-32,60388046,-2750
32-1,60392019,14698
32-2,60395925,26283
32-3,60399831,23530
32-4,60403737,3490
32-5,60407643,-21475
32-6,60411549,-31720
32-7,60415455,-21250
32-8,60419361,3580
32-9,60423267,24530
32-10,60427173,25515
32-11,60431079,4491
32-12,60434985,-25102
32-13,60438891,-32768
32-14,60442797,-32359
32-15,60446703,-13351
32-16,60450609,16249
32-17,60454515,32767
32-18,60458421,32358
32-19,60462327,9301
32-20,60466233,-22286
32-21,60470139,-32768
32-22,60474045,-30281
32-23,60477951,-2744
32-24,60481857,22672
32-25,60485763,27281
32-26,60489669,11873
32-27,60493575,-9522
32-28,60497481,-21115
32-29,60501387,-15063
32-30,60505293,539
32-31,60509199,16590
32-32,60513105,27161
32-1,60516986,31012
32-2,60520892,24051
32-3,60524798,3641
32-4,60528704,-18406
32-5,60532610,-26562
32-6,60536516,-13713
32-7,60540422,9798
32-8,60544328,24115
32-9,60548234,17093
32-10,60552140,-8470
32-11,60556046,-32768
32-12,60559952,-32359
32-13,60563858,-30746
32-14,60567764,-4033
32-15,60571670,23373
32-16,60575576,32767
32-17,60579482,27130
32-18,60583388,-897
32-19,60587294,-29871
32-20,60591200,-32724
32-21,60595106,-26307
32-22,60599012,4364
32-23,60602918,30471
32-24,60606824,32703
32-25,60610730,12917
32-26,60614636,-14796
32-27,60618542,-27682
32-28,60622448,-16990
32-29,60626354,5179
32-30,60630260,25405
32-31,60634166,32491
32-32,60638072,31446
32-1,60641953,17492
32-2,60645859,-5946
32-3,60649765,-25895
32-4,60653671,-27351
32-5,60657577,-8340
32-6,60661483,15662
32-7,60665389,24365
32-8,60669295,10396
32-9,60673201,-17425
32-10,60677107,-32768
32-11,60681013,-32359
32-12,60684919,-24238
32-13,60688825,4218
32-14,60692731,28569
32-15,60696637,32767
32-16,60700543,20571
32-17,60704449,-9825
32-18,60708355,-32768
32-19,60712261,-32359
32-20,60716167,-17653
32-21,60720073,13002
32-22,60723979,32486
32-23,60727885,26710
32-24,60731791,-930
32-25,60735697,-30085
32-26,60739603,-32251
32-27,60743509,-23785
32-28,60747415,4821
32-29,60751321,30799
32-30,60755227,32767
32-31,60759133,32358
32-32,60763039,10648
32-1,60766951,-17753
32-2,60770857,-32768
32-3,60774763,-27967
32-4,60778669,-2365
32-5,60782575,25979
32-6,60786481,32767
32-7,60790387,26180
32-8,60794293,-2422
32-9,60798199,-29164
32-10,60802105,-32702
32-11,60806011,-20094
32-12,60809917,9438
32-13,60813823,30848
32-14,60817729,29892
32-15,60821635,7233
32-16,60825541,-23024
32-17,60829447,-32725
32-18,60833353,-32316
32-19,60837259,-9068
32-20,60841165,20235
32-21,60845071,32767
32-22,60848977,25137
32-23,60852883,-2389
32-24,60856789,-30837
32-25,60860695,-32668
32-26,60864601,-29000
32-27,60868507,-437
32-28,60872413,27426
32-29,60876319,32767
32-30,60880225,26084
32-31,60884131,-3799
32-32,60888037,-31121
32-1,60891948,-32660
32-2,60895854,-22789
32-3,60899760,5976
32-4,60903666,31688
32-5,60907572,32687
32-6,60911478,30411
32-7,60915384,2911
32-8,60919290,-22814
32-9,60923196,-29250
32-10,60927102,-12745
32-11,60931008,14157
32-12,60934914,28991
32-13,60938820,20415
32-14,60942726,-6389
32-15,60946632,-32768
32-16,60950538,-32524
32-17,60954444,-28057
32-18,60958350,159
32-19,60962256,26237
32-20,60966162,32767
32-21,60970068,19936
32-22,60973974,-9930
32-23,60977880,-32768
32-24,60981786,-32359
32-25,60985692,-21831
32-26,60989598,6276
32-27,60993504,31006
32-28,60997410,32767
32-29,61001316,30103
32-30,61005222,3042
32-31,61009128,-22661
32-32,61013034,-30821
32-1,61017068,-16889
32-2,61020974,11112
32-3,61024880,32682
32-4,61028786,32273
32-5,61032692,19615
32-6,61036598,-9830
32-7,61040504,-29576
32-8,61044410,-26673
32-9,61048316,-3965
32-10,61052222,20045
32-11,61056128,25770
32-12,61060034,8684
32-13,61063940,-20351
32-14,61067846,-32768
32-15,61071752,-32359
32-16,61075658,-20101
32-17,61079564,9180
32-18,61083470,31816
32-19,61087376,32767
32-20,61091282,18587
32-21,61095188,-12648
32-22,61099094,-32768
32-23,61103000,-32359
32-24,61106906,-13859
32-25,61110812,13525
32-26,61114718,32178
32-27,61118624,32767
32-28,61122530,30014
32-29,61126436,11152
32-30,61130342,-5787
32-31,61134248,-12389
32-32,61138154,-4484
32-1,61141944,12963
32-2,61145850,25847
32-3,61149756,24405
32-4,61153662,5493
32-5,61157568,-18627
32-6,61161474,-29289
32-7,61165380,-20224
32-8,61169286,3197
32-9,61173192,23619
32-10,61177098,24867
32-11,61181004,4278
32-12,61184910,-25105
32-13,61188816,-32768
32-14,61192722,-32359
32-15,61196628,-12842
32-16,61200534,16705
32-17,61204440,32767
32-18,61208346,29669
32-19,61212252,4766
32-20,61216158,-25691
32-21,61220064,-32768
32-22,61223970,-31035
32-23,61227876,-5091
32-24,61231782,22095
32-25,61235688,32767
32-26,61239594,31720
32-27,61243500,18902
32-28,61247406,6965
32-29,61251312,3951
32-30,61255218,5813
32-31,61259124,9383
32-32,61263030,12309
32-1,61266972,12732
32-2,61270878,7049
32-3,61274784,-8711
32-4,61278690,-25969
32-5,61282596,-30922
32-6,61286502,-15827
32-7,61290408,10056
32-8,61294314,26232
32-9,61298220,20306
32-10,61302126,-5150
32-11,61306032,-32409
32-12,61309938,-32768
32-13,61313844,-31628
32-14,61317750,-4811
32-15,61321656,23042
32-16,61325562,32767
32-17,61329468,26585
32-18,61333374,-1503
32-19,61337280,-30712
32-20,61341186,-32699
32-21,61345092,-24958
32-22,61348998,5842
32-23,61352904,28818
32-24,61356810,26343
32-25,61360716,3147
32-26,61364622,-23199
32-27,61368528,-31478
32-28,61372434,-17320
32-29,61376340,5800
32-30,61380246,25482
32-31,61384152,32767
32-32,61388058,32358
32-1,61391939,26306
32-2,61395845,3049
32-3,61399751,-19123
32-4,61403657,-24171
32-5,61407563,-8024
32-6,61411469,14926
32-7,61415375,23884
32-8,61419281,10871
32-9,61423187,-16509
32-10,61427093,-32768
32-11,61430999,-32359
32-12,61434905,-24240
32-13,61438811,4116
32-14,61442717,28613
32-15,61446623,32767
32-16,61450529,20528
32-17,61454435,-9824
32-18,61458341,-32768
32-19,61462247,-32359
32-20,61466153,-16859
32-21,61470059,13219
32-22,61473965,31072
32-23,61477871,23387
32-24,61481777,-4902
32-25,61485683,-32530
32-26,61489589,-32124
32-27,61493495,-22434
32-28,61497401,5445
32-29,61501307,29349
32-30,61505213,32767
32-31,61509119,32358
32-32,61513025,20710
32-1,61516936,-5081
32-2,61520842,-23408
32-3,61524748,-23634
32-4,61528654,-2537
32-5,61532560,22448
32-6,61536466,30975
32-7,61540372,16374
32-8,61544278,-12996
32-9,61548184,-32768
32-10,61552090,-32359
32-11,61555996,-18560
32-12,61559902,11143
32-13,61563808,31872
32-14,61567714,31132
32-15,61571620,9051
32-16,61575526,-21387
32-17,61579432,-32497
32-18,61583338,-32091
32-19,61587244,-8985
32-20,61591150,20527
32-21,61595056,32767
32-22,61598962,25259
32-23,61602868,-2350
32-24,61606774,-30841
32-25,61610680,-32671
32-26,61614586,-28941
32-27,61618492,-325
32-28,61622398,27452
32-29,61626304,32767
32-30,61630210,25812
32-31,61634116,-4038
32-32,61638022,-31217
32-1,61642087,-32652
32-2,61645993,-22835
32-3,61649899,5921
32-4,61653805,31618
32-5,61657711,32698
32-6,61661617,30283
32-7,61665523,2757
32-8,61669429,-22971
32-9,61673335,-29467
32-10,61677241,-12902
32-11,61681147,14331
32-12,61685053,29757
32-13,61688959,21643
32-14,61692865,-5141
32-15,61696771,-32493
32-16,61700677,-32768
32-17,61704583,-28006
32-18,61708489,797
32-19,61712395,25696
32-20,61716301,30901
32-21,61720207,13781
32-22,61724113,-16397
32-23,61728019,-32695
32-24,61731925,-32287
32-25,61735831,-20799
32-26,61739737,6680
32-27,61743643,30774
32-28,61747549,32767
32-29,61751455,32358
32-30,61755361,7561
32-31,61759267,-19208
32-32,61763173,-29617
32-1,61766932,-17556
32-2,61770838,9866
32-3,61774744,32563
32-4,61778650,32156
32-5,61782556,20754
32-6,61786462,-7970
32-7,61790368,-28120
32-8,61794274,-26973
32-9,61798180,-5217
32-10,61802086,20325
32-11,61805992,29342
32-12,61809898,14964
32-13,61813804,-14410
32-14,61817710,-32768
32-15,61821616,-32359
32-16,61825522,-21546
32-17,61829428,8310
32-18,61833334,30939
32-19,61837240,32767
32-20,61841146,14195
32-21,61845052,-17007
32-22,61848958,-32734
32-23,61852864,-32325
32-24,61856770,-13411
32-25,61860676,13046
32-26,61864582,30333
32-27,61868488,32767
32-28,61872394,29698
32-29,61876300,12647
32-30,61880206,-3627
32-31,61884112,-11006
32-32,61888018,-4335
32-1,61891929,12765
32-2,61895835,25997
32-3,61899741,23936
32-4,61903647,3579
32-5,61907553,-21894
32-6,61911459,-32693
32-7,61915365,-22183
32-8,61919271,2969
32-9,61923177,24489
32-10,61927083,25868
32-11,61930989,4859
32-12,61934895,-24952
32-13,61938801,-32768
32-14,61942707,-32359
32-15,61946613,-13240
32-16,61950519,16432
32-17,61954425,32767
32-18,61958331,29389
32-19,61962237,4514
32-20,61966143,-26128
32-21,61970049,-32768
32-22,61973955,-31165
32-23,61977861,-3683
32-24,61981767,23107
32-25,61985673,32419
32-26,61989579,23427
32-27,61993485,5023
32-28,61997391,-8442
32-29,62001297,-7035
32-30,62005203,3427
32-31,62009109,16191
32-32,62013015,24698
32-1,62016958,25760
32-2,62020864,16709
32-3,62024770,-4313
32-4,62028676,-25355
32-5,62032582,-30657
32-6,62036488,-14833
32-7,62040394,10147
32-8,62044300,24019
32-9,62048206,15344
32-10,62052112,-10992
32-11,62056018,-32768
32-12,62059924,-32359
32-13,62063830,-30158
32-14,62067736,-2257
32-15,62071642,24176
32-16,62075548,32767
32-17,62079454,21872
32-18,62083360,-7746
32-19,62087266,-32768
32-20,62091172,-32359
32-21,62095078,-25263
32-22,62098984,5827
32-23,62102890,31848
32-24,62106796,32767
32-25,62110702,17150
32-26,62114608,-10473
32-27,62118514,-24813
32-28,62122420,-16096
32-29,62126326,4858
32-30,62130232,25301
32-31,62134138,32406
32-32,62138044,32001
32-1,62141925,19171
32-2,62145831,-4284
32-3,62149737,-24920
32-4,62153643,-27615
32-5,62157549,-9103
32-6,62161455,16188
32-7,62165361,27383
32-8,62169267,15641
32-9,62173173,-12158
32-10,62177079,-32768
32-11,62180985,-32359
32-12,62184891,-24590
32-13,62188797,4525
32-14,62192703,28350
32-15,62196609,32767
32-16,62200515,14914
32-17,62204421,-15743
32-18,62208327,-32545
32-19,62212233,-32139
32-20,62216139,-16938
32-21,62220045,13864
32-22,62223951,32767
32-23,62227857,30690
32-24,62231763,4916
32-25,62235669,-25647
32-26,62239575,-32768
32-27,62243481,-24678
32-28,62247387,2709
32-29,62251293,28338
32-30,62255199,32686
32-31,62259105,32278
32-32,62263011,18145
32-1,62267075,-7311
32-2,62270981,-24201
32-3,62274887,-22797
32-4,62278793,-1515
32-5,62282699,21591
32-6,62286605,27398
32-7,62290511,11020
32-8,62294417,-18025
32-9,62298323,-32768
32-10,62302229,-32359
32-11,62306135,-18115
32-12,62310041,11305
32-13,62313947,32763
32-14,62317853,32767
32-15,62321759,14054
32-16,62325665,-16878
32-17,62329571,-32734
32-18,62333477,-32325
32-19,62337383,-9367
32-20,62341289,19900
32-21,62345195,32696
32-22,62349101,21755
32-23,62353007,-6637
32-24,62356913,-32653
32-25,62360819,-32245
32-26,62364725,-27487
32-27,62368631,-34
32-28,62372537,26976
32-29,62376443,32767
32-30,62380349,32013
32-31,62384255,5297
32-32,62388161,-24104
32-1,62391920,-32768
32-2,62395826,-20169
32-3,62399732,7834
32-4,62403638,26531
32-5,62407544,21315
32-6,62411450,-3846
32-7,62415356,-31588
32-8,62419262,-32362
32-9,62423168,-31914
32-10,62427074,-8524
32-11,62430980,17145
32-12,62434886,32767
32-13,62438792,32358
32-14,62442698,29768
32-15,62446604,3626
32-16,62450510,-18029
32-17,62454416,-21081
32-18,62458322,-3856
32-19,62462228,17755
32-20,62466134,23341
32-21,62470040,6722
32-22,62473946,-21678
32-23,62477852,-32768
32-24,62481758,-32359
32-25,62485664,-19802
32-26,62489570,6573
32-27,62493476,29971
32-28,62497382,32767
32-29,62501288,32121
32-30,62505194,6307
32-31,62509100,-19719
32-32,62513006,-29309
32-1,62516918,-16930
32-2,62520824,9955
32-3,62524730,32550
32-4,62528636,32168
32-5,62532542,18122
32-6,62536448,-10288
32-7,62540354,-29162
32-8,62544260,-26441
32-9,62548166,-4330
32-10,62552072,19724
32-11,62555978,26526
32-12,62559884,10620
32-13,62563790,-18426
32-14,62567696,-32768
32-15,62571602,-32359
32-16,62575508,-21189
32-17,62579414,8131
32-18,62583320,31319
32-19,62587226,32767
32-20,62591132,19065
32-21,62595038,-12125
32-22,62598944,-32768
32-23,62602850,-32359
32-24,62606756,-14834
32-25,62610662,12620
32-26,62614568,31775
32-27,62618474,32767
32-28,62622380,28292
32-29,62626286,12102
32-30,62630192,-2100
32-31,62634098,-12089
32-32,62638004,-17790
32-1,62641915,-20650
32-2,62645821,-23364
32-3,62649727,-27419
32-4,62653633,-31984
32-5,62657539,-31585
32-6,62661445,-30548
32-7,62665351,-13781
32-8,62669257,9650
32-9,62673163,30049
32-10,62677069,32767
32-11,62680975,32358
32-12,62684881,27212
32-13,62688787,18042
32-14,62692693,11382
32-15,62696599,8489
32-16,62700505,9236
32-17,62704411,8145
32-18,62708317,638
32-19,62712223,-15472
32-20,62716129,-32768
32-21,62720035,-32768
32-22,62723941,-29371
32-23,62727847,-4086
32-24,62731753,21313
32-25,62735659,32767
32-26,62739565,27944
32-27,62743471,13462
32-28,62747377,2050
32-29,62751283,1683
32-30,62755189,6611
32-31,62759095,11758
32-32,62763001,14719
32-1,62766943,15277
32-2,62770849,10388
32-3,62774755,-5012
32-4,62778661,-22724
32-5,62782567,-28520
32-6,62786473,-15028
32-7,62790379,8321
32-8,62794285,21600
32-9,62798191,13625
32-10,62802097,-11404
32-11,62806003,-32768
32-12,62809909,-32359
32-13,62813815,-30655
32-14,62817721,-4259
32-15,62821627,22838
32-16,62825533,32767
32-17,62829439,26264
32-18,62833345,-1758
32-19,62837251,-30494
32-20,62841157,-32695
32-21,62845063,-26810
32-22,62848969,3796
32-23,62852875,30231
32-24,62856781,32748
32-25,62860687,14306
32-26,62864593,-13070
32-27,62868499,-26239
32-28,62872405,-16162
32-29,62876311,5486
32-30,62880217,25559
32-31,62884123,32462
32-32,62888029,32056
32-1,62891910,18688
32-2,62895816,-4834
32-3,62899722,-25208
32-4,62903628,-27196
32-5,62907534,-8769
32-6,62911440,14647
32-7,62915346,22892
32-8,62919252,9030
32-9,62923158,-18226
32-10,62927064,-32768
32-11,62930970,-32359
32-12,62934876,-24222
32-13,62938782,4085
32-14,62942688,28397
32-15,62946594,32767
32-16,62950500,20425
32-17,62954406,-9938
32-18,62958312,-32768
32-19,62962218,-32359
32-20,62966124,-18465
32-21,62970030,12381
32-22,62973936,32767
32-23,62977842,31194
32-24,62981748,5653
32-25,62985654,-24797
32-26,62989560,-32768
32-27,62993466,-24373
32-28,62997372,2795
32-29,63001278,28441
32-30,63005184,32681
32-31,63009090,32272
32-32,63012996,18734
32-1,63016908,-6751
32-2,63020814,-23908
32-3,63024720,-22920
32-4,63028626,-1803
32-5,63032532,21560
32-6,63036438,27848
32-7,63040344,11935
32-8,63044250,-17088
32-9,63048156,-32768
32-10,63052062,-32359
32-11,63055968,-18003
32-12,63059874,11607
32-13,63063780,32264
32-14,63067686,32026
32-15,63071592,10458
32-16,63075498,-20191
32-17,63079404,-32558
32-18,63083310,-32152
32-19,63087216,-9213
32-20,63091122,20466
32-21,63095028,32767
32-22,63098934,25801
32-23,63102840,-1627
32-24,63106746,-30219
32-25,63110652,-32694
32-26,63114558,-28791
32-27,63118464,-1031
32-28,63122370,26894
32-29,63126276,32767
32-30,63130182,29481
32-31,63134088,1405
32-32,63137994,-26961
32-1,63141906,-32768
32-2,63145812,-22583
32-3,63149718,7589
32-4,63153624,31810
32-5,63157530,32556
32-6,63161436,12849
32-7,63165342,-18697
32-8,63169248,-32768
32-9,63173154,-32359
32-10,63177060,-13377
32-11,63180966,15121
32-12,63184872,32767
32-13,63188778,32358
32-14,63192684,27681
32-15,63196590,369
32-16,63200496,-20465
32-17,63204402,-21049
32-18,63208308,-3146
32-19,63212214,16216
32-20,63216120,18249
32-21,63220026,-115
32-22,63223932,-26871
32-23,63227838,-32768
32-24,63231744,-32359
32-25,63235650,-18393
32-26,63239556,7048
32-27,63243462,29836
32-28,63247368,32767
32-29,63251274,32358
32-30,63255180,9421
32-31,63259086,-16753
32-32,63262992,-27690
32-1,63266903,-16641
32-2,63270809,9857
32-3,63274715,32473
32-4,63278621,32067
32-5,63282527,17477
32-6,63286433,-11479
32-7,63290339,-30449
32-8,63294245,-27750
32-9,63298151,-4937
32-10,63302057,20801
32-11,63305963,29679
32-12,63309869,15160
32-13,63313775,-14387
32-14,63317681,-32768
32-15,63321587,-32359
32-16,63325493,-22002
32-17,63329399,7668
32-18,63333305,31406
32-19,63337211,32767
32-20,63341117,19022
32-21,63345023,-12187
32-22,63348929,-32768
32-23,63352835,-32359
32-24,63356741,-14311
32-25,63360647,12492
32-26,63364553,30295
32-27,63368459,32767
32-28,63372365,27136
32-29,63376271,8898
32-30,63380177,-7406
32-31,63384083,-13430
32-32,63387989,-5255
32-1,63391901,12774
32-2,63395807,26726
32-3,63399713,25900
32-4,63403619,6946
32-5,63407525,-18050
32-6,63411431,-29434
32-7,63415337,-20391
32-8,63419243,2707
32-9,63423149,22090
32-10,63427055,21895
32-11,63430961,600
32-12,63434867,-27893
32-13,63438773,-32768
32-14,63442679,-32359
32-15,63446585,-13384
32-16,63450491,15733
32-17,63454397,32767
32-18,63458303,32358
32-19,63462209,9158
32-20,63466115,-22161
32-21,63470021,-32768
32-22,63473927,-31657
32-23,63477833,-5118
32-24,63481739,22205
32-25,63485645,32371
32-26,63489551,23813
32-27,63493457,6048
32-28,63497363,-6652
32-29,63501269,-4878
32-30,63505175,4881
32-31,63509081,15642
32-32,63512987,21988
32-1,63516929,22050
32-2,63520835,13802
32-3,63524741,-5485
32-4,63528647,-25280
32-5,63532553,-30609
32-6,63536459,-15556
32-7,63540365,9447
32-8,63544271,24286
32-9,63548177,16844
32-10,63552083,-8866
32-11,63555989,-32768
32-12,63559895,-32359
32-13,63563801,-31097
32-14,63567707,-4508
32-15,63571613,22880
32-16,63575519,32767
32-17,63579425,27119
32-18,63583331,-585
32-19,63587237,-29886
32-20,63591143,-32728
32-21,63595049,-26374
32-22,63598955,4439
32-23,63602861,29175
32-24,63606767,29337
32-25,63610673,7539
32-26,63614579,-19785
32-27,63618485,-30562
32-28,63622391,-18388
32-29,63626297,4475
32-30,63630203,25421
32-31,63634109,32738
32-32,63638015,32328
32-1,63641896,23692
32-2,63645802,-1031
32-3,63649708,-23285
32-4,63653614,-27478
32-5,63657520,-9865
32-6,63661426,15504
32-7,63665332,27152
32-8,63669238,16220
32-9,63673144,-10931
32-10,63677050,-32768
32-11,63680956,-32359
32-12,63684862,-25328
32-13,63688768,3355
32-14,63692674,27740
32-15,63696580,32767
32-16,63700486,16158
32-17,63704392,-14228
32-18,63708298,-32768
32-19,63712204,-32359
32-20,63716110,-17367
32-21,63720016,13102
32-22,63723922,32213
32-23,63727828,26780
32-24,63731734,-517
32-25,63735640,-29847
32-26,63739546,-32261
32-27,63743452,-23500
32-28,63747358,4400
32-29,63751264,29073
32-30,63755170,32767
32-31,63759076,32358
32-32,63762982,20668
32-1,63766894,-4945
32-2,63770800,-22757
32-3,63774706,-22208
32-4,63778612,-1968
32-5,63782518,19214
32-6,63786424,22506
32-7,63790330,4615
32-8,63794236,-23403
32-9,63798142,-32768
32-10,63802048,-32359
32-11,63805954,-17840
32-12,63809860,11181
32-13,63813766,32464
32-14,63817672,32767
32-15,63821578,14933
32-16,63825484,-16246
32-17,63829390,-32753
32-18,63833296,-32344
32-19,63837202,-10857
32-20,63841108,19342
32-21,63845014,32767
32-22,63848920,26217
32-23,63852826,-997
32-24,63856732,-29791
32-25,63860638,-32713
32-26,63864544,-29439
32-27,63868450,-1243
32-28,63872356,26898
32-29,63876262,32767
32-30,63880168,26851
32-31,63884074,-2600
32-32,63887980,-30179
32-1,63891891,-32696
32-2,63895797,-23006
32-3,63899703,5280
32-4,63903609,30782
32-5,63907515,32675
32-6,63911421,31777
32-7,63915327,5966
32-8,63919233,-19075
32-9,63923139,-26077
32-10,63927045,-11253
32-11,63930951,13018
32-12,63934857,25184
32-13,63938763,14912
32-14,63942669,-11848
32-15,63946575,-32768
32-16,63950481,-32359
32-17,63954387,-27289
32-18,63958293,238
32-19,63962199,26440
32-20,63966105,32767
32-21,63970011,25606
32-22,63973917,-3217
32-23,63977823,-30291
32-24,63981729,-32671
32-25,63985635,-22416
32-26,63989541,5023
32-27,63993447,29765
32-28,63997353,32708
32-29,64001259,29043
32-30,64005165,3339
32-31,64009071,-21345
32-32,64012977,-29545
32-1,64016889,-16471
32-2,64020795,10231
32-3,64024701,32605
32-4,64028607,32197
32-5,64032513,20873
32-6,64036419,-7160
32-7,64040325,-26802
32-8,64044231,-25242
32-9,64048137,-4119
32-10,64052043,19213
32-11,64055949,25378
32-12,64059855,8990
32-13,64063761,-20004
32-14,64067667,-32768
32-15,64071573,-32359
32-16,64075479,-20692
32-17,64079385,8709
32-18,64083291,31518
32-19,64087197,32767
32-20,64091103,18227
32-21,64095009,-13226
32-22,64098915,-32768
32-23,64102821,-32359
32-24,64106727,-14387
32-25,64110633,13131
