32-1,16008338,4088
32-2,16012244,25930
32-3,16016150,19279
32-4,16020056,-14083
32-5,16023962,-24978
32-6,16027868,-18585
32-7,16031774,-14566
32-8,16035680,-5769
32-9,16039586,12534
32-10,16043492,27257
32-11,16047398,8104
32-12,16051304,-20674
32-13,16055210,-20573
32-14,16059116,-6757
32-15,16063022,10725
32-16,16066928,25707
32-17,16070834,31514
32-18,16074740,29982
32-19,16078646,-747
32-20,16082552,-23802
32-21,16086458,-19925
32-22,16090364,-9574
32-23,16094270,5961
32-24,16098176,23538
32-25,16102082,31050
32-26,16105988,22109
32-27,16109894,-12466
32-28,16113800,-25376
32-29,16117706,-19905
32-30,16121612,-18965
32-31,16125518,-14521
32-32,16129424,3999
32-1,16133244,23218
32-2,16137150,7946
32-3,16141056,-20920
32-4,16144962,-23691
32-5,16148868,-19124
32-6,16152774,-18684
32-7,16156680,-12948
32-8,16160586,4350
32-9,16164492,15464
32-10,16168398,-4435
32-11,16172304,-22597
32-12,16176210,-15429
32-13,16180116,995
32-14,16184022,18919
32-15,16187928,29743
32-16,16191834,31933
32-17,16195740,24073
32-18,16199646,-9713
32-19,16203552,-24537
32-20,16207458,-17828
32-21,16211364,-10003
32-22,16215270,2108
32-23,16219176,20510
32-24,16223082,31722
32-25,16226988,13636
32-26,16230894,-18750
32-27,16234800,-22974
32-28,16238706,-15702
32-29,16242612,-14806
32-30,16246518,-11587
32-31,16250424,9838
32-32,16254330,26495
32-1,16258242,1786
32-2,16262148,-23441
32-3,16266054,-20904
32-4,16269960,-17861
32-5,16273866,-17248
32-6,16277772,-9011
32-7,16281678,9569
32-8,16285584,12820
32-9,16289490,-10851
32-10,16293396,-21321
32-11,16297302,-10388
32-12,16301208,6452
32-13,16305114,22900
32-14,16309020,32239
32-15,16312926,32305
32-16,16316832,16068
32-17,16320738,-16196
32-18,16324644,-22516
32-19,16328550,-14771
32-20,16332456,-6798
32-21,16336362,6842
32-22,16340268,25716
32-23,16344174,32044
32-24,16348080,4124
32-25,16351986,-22859
32-26,16355892,-18200
32-27,16359798,-7906
32-28,16363704,-3313
32-29,16367610,-128
32-30,16371516,11375
32-31,16375422,15719
32-32,16379328,-7731
32-1,16383240,-23576
32-2,16387146,-19158
32-3,16391052,-16793
32-4,16394958,-14376
32-5,16398864,-1434
32-6,16402770,17144
32-7,16406676,9639
32-8,16410582,-16377
32-9,16414488,-20311
32-10,16418394,-9156
32-11,16422300,6232
32-12,16426206,22710
32-13,16430112,32767
32-14,16434018,32358
32-15,16437924,6125
32-16,16441830,-20632
32-17,16445736,-19435
32-18,16449642,-10039
32-19,16453548,1819
32-20,16457454,18005
32-21,16461360,32252
32-22,16465266,27551
32-23,16469172,-5642
32-24,16473078,-23514
32-25,16476984,-17090
32-26,16480890,-4926
32-27,16484796,5781
32-28,16488702,10320
32-29,16492608,11948
32-30,16496514,-362
32-31,16500420,-18977
32-32,16504326,-21375
32-1,16508237,-18687
32-2,16512143,-17115
32-3,16516049,-12240
32-4,16519955,3238
32-5,16523861,18314
32-6,16527767,1998
32-7,16531673,-20314
32-8,16535579,-17929
32-9,16539485,-5645
32-10,16543391,10941
32-11,16547297,26240
32-12,16551203,32684
32-13,16555109,28834
32-14,16559015,-3262
32-15,16562921,-22426
32-16,16566827,-16827
32-17,16570733,-7556
32-18,16574639,5048
32-19,16578545,21942
32-20,16582451,32200
32-21,16586357,19667
32-22,16590263,-14451
32-23,16594169,-22628
32-24,16598075,-13737
32-25,16601981,-3981
32-26,16605887,13950
32-27,16609793,26875
32-28,16613699,20464
32-29,16617605,-2682
32-30,16621511,-20378
32-31,16625417,-21352
32-32,16629323,-18644
32-1,16633387,-16942
32-2,16637293,-10762
32-3,16641199,7438
32-4,16645105,15473
32-5,16649011,-6728
32-6,16652917,-22303
32-7,16656823,-16249
32-8,16660729,-6219
32-9,16664635,7315
32-10,16668541,23315
32-11,16672447,32570
32-12,16676353,21220
32-13,16680259,-12737
32-14,16684165,-22467
32-15,16688071,-13878
32-16,16691977,-3346
32-17,16695883,11814
32-18,16699789,28590
32-19,16703695,32046
32-20,16707601,9588
32-21,16711507,-20174
32-22,16715413,-21058
32-23,16719319,-11207
32-24,16723225,923
32-25,16727131,17480
32-26,16731037,31947
32-27,16734943,28727
32-28,16738849,-4571
32-29,16742755,-24052
32-30,16746661,-20045
32-31,16750567,-16799
32-32,16754473,-11822
32-1,16758232,2953
32-2,16762138,23856
32-3,16766044,17877
32-4,16769950,-13759
32-5,16773856,-24011
32-6,16777762,-18142
32-7,16781668,-14930
32-8,16785574,-7087
32-9,16789480,11219
32-10,16793386,27046
32-11,16797292,8776
32-12,16801198,-19844
32-13,16805104,-20491
32-14,16809010,-9956
32-15,16812916,2775
32-16,16816822,18551
32-17,16820728,32335
32-18,16824634,31080
32-19,16828540,-552
32-20,16832446,-23086
32-21,16836352,-18358
32-22,16840258,-7865
32-23,16844164,6646
32-24,16848070,23230
32-25,16851976,31789
32-26,16855882,23017
32-27,16859788,-11134
32-28,16863694,-23854
32-29,16867600,-18646
32-30,16871506,-17908
32-31,16875412,-13738
32-32,16879318,4733
32-1,16883230,24545
32-2,16887136,9698
32-3,16891042,-19326
32-4,16894948,-22313
32-5,16898854,-17489
32-6,16902760,-16045
32-7,16906666,-8212
32-8,16910572,11467
32-9,16914478,22101
32-10,16918384,-1417
32-11,16922290,-22222
32-12,16926196,-17294
32-13,16930102,-6733
32-14,16934008,7194
32-15,16937914,22999
32-16,16941820,32514
32-17,16945726,24945
32-18,16949632,-9086
32-19,16953538,-22827
32-20,16957444,-13419
32-21,16961350,2133
32-22,16965256,20040
32-23,16969162,31701
32-24,16973068,31687
32-25,16976974,14206
32-26,16980880,-17373
32-27,16984786,-23296
32-28,16988692,-17582
32-29,16992598,-17993
32-30,16996504,-17840
32-31,17000410,-3332
32-32,17004316,11988
32-1,17008228,-3214
32-2,17012134,-21989
32-3,17016040,-20218
32-4,17019946,-16590
32-5,17023852,-13171
32-6,17027758,-1442
32-7,17031664,19602
32-8,17035570,20118
32-9,17039476,-9114
32-10,17043382,-22382
32-11,17047288,-11825
32-12,17051194,3994
32-13,17055100,17794
32-14,17059006,25625
32-15,17062912,31913
32-16,17066818,15792
32-17,17070724,-15458
32-18,17074630,-22094
32-19,17078536,-14297
32-20,17082442,-6179
32-21,17086348,7657
32-22,17090254,26481
32-23,17094160,32283
32-24,17098066,4631
32-25,17101972,-22252
32-26,17105878,-15736
32-27,17109784,-2693
32-28,17113690,2509
32-29,17117596,5012
32-30,17121502,16162
32-31,17125408,19240
32-32,17129314,-6489
32-1,17133225,-23483
32-2,17137131,-19035
32-3,17141037,-17159
32-4,17144943,-15832
32-5,17148849,-4287
32-6,17152755,13732
32-7,17156661,7852
32-8,17160567,-16419
32-9,17164473,-19955
32-10,17168379,-9098
32-11,17172285,4519
32-12,17176191,19623
32-13,17180097,32642
32-14,17184003,32452
32-15,17187909,6484
32-16,17191815,-20445
32-17,17195721,-19623
32-18,17199627,-11555
32-19,17203533,-1134
32-20,17207439,15147
32-21,17211345,32433
32-22,17215251,27949
32-23,17219157,-5195
32-24,17223063,-23343
32-25,17226969,-15707
32-26,17230875,243
32-27,17234781,13454
32-28,17238687,17524
32-29,17242593,18949
32-30,17246499,4630
32-31,17250405,-18094
32-32,17254311,-21650
32-1,17258681,-18417
32-2,17262587,-17255
32-3,17266493,-12825
32-4,17270399,1997
32-5,17274305,16745
32-6,17278211,1149
32-7,17282117,-20384
32-8,17286023,-16749
32-9,17289929,-1833
32-10,17293835,15920
32-11,17297741,28497
32-12,17301647,32324
32-13,17305553,28693
32-14,17309459,-3276
32-15,17313365,-23164
32-16,17317271,-18264
32-17,17321177,-10701
32-18,17325083,31
32-19,17328989,17371
32-20,17332895,32034
32-21,17336801,19785
32-22,17340707,-14599
32-23,17344613,-23074
32-24,17348519,-12664
32-25,17352425,1169
32-26,17356331,20763
32-27,17360237,31121
32-28,17364143,23795
32-29,17368049,-263
32-30,17371955,-20770
32-31,17375861,-22160
32-32,17379767,-19209
32-1,17383221,-18655
32-2,17387127,-14308
32-3,17391033,1126
32-4,17394939,9460
32-5,17398845,-8800
32-6,17402751,-22417
32-7,17406657,-16353
32-8,17410563,-4450
32-9,17414469,11651
32-10,17418375,26816
32-11,17422281,32275
32-12,17426187,21346
32-13,17430093,-12367
32-14,17433999,-22956
32-15,17437905,-15118
32-16,17441811,-6196
32-17,17445717,7162
32-18,17449623,24927
32-19,17453529,31908
32-20,17457435,10058
32-21,17461341,-20232
32-22,17465247,-21360
32-23,17469153,-11847
32-24,17473059,-761
32-25,17476965,15172
32-26,17480871,31869
32-27,17484777,28958
32-28,17488683,-4242
32-29,17492589,-24213
32-30,17496495,-20142
32-31,17500401,-17086
32-32,17504307,-12801
32-1,17508218,1034
32-2,17512124,21705
32-3,17516030,16967
32-4,17519936,-13662
32-5,17523842,-23965
32-6,17527748,-17879
32-7,17531654,-13390
32-8,17535560,-3985
32-9,17539466,14552
32-10,17543372,29409
32-11,17547278,9939
32-12,17551184,-19897
32-13,17555090,-21550
32-14,17558996,-12597
32-15,17562902,-2141
32-16,17566808,13321
32-17,17570714,30651
32-18,17574620,31053
32-19,17578526,-491
32-20,17582432,-23331
32-21,17586338,-18579
32-22,17590244,-8796
32-23,17594150,4599
32-24,17598056,21378
32-25,17601962,31898
32-26,17605868,23025
32-27,17609774,-11399
32-28,17613680,-23868
32-29,17617586,-18559
32-30,17621492,-17807
32-31,17625398,-13472
32-32,17629304,4915
32-1,17633216,24591
32-2,17637122,9711
32-3,17641028,-19327
32-4,17644934,-22286
32-5,17648840,-17495
32-6,17652746,-16327
32-7,17656652,-9247
32-8,17660558,9541
32-9,17664464,20442
32-10,17668370,-1769
32-11,17672276,-21948
32-12,17676182,-17210
32-13,17680088,-6996
32-14,17683994,6442
32-15,17687900,22328
32-16,17691806,32699
32-17,17695712,25089
32-18,17699618,-8982
32-19,17703524,-22758
32-20,17707430,-15054
32-21,17711336,-4846
32-22,17715242,9848
32-23,17719148,26682
32-24,17723054,32162
32-25,17726960,14544
32-26,17730866,-17206
32-27,17734772,-22131
32-28,17738678,-15859
32-29,17742584,-15665
32-30,17746490,-14246
32-31,17750396,3587
32-32,17754302,19893
32-1,17758213,224
32-2,17762119,-21849
32-3,17766025,-19766
32-4,17769931,-16407
32-5,17773837,-14374
32-6,17777743,-4015
32-7,17781649,16555
32-8,17785555,18574
32-9,17789461,-8729
32-10,17793367,-21461
32-11,17797273,-13377
32-12,17801179,-2505
32-13,17805085,12142
32-14,17808991,27785
32-15,17812897,32767
32-16,17816803,16693
32-17,17820709,-15561
32-18,17824615,-20860
32-19,17828521,-11333
32-20,17832427,736
32-21,17836333,17127
32-22,17840239,32122
32-23,17844145,32119
32-24,17848051,4999
32-25,17851957,-21393
32-26,17855863,-17117
32-27,17859769,-6221
32-28,17863675,-1488
32-29,17867581,1444
32-30,17871487,13512
32-31,17875393,18085
32-32,17879299,-6410
32-1,17883242,-23220
32-2,17887148,-18824
32-3,17891054,-16432
32-4,17894960,-14079
32-5,17898866,-1110
32-6,17902772,17595
32-7,17906678,10243
32-8,17910584,-16057
32-9,17914490,-20626
32-10,17918396,-11437
32-11,17922302,-115
32-12,17926208,15161
32-13,17930114,30897
32-14,17934020,32491
32-15,17937926,6595
32-16,17941832,-20376
32-17,17945738,-19112
32-18,17949644,-9005
32-19,17953550,6476
32-20,17957456,24114
32-21,17961362,32223
32-22,17965268,27731
32-23,17969174,-4455
32-24,17973080,-22784
32-25,17976986,-14072
32-26,17980892,4306
32-27,17984798,17720
32-28,17988704,20226
32-29,17992610,20108
32-30,17996516,5010
32-31,18000422,-18213
32-32,18004328,-22036
32-1,18008209,-18854
32-2,18012115,-18211
32-3,18016021,-14900
32-4,18019927,-1503
32-5,18023833,13243
32-6,18027739,-265
32-7,18031645,-20565
32-8,18035551,-18311
32-9,18039457,-7365
32-10,18043363,6264
32-11,18047269,21017
32-12,18051175,32385
32-13,18055081,29050
32-14,18058987,-3792
32-15,18062893,-23108
32-16,18066799,-18002
32-17,18070705,-10314
32-18,18074611,1345
32-19,18078517,19008
32-20,18082423,32050
32-21,18086329,20156
32-22,18090235,-14290
32-23,18094141,-22925
32-24,18098047,-12138
32-25,18101953,2392
32-26,18105859,21739
32-27,18109765,31513
32-28,18113671,24425
32-29,18117577,622
32-30,18121483,-20368
32-31,18125389,-22070
32-32,18129295,-18537
32-1,18133206,-16574
32-2,18137112,-9485
32-3,18141018,9369
32-4,18144924,17056
32-5,18148830,-6461
32-6,18152736,-23156
32-7,18156642,-17344
32-8,18160548,-6376
32-9,18164454,9776
32-10,18168360,26141
32-11,18172266,31972
32-12,18176172,21223
32-13,18180078,-12708
32-14,18183984,-23326
32-15,18187890,-13988
32-16,18191796,-541
32-17,18195702,16756
32-18,18199608,31051
32-19,18203514,31339
32-20,18207420,9783
32-21,18211326,-20391
32-22,18215232,-22056
32-23,18219138,-10375
32-24,18223044,4998
32-25,18226950,21821
32-26,18230856,31147
32-27,18234762,28126
32-28,18238668,-4804
32-29,18242574,-25354
32-30,18246480,-21696
32-31,18250386,-18855
32-32,18254292,-16056
32-1,18258204,-4003
32-2,18262110,16142
32-3,18266016,13233
32-4,18269922,-15025
32-5,18273828,-24707
32-6,18277734,-18875
32-7,18281640,-14563
32-8,18285546,-5561
32-9,18289452,12718
32-10,18293358,28099
32-11,18297264,9379
32-12,18301170,-20347
32-13,18305076,-22296
32-14,18308982,-13749
32-15,18312888,-4018
32-16,18316794,10958
32-17,18320700,29067
32-18,18324606,30750
32-19,18328512,-759
32-20,18332418,-24093
32-21,18336324,-19187
32-22,18340230,-9102
32-23,18344136,4662
32-24,18348042,21603
32-25,18351948,31723
32-26,18355854,23222
32-27,18359760,-11564
32-28,18363666,-24429
32-29,18367572,-19065
32-30,18371478,-18193
32-31,18375384,-13597
32-32,18379290,4964
32-1,18383202,24697
32-2,18387108,9779
32-3,18391014,-19743
32-4,18394920,-22948
32-5,18398826,-18049
32-6,18402732,-16943
32-7,18406638,-10066
32-8,18410544,8517
32-9,18414450,19856
32-10,18418356,-1803
32-11,18422262,-22047
32-12,18426168,-16763
32-13,18430074,-3502
32-14,18433980,13812
32-15,18437886,28174
32-16,18441792,32388
32-17,18445698,24887
32-18,18449604,-8619
32-19,18453510,-23463
32-20,18457416,-16221
32-21,18461322,-6665
32-22,18465228,6790
32-23,18469134,24051
32-24,18473040,31970
32-25,18476946,14500
32-26,18480852,-17978
32-27,18484758,-23093
32-28,18488664,-16931
32-29,18492570,-17021
32-30,18496476,-15855
32-31,18500382,1169
32-32,18504288,17494
32-1,18508199,-872
32-2,18512105,-22223
32-3,18516011,-20188
32-4,18519917,-16792
32-5,18523823,-14744
32-6,18527729,-4475
32-7,18531635,16085
32-8,18535541,18203
32-9,18539447,-9079
32-10,18543353,-21811
32-11,18547259,-13442
32-12,18551165,-1869
32-13,18555071,13474
32-14,18558977,28866
32-15,18562883,32767
32-16,18566789,16683
32-17,18570695,-15500
32-18,18574601,-21040
32-19,18578507,-11915
32-20,18582413,-725
32-21,18586319,15021
32-22,18590225,31099
32-23,18594131,32185
32-24,18598037,4682
32-25,18601943,-21765
32-26,18605849,-18473
32-27,18609755,-10080
32-28,18613661,-7372
32-29,18617567,-6040
32-30,18621473,3773
32-31,18625379,9480
32-32,18629285,-9028
32-1,18633258,-22248
32-2,18637164,-18345
32-3,18641070,-14863
32-4,18644976,-8910
32-5,18648882,8436
32-6,18652788,29163
32-7,18656694,17544
32-8,18660600,-14971
32-9,18664506,-21083
32-10,18668412,-11238
32-11,18672318,-376
32-12,18676224,14711
32-13,18680130,30697
32-14,18684036,32604
32-15,18687942,6753
32-16,18691848,-20348
32-17,18695754,-18898
32-18,18699660,-9342
32-19,18703566,3238
32-20,18707472,19720
32-21,18711378,32430
32-22,18715284,28108
32-23,18719190,-4522
32-24,18723096,-22707
32-25,18727002,-16487
32-26,18730908,-3608
32-27,18734814,7762
32-28,18738720,12561
32-29,18742626,14187
32-30,18746532,1271
32-31,18750438,-18348
32-32,18754344,-21070
32-1,18758195,-18284
32-2,18762101,-16695
32-3,18766007,-11603
32-4,18769913,4202
32-5,18773819,19651
32-6,18777725,3204
32-7,18781631,-19916
32-8,18785537,-18364
32-9,18789443,-8466
32-10,18793349,4319
32-11,18797255,20015
32-12,18801161,32767
32-13,18805067,29515
32-14,18808973,-3290
32-15,18812879,-22498
32-16,18816785,-16471
32-17,18820691,-6481
32-18,18824597,7634
32-19,18828503,24388
32-20,18832409,32195
32-21,18836315,20279
32-22,18840221,-13686
32-23,18844127,-22475
32-24,18848033,-11295
32-25,18851939,4597
32-26,18855845,23581
32-27,18859751,31776
32-28,18863657,25227
32-29,18867563,1596
32-30,18871469,-20361
32-31,18875375,-22220
32-32,18879281,-18686
32-1,18883192,-17356
32-2,18887098,-11198
32-3,18891004,6909
32-4,18894910,15284
32-5,18898816,-6690
32-6,18902722,-22790
32-7,18906628,-17118
32-8,18910534,-7400
32-9,18914440,5871
32-10,18918346,22015
32-11,18922252,32210
32-12,18926158,21542
32-13,18930064,-12828
32-14,18933970,-23498
32-15,18937876,-16258
32-16,18941782,-8324
32-17,18945688,5320
32-18,18949594,24232
32-19,18953500,31927
32-20,18957406,10542
32-21,18961312,-19922
32-22,18965218,-19846
32-23,18969124,-4271
32-24,18973030,14419
32-25,18976936,27822
32-26,18980842,31416
32-27,18984748,28149
32-28,18988654,-3810
32-29,18992560,-24548
32-30,18996466,-20959
32-31,19000372,-17426
32-32,19004278,-11878
32-1,19008190,4175
32-2,19012096,26555
32-3,19016002,20967
32-4,19019908,-13040
32-5,19023814,-25022
32-6,19027720,-18443
32-7,19031626,-13538
32-8,19035532,-2981
32-9,19039438,16765
32-10,19043344,31706
32-11,19047250,11619
32-12,19051156,-20375
32-13,19055062,-22973
32-14,19058968,-13994
32-15,19062874,-4012
32-16,19066780,11281
32-17,19070686,29198
32-18,19074592,30731
32-19,19078498,-646
32-20,19082404,-24260
32-21,19086310,-19129
32-22,19090216,-6511
32-23,19094122,10804
32-24,19098028,26493
32-25,19101934,31201
32-26,19105840,22828
32-27,19109746,-11467
32-28,19113652,-25011
32-29,19117558,-19484
32-30,19121464,-17937
32-31,19125370,-11282
32-32,19129276,10051
32-1,19133187,29726
32-2,19137093,11707
32-3,19140999,-20582
32-4,19144905,-24172
32-5,19148811,-19079
32-6,19152717,-18358
32-7,19156623,-12105
32-8,19160529,5511
32-9,19164435,16815
32-10,19168341,-3632
32-11,19172247,-22897
32-12,19176153,-15983
32-13,19180059,204
32-14,19183965,17955
32-15,19187871,29213
32-16,19191777,31777
32-17,19195683,24489
32-18,19199589,-9386
32-19,19203495,-24919
32-20,19207401,-18425
32-21,19211307,-10821
32-22,19215213,877
32-23,19219119,19127
32-24,19223025,31615
32-25,19226931,14303
32-26,19230837,-18765
32-27,19234743,-23716
32-28,19238649,-16292
32-29,19242555,-15542
32-30,19246461,-12520
32-31,19250367,8814
32-32,19254273,26318
32-1,19258185,2429
32-2,19262091,-23555
32-3,19265997,-21470
32-4,19269903,-17889
32-5,19273809,-16402
32-6,19277715,-6664
32-7,19281621,13363
32-8,19285527,16137
32-9,19289433,-10171
32-10,19293339,-22743
32-11,19297245,-13757
32-12,19301151,333
32-13,19305057,17565
32-14,19308963,30779
32-15,19312869,32329
32-16,19316775,16406
32-17,19320681,-16270
32-18,19324587,-22672
32-19,19328493,-13543
32-20,19332399,-2916
32-21,19336305,12306
32-22,19340211,29323
32-23,19344117,31888
32-24,19348023,4595
32-25,19351929,-22659
32-26,19355835,-19402
32-27,19359741,-11079
32-28,19363647,-8231
32-29,19367553,-6307
32-30,19371459,3449
32-31,19375365,9157
32-32,19379271,-9271
32-1,19383244,-23052
32-2,19387150,-19415
32-3,19391056,-16775
32-4,19394962,-13882
32-5,19398868,-762
32-6,19402774,18646
32-7,19406680,11417
32-8,19410586,-15958
32-9,19414492,-20854
32-10,19418398,-9468
32-11,19422304,6215
32-12,19426210,22913
32-13,19430116,32767
32-14,19434022,32358
32-15,19437928,6903
32-16,19441834,-20582
32-17,19445740,-19947
32-18,19449646,-10554
32-19,19453552,1010
32-20,19457458,17120
32-21,19461364,32276
32-22,19465270,27931
32-23,19469176,-5019
32-24,19473082,-23460
32-25,19476988,-17465
32-26,19480894,-5751
32-27,19484800,4800
32-28,19488706,9603
32-29,19492612,11495
32-30,19496518,-311
32-31,19500424,-18735
32-32,19504330,-21355
32-1,19508180,-18657
32-2,19512086,-17009
32-3,19515992,-12112
32-4,19519898,3610
32-5,19523804,19174
32-6,19527710,2782
32-7,19531616,-20366
32-8,19535522,-18752
32-9,19539428,-8620
32-10,19543334,4424
32-11,19547240,20224
32-12,19551146,32767
32-13,19555052,29453
32-14,19558958,-3618
32-15,19562864,-22975
32-16,19566770,-16938
32-17,19570676,-7025
32-18,19574582,6889
32-19,19578488,23836
32-20,19582394,32235
32-21,19586300,20307
32-22,19590206,-13869
32-23,19594112,-22814
32-24,19598018,-13947
32-25,19601924,-3688
32-26,19605830,14374
32-27,19609736,27301
32-28,19613642,21588
32-29,19617548,-1347
32-30,19621454,-20160
32-31,19625360,-21565
32-32,19629266,-18582
32-1,19633178,-16779
32-2,19637084,-10279
32-3,19640990,8407
32-4,19644896,16856
32-5,19648802,-5956
32-6,19652708,-22585
32-7,19656614,-16649
32-8,19660520,-6534
32-9,19664426,7054
32-10,19668332,23092
32-11,19672238,32520
32-12,19676144,21878
32-13,19680050,-12394
32-14,19683956,-22918
32-15,19687862,-14375
32-16,19691768,-3747
32-17,19695674,11649
32-18,19699580,28475
32-19,19703486,32004
32-20,19707392,10533
32-21,19711298,-19741
32-22,19715204,-21204
32-23,19719110,-10732
32-24,19723016,2537
32-25,19726922,19399
32-26,19730828,31841
32-27,19734734,28791
32-28,19738640,-4293
32-29,19742546,-24181
32-30,19746452,-20466
32-31,19750358,-17729
32-32,19754264,-14272
32-1,19758176,-1239
32-2,19762082,19873
32-3,19765988,16704
32-4,19769894,-13197
32-5,19773800,-23838
32-6,19777706,-17829
32-7,19781612,-13132
32-8,19785518,-3475
32-9,19789424,15221
32-10,19793330,30344
32-11,19797236,10881
32-12,19801142,-19629
32-13,19805048,-20482
32-14,19808954,-6327
32-15,19812860,11616
32-16,19816766,26572
32-17,19820672,31936
32-18,19824578,30835
32-19,19828484,668
32-20,19832390,-23252
32-21,19836296,-18798
32-22,19840202,-5441
32-23,19844108,11906
32-24,19848014,26901
32-25,19851920,31249
32-26,19855826,22988
32-27,19859732,-11059
32-28,19863638,-25083
32-29,19867544,-19920
32-30,19871450,-18798
32-31,19875356,-13691
32-32,19879262,6650
32-1,19883173,27499
32-2,19887079,11074
32-3,19890985,-20578
32-4,19894891,-24125
32-5,19898797,-19080
32-6,19902703,-18385
32-7,19906609,-12349
32-8,19910515,5090
32-9,19914421,16621
32-10,19918327,-3425
32-11,19922233,-22928
32-12,19926139,-18508
32-13,19930045,-8160
32-14,19933951,5675
32-15,19937857,21697
32-16,19941763,32334
32-17,19945669,25316
32-18,19949575,-9152
32-19,19953481,-24031
32-20,19957387,-17548
32-21,19961293,-9789
32-22,19965199,2620
32-23,19969105,20962
32-24,19973011,32073
32-25,19976917,15188
32-26,19980823,-17575
32-27,19984729,-22009
32-28,19988635,-13604
32-29,19992541,-11811
32-30,19996447,-7825
32-31,20000353,14181
32-32,20004259,30674
32-1,20008171,4436
32-2,20012077,-23132
32-3,20015983,-21265
32-4,20019889,-17842
32-5,20023795,-17242
32-6,20027701,-8982
32-7,20031607,10002
32-8,20035513,14027
32-9,20039419,-10034
32-10,20043325,-21666
32-11,20047231,-10841
32-12,20051137,6468
32-13,20055043,23252
32-14,20058949,32233
32-15,20062855,32329
32-16,20066761,17091
32-17,20070667,-15616
32-18,20074573,-22841
32-19,20078479,-15119
32-20,20082385,-7249
32-21,20086291,6268
32-22,20090197,25255
32-23,20094103,32074
32-24,20098009,5004
32-25,20101915,-22734
32-26,20105821,-18606
32-27,20109727,-8340
32-28,20113633,-3740
32-29,20117539,-576
32-30,20121445,11061
32-31,20125351,16396
32-32,20129257,-6938
32-1,20133199,-23798
32-2,20137105,-19551
32-3,20141011,-17031
32-4,20144917,-14701
32-5,20148823,-2004
32-6,20152729,16997
32-7,20156635,10542
32-8,20160541,-15848
32-9,20164447,-19770
32-10,20168353,-5713
32-11,20172259,12218
32-12,20176165,26656
32-13,20180071,32671
32-14,20183977,32262
32-15,20187883,7427
32-16,20191789,-20621
32-17,20195695,-20769
32-18,20199601,-12953
32-19,20203507,-3692
32-20,20207413,11840
32-21,20211319,30612
32-22,20215225,28023
32-23,20219131,-4803
32-24,20223037,-23971
32-25,20226943,-16650
32-26,20230849,-1039
32-27,20234755,12116
32-28,20238661,16687
32-29,20242567,18699
32-30,20246473,4750
32-31,20250379,-18488
32-32,20254285,-22526
32-1,20258166,-19176
32-2,20262072,-18020
32-3,20265978,-13762
32-4,20269884,952
32-5,20273790,16392
32-6,20277696,1516
32-7,20281602,-20757
32-8,20285508,-18972
32-9,20289414,-7086
32-10,20293320,9140
32-11,20297226,24892
32-12,20301132,32600
32-13,20305038,29346
32-14,20308944,-3204
32-15,20312850,-23343
32-16,20316756,-17985
32-17,20320662,-8953
32-18,20324568,3329
32-19,20328474,20307
32-20,20332380,32196
32-21,20336286,20738
32-22,20340192,-13988
32-23,20344098,-23407
32-24,20348004,-14612
32-25,20351910,-4986
32-26,20355816,12802
32-27,20359722,25681
32-28,20363628,20033
32-29,20367534,-2133
32-30,20371440,-20453
32-31,20375346,-21994
32-32,20379252,-19058
32-1,20383164,-17288
32-2,20387070,-11253
32-3,20390976,6893
32-4,20394882,15936
32-5,20398788,-5913
32-6,20402694,-22483
32-7,20406600,-15892
32-8,20410506,-2616
32-9,20414412,14432
32-10,20418318,28721
32-11,20422224,32421
32-12,20426130,21728
32-13,20430036,-11937
32-14,20433942,-23201
32-15,20437848,-15299
32-16,20441754,-6041
32-17,20445660,7624
32-18,20449566,25401
32-19,20453472,32035
32-20,20457378,10532
32-21,20461284,-20201
32-22,20465190,-21738
32-23,20469096,-12014
32-24,20473002,-281
32-25,20476908,16053
32-26,20480814,31978
32-27,20484720,29272
32-28,20488626,-4104
32-29,20492532,-24686
32-30,20496438,-20760
32-31,20500344,-17475
32-32,20504250,-12930
32-1,20508161,1187
32-2,20512067,22203
32-3,20515973,17795
32-4,20519879,-13330
32-5,20523785,-24324
32-6,20527691,-18503
32-7,20531597,-15228
32-8,20535503,-7733
32-9,20539409,10134
32-10,20543315,26549
32-11,20547221,9420
32-12,20551127,-19623
32-13,20555033,-21014
32-14,20558939,-10375
32-15,20562845,2513
32-16,20566751,18347
32-17,20570657,32479
32-18,20574563,31682
32-19,20578469,318
32-20,20582375,-23209
32-21,20586281,-18977
32-22,20590187,-8765
32-23,20594093,5029
32-24,20597999,21708
32-25,20601905,31973
32-26,20605811,23830
32-27,20609717,-10727
32-28,20613623,-24173
32-29,20617529,-18950
32-30,20621435,-18003
32-31,20625341,-13385
32-32,20629247,5455
32-1,20633159,25779
32-2,20637065,11079
32-3,20640971,-19179
32-4,20644877,-22912
32-5,20648783,-17931
32-6,20652689,-16654
32-7,20656595,-9235
32-8,20660501,10107
32-9,20664407,21676
32-10,20668313,-861
32-11,20672219,-22329
32-12,20676125,-17872
32-13,20680031,-7278
32-14,20683937,6567
32-15,20687843,22486
32-16,20691749,32719
32-17,20695655,25894
32-18,20699561,-8097
32-19,20703467,-22775
32-20,20707373,-13775
32-21,20711279,1580
32-22,20715185,19565
32-23,20719091,31582
32-24,20722997,31883
32-25,20726903,15037
32-26,20730809,-17189
32-27,20734715,-23607
32-28,20738621,-17228
32-29,20742527,-17091
32-30,20746433,-16162
32-31,20750339,883
32-32,20754245,17845
32-1,20758157,-224
32-2,20762063,-22390
32-3,20765969,-20759
32-4,20769875,-17375
32-5,20773781,-15746
32-6,20777687,-6306
32-7,20781593,13802
32-8,20785499,17060
32-9,20789405,-9059
32-10,20793311,-22083
32-11,20797217,-14373
32-12,20801123,-3491
32-13,20805029,11220
32-14,20808935,27050
32-15,20812841,32767
32-16,20816747,17367
32-17,20820653,-15650
32-18,20824559,-22122
32-19,20828465,-14038
32-20,20832371,-4476
32-21,20836277,11139
32-22,20840183,29146
32-23,20844089,32338
32-24,20847995,5860
32-25,20851901,-21633
32-26,20855807,-16116
32-27,20859713,-3050
32-28,20863619,2511
32-29,20867525,4950
32-30,20871431,16324
32-31,20875337,20494
32-32,20879243,-5593
32-1,20883337,-23992
32-2,20887243,-19556
32-3,20891149,-17357
32-4,20895055,-15996
32-5,20898961,-4370
32-6,20902867,14338
32-7,20906773,9189
32-8,20910679,-16016
32-9,20914585,-20561
32-10,20918491,-9853
32-11,20922397,3466
32-12,20926303,18650
32-13,20930209,32183
32-14,20934115,32503
32-15,20938021,7193
32-16,20941927,-20643
32-17,20945833,-20330
32-18,20949739,-12359
32-19,20953645,-2095
32-20,20957551,14419
32-21,20961457,32515
32-22,20965363,28784
32-23,20969269,-4046
32-24,20973175,-23305
32-25,20977081,-16131
32-26,20980987,-26
32-27,20984893,13277
32-28,20988799,17366
32-29,20992705,18930
32-30,20996611,5149
32-31,21000517,-17751
32-32,21004423,-21843
32-1,21008152,-18668
32-2,21012058,-17833
32-3,21015964,-14250
32-4,21019870,-348
32-5,21023776,15119
32-6,21027682,1295
32-7,21031588,-20168
32-8,21035494,-17180
32-9,21039400,-2222
32-10,21043306,15785
32-11,21047212,28472
32-12,21051118,32470
32-13,21055024,29378
32-14,21058930,-2389
32-15,21062836,-23126
32-16,21066742,-18547
32-17,21070648,-11016
32-18,21074554,-405
32-19,21078460,16778
32-20,21082366,32178
32-21,21086272,20947
32-22,21090178,-13495
32-23,21094084,-23016
32-24,21097990,-12775
32-25,21101896,1139
32-26,21105802,20858
32-27,21109708,31212
32-28,21113614,24448
32-29,21117520,1115
32-30,21121426,-20289
32-31,21125332,-22473
32-32,21129238,-18826
32-1,21133150,-16841
32-2,21137056,-9962
32-3,21140962,8802
32-4,21144868,17274
32-5,21148774,-5844
32-6,21152680,-23385
32-7,21156586,-18603
32-8,21160492,-10588
32-9,21164398,888
32-10,21168304,17490
32-11,21172210,32416
32-12,21176116,22339
32-13,21180022,-12330
32-14,21183928,-23389
32-15,21187834,-13504
32-16,21191740,884
32-17,21195646,18761
32-18,21199552,31974
32-19,21203458,31699
32-20,21207364,10881
32-21,21211270,-19602
32-22,21215176,-22208
32-23,21219082,-12302
32-24,21222988,-551
32-25,21226894,15649
32-26,21230800,31652
32-27,21234706,29278
32-28,21238612,-3813
32-29,21242518,-24606
32-30,21246424,-20895
32-31,21250330,-17730
32-32,21254236,-13403
32-1,21258147,428
32-2,21262053,21486
32-3,21265959,17634
32-4,21269865,-13456
32-5,21273771,-24789
32-6,21277677,-18710
32-7,21281583,-14144
32-8,21285489,-4777
32-9,21289395,13691
32-10,21293301,29359
32-11,21297207,10849
32-12,21301113,-20007
32-13,21305019,-22579
32-14,21308925,-13436
32-15,21312831,-2839
32-16,21316737,12765
32-17,21320643,30191
32-18,21324549,31603
32-19,21328455,547
32-20,21332361,-23654
32-21,21336267,-19530
32-22,21340173,-9517
32-23,21344079,3942
32-24,21347985,20734
32-25,21351891,31812
32-26,21355797,23902
32-27,21359703,-10932
32-28,21363609,-24650
32-29,21367515,-19333
32-30,21371421,-18312
32-31,21375327,-13793
32-32,21379233,4784
32-1,21383145,25108
32-2,21387051,10692
32-3,21390957,-19523
32-4,21394863,-23265
32-5,21398769,-18208
32-6,21402675,-16976
32-7,21406581,-9849
32-8,21410487,8884
32-9,21414393,20342
32-10,21418299,-1445
32-11,21422205,-22426
32-12,21426111,-18145
32-13,21430017,-7943
32-14,21433923,5313
32-15,21437829,21196
32-16,21441735,32713
32-17,21445641,25873
32-18,21449547,-8398
32-19,21453453,-23250
32-20,21457359,-15601
32-21,21461265,-5099
32-22,21465171,9714
32-23,21469077,26518
32-24,21472983,32179
32-25,21476889,15025
32-26,21480795,-17498
32-27,21484701,-23097
32-28,21488607,-16856
32-29,21492513,-16721
32-30,21496419,-15551
32-31,21500325,1931
32-32,21504231,19172
32-1,21508173,443
32-2,21512079,-22165
32-3,21515985,-20260
32-4,21519891,-16179
32-5,21523797,-12045
32-6,21527703,1582
32-7,21531609,24491
32-8,21535515,25390
32-9,21539421,-6920
32-10,21543327,-23014
32-11,21547233,-14784
32-12,21551139,-4443
32-13,21555045,9414
32-14,21558951,25798
32-15,21562857,32767
32-16,21566763,17298
32-17,21570669,-15890
32-18,21574575,-21965
32-19,21578481,-12686
32-20,21582387,-1351
32-21,21586293,14738
32-22,21590199,30903
32-23,21594105,32217
32-24,21598011,5412
32-25,21601917,-21902
32-26,21605823,-19080
32-27,21609729,-10767
32-28,21613635,-7957
32-29,21617541,-6201
32-30,21621447,3933
32-31,21625353,10328
32-32,21629259,-8252
32-1,21633140,-22492
32-2,21637046,-18836
32-3,21640952,-16246
32-4,21644858,-13468
32-5,21648764,-302
32-6,21652670,19343
32-7,21656576,12357
32-8,21660482,-15286
32-9,21664388,-20777
32-10,21668294,-11215
32-11,21672200,480
32-12,21676106,15888
32-13,21680012,31329
32-14,21683918,32767
32-15,21687824,7846
32-16,21691730,-19827
32-17,21695636,-18796
32-18,21699542,-8505
32-19,21703448,5364
32-20,21707354,22021
32-21,21711260,32504
32-22,21715166,28652
32-23,21719072,-3534
32-24,21722978,-22665
32-25,21726884,-15735
32-26,21730790,925
32-27,21734696,14870
32-28,21738602,19144
32-29,21742508,20471
32-30,21746414,6182
32-31,21750320,-17549
32-32,21754226,-21946
32-1,21758138,-18724
32-2,21762044,-18457
32-3,21765950,-16027
32-4,21769856,-4106
32-5,21773762,10686
32-6,21777668,-511
32-7,21781574,-19848
32-8,21785480,-18335
32-9,21789386,-8071
32-10,21793292,5073
32-11,21797198,19941
32-12,21801104,32767
32-13,21805010,29991
32-14,21808916,-2570
32-15,21812822,-22621
32-16,21816728,-17816
32-17,21820634,-10297
32-18,21824540,1217
32-19,21828446,18917
32-20,21832352,32395
32-21,21836258,21485
32-22,21840164,-12937
32-23,21844070,-21944
32-24,21847976,-8911
32-25,21851882,8738
32-26,21855788,26366
32-27,21859694,31828
32-28,21863600,25445
32-29,21867506,2842
32-30,21871412,-19962
32-31,21875318,-22303
32-32,21879224,-18984
32-1,21883135,-18898
32-2,21887041,-15285
32-3,21890947,-425
32-4,21894853,9021
32-5,21898759,-8075
32-6,21902665,-22198
32-7,21906571,-16423
32-8,21910477,-5342
32-9,21914383,8710
32-10,21918289,23692
32-11,21922195,32401
32-12,21926101,22530
32-13,21930007,-11791
32-14,21933913,-23336
32-15,21937819,-16277
32-16,21941725,-8615
32-17,21945631,4304
32-18,21949537,22900
32-19,21953443,32122
32-20,21957349,11681
32-21,21961255,-19400
32-22,21965161,-21007
32-23,21969067,-8651
32-24,21972973,7886
32-25,21976879,24474
32-26,21980785,31781
32-27,21984691,29108
32-28,21988597,-2754
32-29,21992503,-23854
32-30,21996409,-20599
32-31,22000315,-17369
32-32,22004221,-14053
32-1,22008133,-1406
32-2,22012039,19303
32-3,22015945,16357
32-4,22019851,-13338
32-5,22023757,-23940
32-6,22027663,-17342
32-7,22031569,-10708
32-8,22035475,2276
32-9,22039381,21746
32-10,22043287,32084
32-11,22047193,13219
32-12,22051099,-19041
32-13,22055005,-22011
32-14,22058911,-11400
32-15,22062817,2932
32-16,22066723,20335
32-17,22070629,31880
32-18,22074535,31481
32-19,22078441,947
32-20,22082347,-23287
32-21,22086253,-19474
32-22,22090159,-7467
32-23,22094065,8965
32-24,22097971,25128
32-25,22101877,31275
32-26,22105783,23553
32-27,22109689,-10852
32-28,22113595,-25050
32-29,22117501,-19644
32-30,22121407,-18077
32-31,22125313,-11851
32-32,22129219,8830
32-1,22133222,29246
32-2,22137128,12732
32-3,22141034,-19922
32-4,22144940,-24286
32-5,22148846,-19057
32-6,22152752,-18495
32-7,22156658,-12655
32-8,22160564,4655
32-9,22164470,16605
32-10,22168376,-2880
32-11,22172282,-22738
32-12,22176188,-18111
32-13,22180094,-5481
32-14,22184000,11215
32-15,22187906,26217
32-16,22191812,32075
32-17,22195718,25276
32-18,22199624,-8700
32-19,22203530,-24351
32-20,22207436,-17400
32-21,22211342,-8421
32-22,22215248,4278
32-23,22219154,21685
32-24,22223060,31766
32-25,22226966,15202
32-26,22230872,-18030
32-27,22234778,-23943
32-28,22238684,-17668
32-29,22242590,-17756
32-30,22246496,-16915
32-31,22250402,-546
32-32,22254308,16606
32-1,22258128,-440
32-2,22262034,-22356
32-3,22265940,-20836
32-4,22269846,-17324
32-5,22273752,-15553
32-6,22277658,-6200
32-7,22281564,13846
32-8,22285470,17570
32-9,22289376,-8609
32-10,22293282,-22094
32-11,22297188,-13399
32-12,22301094,707
32-13,22305000,17986
32-14,22308906,31145
32-15,22312812,32717
32-16,22316718,17460
32-17,22320624,-15134
32-18,22324530,-22114
32-19,22328436,-13538
32-20,22332342,-3773
32-21,22336248,10954
32-22,22340154,28528
32-23,22344060,32276
32-24,22347966,5684
32-25,22351872,-21875
32-26,22355778,-19152
32-27,22359684,-11205
32-28,22363590,-8592
32-29,22367496,-6967
32-30,22371402,2463
32-31,22375308,8805
32-32,22379214,-8657
32-1,22383156,-22241
32-2,22387062,-18582
32-3,22390968,-15074
32-4,22394874,-9827
32-5,22398780,6549
32-6,22402686,27648
32-7,22406592,17830
32-8,22410498,-14271
32-9,22414404,-21122
32-10,22418310,-11242
32-11,22422216,-195
32-12,22426122,14846
32-13,22430028,30696
32-14,22433934,32767
32-15,22437840,8011
32-16,22441746,-19742
32-17,22445652,-19055
32-18,22449558,-9729
32-19,22453464,2392
32-20,22457370,18667
32-21,22461276,32599
32-22,22465182,28834
32-23,22469088,-3751
32-24,22472994,-22846
32-25,22476900,-17162
32-26,22480806,-5329
32-27,22484712,5121
32-28,22488618,9858
32-29,22492524,11960
32-30,22496430,544
32-31,22500336,-18071
32-32,22504242,-21020
32-1,22508123,-18354
32-2,22512029,-16826
32-3,22515935,-12253
32-4,22519841,2836
32-5,22523747,18840
32-6,22527653,3693
32-7,22531559,-19573
32-8,22535465,-18604
32-9,22539371,-8932
32-10,22543277,3331
32-11,22547183,18753
32-12,22551089,32767
32-13,22554995,30120
32-14,22558901,-2290
32-15,22562807,-22436
32-16,22566713,-16696
32-17,22570619,-6581
32-18,22574525,7580
32-19,22578431,24278
32-20,22582337,32181
32-21,22586243,21156
32-22,22590149,-12912
32-23,22594055,-22683
32-24,22597961,-13898
32-25,22601867,-3446
32-26,22605773,14744
32-27,22609679,27786
32-28,22613585,22379
32-29,22617491,-338
32-30,22621397,-19705
32-31,22625303,-21446
32-32,22629209,-18587
32-1,22633121,-17502
32-2,22637027,-12629
32-3,22640933,4159
32-4,22644839,13608
32-5,22648745,-6222
32-6,22652651,-22121
32-7,22656557,-16913
32-8,22660463,-7316
32-9,22664369,5695
32-10,22668275,21611
32-11,22672181,32577
32-12,22676087,22965
32-13,22679993,-11270
32-14,22683899,-22569
32-15,22687805,-13896
32-16,22691711,-2722
32-17,22695617,13017
32-18,22699523,29123
32-19,22703429,31984
32-20,22707335,11806
32-21,22711241,-18644
32-22,22715147,-21357
32-23,22719053,-11370
32-24,22722959,3120
32-25,22726865,21159
32-26,22730771,31773
32-27,22734677,29098
32-28,22738583,-3196
32-29,22742489,-23805
32-30,22746395,-20539
32-31,22750301,-17509
32-32,22754207,-14141
32-1,22758271,-1680
32-2,22762177,18889
32-3,22766083,16411
32-4,22769989,-12887
32-5,22773895,-23849
32-6,22777801,-18033
32-7,22781707,-13817
32-8,22785613,-5083
32-9,22789519,12975
32-10,22793425,29002
32-11,22797331,11452
32-12,22801237,-18711
32-13,22805143,-20204
32-14,22809049,-6646
32-15,22812955,10569
32-16,22816861,25697
32-17,22820767,31942
32-18,22824673,31349
32-19,22828579,1589
32-20,22832485,-23012
32-21,22836391,-20038
32-22,22840297,-9856
32-23,22844203,5381
32-24,22848109,23150
32-25,22852015,31433
32-26,22855921,24067
32-27,22859827,-10271
32-28,22863733,-24811
32-29,22867639,-19602
32-30,22871545,-18382
32-31,22875451,-14253
32-32,22879357,3552
32-1,22883116,23605
32-2,22887022,10374
32-3,22890928,-19139
32-4,22894834,-23224
32-5,22898740,-18477
32-6,22902646,-18173
32-7,22906552,-13143
32-8,22910458,3518
32-9,22914364,15866
32-10,22918270,-2702
32-11,22922176,-21961
32-12,22926082,-15905
32-13,22929988,-85
32-14,22933894,17913
32-15,22937800,29464
32-16,22941706,32178
32-17,22945612,25718
32-18,22949518,-7583
32-19,22953424,-23912
32-20,22957330,-17792
32-21,22961236,-10420
32-22,22965142,820
32-23,22969048,18828
32-24,22972954,31952
32-25,22976860,15792
32-26,22980766,-17213
32-27,22984672,-23258
32-28,22988578,-17029
32-29,22992484,-17070
32-30,22996390,-16338
32-31,23000296,-257
32-32,23004202,17014
32-1,23008114,246
32-2,23012020,-21798
32-3,23015926,-20445
32-4,23019832,-16942
32-5,23023738,-15181
32-6,23027644,-5869
32-7,23031550,14204
32-8,23035456,18112
32-9,23039362,-8019
32-10,23043268,-21080
32-11,23047174,-9797
32-12,23051080,7877
32-13,23054986,24261
32-14,23058892,32475
32-15,23062798,32547
32-16,23066704,18341
32-17,23070610,-14369
32-18,23074516,-22401
32-19,23078422,-14365
32-20,23082328,-6607
32-21,23086234,7611
32-22,23090140,27053
32-23,23094046,30501
32-24,23097952,1613
32-25,23101858,-22136
32-26,23105764,-18342
32-27,23109670,-11548
32-28,23113576,-8530
32-29,23117482,-6876
32-30,23121388,2574
32-31,23125294,9343
32-32,23129200,-8118
32-1,23133173,-22049
32-2,23137079,-18658
32-3,23140985,-16015
32-4,23144891,-13546
32-5,23148797,-1471
32-6,23152703,17692
32-7,23156609,12089
32-8,23160515,-14365
32-9,23164421,-19853
32-10,23168327,-9195
32-11,23172233,5778
32-12,23176139,22472
32-13,23180045,32767
32-14,23183951,32358
32-15,23187857,8483
32-16,23191763,-19298
32-17,23195669,-19430
32-18,23199575,-10420
32-19,23203481,595
32-20,23207387,16342
32-21,23211293,32248
32-22,23215199,28759
32-23,23219105,-3651
32-24,23223011,-23132
32-25,23226917,-17329
32-26,23230823,-6280
32-27,23234729,3436
32-28,23238635,8790
32-29,23242541,9394
32-30,23246447,1632
32-31,23250353,2119
32-32,23254259,20747
32-1,23258109,31394
32-2,23262015,31141
32-3,23265921,29103
32-4,23269827,30388
32-5,23273733,30007
32-6,23277639,7855
32-7,23281545,-21872
32-8,23285451,-23885
32-9,23289357,-20369
32-10,23293263,-22704
32-11,23297169,-22283
32-12,23301075,-19325
32-13,23304981,-16707
32-14,23308887,-19270
32-15,23312793,-21443
32-16,23316699,-17965
32-17,23320605,-8207
32-18,23324511,4412
32-19,23328417,18232
32-20,23332323,31920
32-21,23336229,20272
32-22,23340135,-14336
32-23,23344041,-23983
32-24,23347947,-16809
32-25,23351853,-11580
32-26,23355759,3207
32-27,23359665,17236
32-28,23363571,14191
32-29,23367477,-4464
32-30,23371383,-19869
32-31,23375289,-21182
32-32,23379195,-18489
32-1,23383259,-15888
32-2,23387165,-8471
32-3,23391071,11475
32-4,23394977,20716
32-5,23398883,-3654
32-6,23402789,-22467
32-7,23406695,-17353
32-8,23410601,-8993
32-9,23414507,1754
32-10,23418413,17377
32-11,23422319,32767
32-12,23426225,22549
32-13,23430131,-11539
32-14,23434037,-22688
32-15,23437943,-14618
32-16,23441849,-5803
32-17,23445755,7703
32-18,23449661,25206
32-19,23453567,32345
32-20,23457473,12014
32-21,23461379,-18721
32-22,23465285,-20247
32-23,23469191,-8611
32-24,23473097,6461
32-25,23477003,22920
32-26,23480909,32015
32-27,23484815,29438
32-28,23488721,-2389
32-29,23492627,-23141
32-30,23496533,-19935
32-31,23500439,-16835
32-32,23504345,-13544
32-1,23508105,-1337
32-2,23512011,18935
32-3,23515917,16427
32-4,23519823,-12595
32-5,23523729,-23438
32-6,23527635,-18005
32-7,23531541,-15279
32-8,23535447,-8968
32-9,23539353,7581
32-10,23543259,24279
32-11,23547165,9280
32-12,23551071,-18644
32-13,23554977,-20557
32-14,23558883,-10963
32-15,23562789,402
32-16,23566695,15529
32-17,23570601,31463
32-18,23574507,32260
32-19,23578413,1765
32-20,23582319,-22342
32-21,23586225,-18580
32-22,23590131,-9158
32-23,23594037,3529
32-24,23597943,20063
32-25,23601849,32163
32-26,23605755,24922
32-27,23609661,-9371
32-28,23613567,-23545
32-29,23617473,-18391
32-30,23621379,-17548
32-31,23625285,-14134
32-32,23629191,2794
32-1,23633102,23074
32-2,23637008,10977
32-3,23640914,-17793
32-4,23644820,-21898
32-5,23648726,-17057
32-6,23652632,-16142
32-7,23656538,-10122
32-8,23660444,7516
32-9,23664350,19637
32-10,23668256,-286
32-11,23672162,-20783
32-12,23676068,-17083
32-13,23679974,-7349
32-14,23683880,5714
32-15,23687786,21463
32-16,23691692,32767
32-17,23695598,26782
32-18,23699504,-6839
32-19,23703410,-22493
32-20,23707316,-16266
32-21,23711222,-8260
32-22,23715128,4328
32-23,23719034,22422
32-24,23722940,32359
32-25,23726846,16620
32-26,23730752,-16231
32-27,23734658,-21364
32-28,23738564,-13054
32-29,23742470,-11138
32-30,23746376,-6947
32-31,23750282,14811
32-32,23754188,31570
32-1,23758100,6387
32-2,23762006,-21407
32-3,23765912,-20129
32-4,23769818,-16680
32-5,23773724,-16337
32-6,23777630,-8861
32-7,23781536,9472
32-8,23785442,14427
32-9,23789348,-8608
32-10,23793254,-20955
32-11,23797160,-12836
32-12,23801066,-931
32-13,23804972,13732
32-14,23808878,27972
32-15,23812784,32700
32-16,23816690,18374
32-17,23820596,-14421
32-18,23824502,-21569
32-19,23828408,-13517
32-20,23832314,-4002
32-21,23836220,11421
32-22,23840126,29151
32-23,23844032,32221
32-24,23847938,7041
32-25,23851844,-20726
32-26,23855750,-17818
32-27,23859656,-7916
32-28,23863562,-3288
32-29,23867468,-296
32-30,23871374,11276
32-31,23875280,17618
32-32,23879186,-5104
32-1,23883189,-22728
32-2,23887095,-18619
32-3,23891001,-15514
32-4,23894907,-12354
32-5,23898813,1193
32-6,23902719,20411
32-7,23906625,13334
32-8,23910531,-14651
32-9,23914437,-20870
32-10,23918343,-11718
32-11,23922249,1236
32-12,23926155,18580
32-13,23930061,32684
32-14,23933967,32413
32-15,23937873,8866
32-16,23941779,-19109
32-17,23945685,-18993
32-18,23949591,-7735
32-19,23953497,7890
32-20,23957403,24334
32-21,23961309,32065
32-22,23965215,28567
32-23,23969121,-2864
32-24,23973027,-22904
32-25,23976933,-17278
32-26,23980839,-2790
32-27,23984745,9428
32-28,23988651,13819
32-29,23992557,16087
32-30,23996463,4071
32-31,24000369,-17612
32-32,24004275,-21945
32-1,24008126,-18801
32-2,24012032,-17771
32-3,24015938,-14250
32-4,24019844,-940
32-5,24023750,14437
32-6,24027656,1567
32-7,24031562,-19982
32-8,24035468,-19473
32-9,24039374,-10585
32-10,24043280,883
32-11,24047186,15938
32-12,24051092,32249
32-13,24054998,30308
32-14,24058904,-2082
32-15,24062810,-22758
32-16,24066716,-17171
32-17,24070622,-7656
32-18,24074528,5462
32-19,24078434,22246
32-20,24082340,32175
32-21,24086246,21710
32-22,24090152,-12688
32-23,24094058,-22823
32-24,24097964,-14049
32-25,24101870,-4095
32-26,24105776,13709
32-27,24109682,27057
32-28,24113588,22083
32-29,24117494,-189
32-30,24121400,-19351
32-31,24125306,-21268
32-32,24129212,-18396
32-1,24133093,-16935
32-2,24136999,-11662
32-3,24140905,5492
32-4,24144811,15253
32-5,24148717,-5182
32-6,24152623,-21923
32-7,24156529,-16014
32-8,24160435,-3401
32-9,24164341,13394
32-10,24168247,27972
32-11,24172153,32280
32-12,24176059,22889
32-13,24179965,-10647
32-14,24183871,-23079
32-15,24187777,-15473
32-16,24191683,-6351
32-17,24195589,6905
32-18,24199495,24369
32-19,24203401,31891
32-20,24207307,12034
32-21,24211213,-19201
32-22,24215119,-21750
32-23,24219025,-12249
32-24,24222931,-1118
32-25,24226837,14954
32-26,24230743,31832
32-27,24234649,29675
32-28,24238555,-2896
32-29,24242461,-23854
32-30,24246367,-20269
32-31,24250273,-17256
32-32,24254179,-13470
32-1,24258090,-559
32-2,24261996,20074
32-3,24265902,17467
32-4,24269808,-12337
32-5,24273714,-23803
32-6,24277620,-18297
32-7,24281526,-15252
32-8,24285432,-8429
32-9,24289338,8635
32-10,24293244,25619
32-11,24297150,10362
32-12,24301056,-18415
32-13,24304962,-20452
32-14,24308868,-9705
32-15,24312774,3566
32-16,24316680,19529
32-17,24320586,32301
32-18,24324492,31897
32-19,24328398,1837
32-20,24332304,-22155
32-21,24336210,-18813
32-22,24340116,-9268
32-23,24344022,3519
32-24,24347928,20038
32-25,24351834,31806
32-26,24355740,24582
32-27,24359646,-9844
32-28,24363552,-23690
32-29,24367458,-18295
32-30,24371364,-16766
32-31,24375270,-9706
32-32,24379176,11526
32-1,24383088,31496
32-2,24386994,14678
32-3,24390900,-18226
32-4,24394806,-23088
32-5,24398712,-17687
32-6,24402618,-15503
32-7,24406524,-6252
32-8,24410430,14938
32-9,24414336,27023
32-10,24418242,2238
32-11,24422148,-22368
32-12,24426054,-18817
32-13,24429960,-9254
32-14,24433866,2371
32-15,24437772,17976
32-16,24441678,32182
32-17,24445584,25929
32-18,24449490,-8260
32-19,24453396,-23549
32-20,24457302,-14962
32-21,24461208,-1749
32-22,24465114,15323
32-23,24469020,29527
32-24,24472926,31499
32-25,24476832,15557
32-26,24480738,-16890
32-27,24484644,-23873
32-28,24488550,-17869
32-29,24492456,-17940
32-30,24496362,-17766
32-31,24500268,-3134
32-32,24504174,13287
32-1,24508086,-1509
32-2,24511992,-21889
32-3,24515898,-20794
32-4,24519804,-17537
32-5,24523710,-16124
32-6,24527616,-7842
32-7,24531522,11265
32-8,24535428,15794
32-9,24539334,-8636
32-10,24543240,-21924
32-11,24547146,-14923
32-12,24551052,-4913
32-13,24554958,8828
32-14,24558864,24959
32-15,24562770,32767
32-16,24566676,18426
32-17,24570582,-14839
32-18,24574488,-21719
32-19,24578394,-12909
32-20,24582300,-2539
32-21,24586206,12806
32-22,24590112,29511
32-23,24594018,32246
32-24,24597924,6826
32-25,24601830,-21119
32-26,24605736,-17880
32-27,24609642,-7336
32-28,24613548,-2780
32-29,24617454,-83
32-30,24621360,11924
32-31,24625266,18425
32-32,24629172,-5078
32-1,24633175,-23131
32-2,24637081,-19111
32-3,24640987,-17253
32-4,24644893,-17022
32-5,24648799,-8118
32-6,24652705,8663
32-7,24656611,6435
32-8,24660517,-15032
32-9,24664423,-19768
32-10,24668329,-10572
32-11,24672235,1354
32-12,24676141,15802
32-13,24680047,30614
32-14,24683953,32767
32-15,24687859,8798
32-16,24691765,-19345
32-17,24695671,-19605
32-18,24699577,-12233
32-19,24703483,-3064
32-20,24707389,12507
32-21,24711295,31183
32-22,24715201,29466
32-23,24719107,-2702
32-24,24723013,-22361
32-25,24726919,-15633
32-26,24730825,-1861
32-27,24734731,9714
32-28,24738637,13145
32-29,24742543,13401
32-30,24746449,1899
32-31,24750355,-16923
32-32,24754261,-20481
32-1,24758142,-17872
32-2,24762048,-16866
32-3,24765954,-13666
32-4,24769860,-634
32-5,24773766,15085
32-6,24777672,2632
32-7,24781578,-18837
32-8,24785484,-17444
32-9,24789390,-6081
32-10,24793296,8182
32-11,24797202,22891
32-12,24801108,32767
32-13,24805014,30637
32-14,24808920,-862
32-15,24812826,-21721
32-16,24816732,-17391
32-17,24820638,-9570
32-18,24824544,1964
32-19,24828450,19334
32-20,24832356,32325
32-21,24836262,22466
32-22,24840168,-11575
32-23,24844074,-21961
32-24,24847980,-12085
32-25,24851886,1873
32-26,24855792,21114
32-27,24859698,31260
32-28,24863604,25429
32-29,24867510,2952
32-30,24871416,-19085
32-31,24875322,-21776
32-32,24879228,-18054
32-1,24883078,-16350
32-2,24886984,-10141
32-3,24890890,7909
32-4,24894796,17128
32-5,24898702,-4757
32-6,24902608,-22488
32-7,24906514,-18178
32-8,24910420,-10647
32-9,24914326,32
32-10,24918232,16173
32-11,24922138,32420
32-12,24926044,23287
32-13,24929950,-10908
32-14,24933856,-22970
32-15,24937762,-14953
32-16,24941668,-5639
32-17,24945574,8483
32-18,24949480,25831
32-19,24953386,31973
32-20,24957292,12615
32-21,24961198,-18579
32-22,24965104,-21046
32-23,24969010,-9064
32-24,24972916,7337
32-25,24976822,24080
32-26,24980728,31629
32-27,24984634,29339
32-28,24988540,-1980
32-29,24992446,-23432
32-30,24996352,-20538
32-31,25000258,-17375
32-32,25004164,-14332
32-1,25008076,-2526
32-2,25011982,17849
32-3,25015888,16500
32-4,25019794,-12172
32-5,25023700,-23643
32-6,25027606,-17988
32-7,25031512,-13693
32-8,25035418,-5052
32-9,25039324,12803
32-10,25043230,29041
32-11,25047136,12026
32-12,25051042,-18501
32-13,25054948,-21634
32-14,25058854,-12886
32-15,25062760,-2845
32-16,25066666,12313
32-17,25070572,29692
32-18,25074478,31837
32-19,25078384,1984
32-20,25082290,-22636
32-21,25086196,-19085
32-22,25090102,-9662
32-23,25094008,3051
32-24,25097914,19580
32-25,25101820,31771
32-26,25105726,25070
32-27,25109632,-9364
32-28,25113538,-23654
32-29,25117444,-18220
32-30,25121350,-16484
32-31,25125256,-9140
32-32,25129162,12181
32-1,25133074,31865
32-2,25136980,15145
32-3,25140886,-18001
32-4,25144792,-23166
32-5,25148698,-17975
32-6,25152604,-17241
32-7,25156510,-11444
32-8,25160416,5910
32-9,25164322,18493
32-10,25168228,-852
32-11,25172134,-21737
32-12,25176040,-17591
32-13,25179946,-5064
32-14,25183852,11492
32-15,25187758,26465
32-16,25191664,32155
32-17,25195570,25950
32-18,25199476,-7365
32-19,25203382,-23523
32-20,25207288,-16856
32-21,25211194,-7880
32-22,25215100,4839
32-23,25219006,22193
32-24,25222912,31783
32-25,25226818,15925
32-26,25230724,-17014
32-27,25234630,-23318
32-28,25238536,-17282
32-29,25242442,-17413
32-30,25246348,-16697
32-31,25250254,-699
32-32,25254160,16677
32-1,25258071,351
32-2,25261977,-21564
32-3,25265883,-20179
32-4,25269789,-16212
32-5,25273695,-12968
32-6,25277601,-963
32-7,25281507,21268
32-8,25285413,23951
32-9,25289319,-6320
32-10,25293225,-22482
32-11,25297131,-15004
32-12,25301037,-5425
32-13,25304943,7772
32-14,25308849,24236
32-15,25312755,32668
32-16,25316661,18445
32-17,25320567,-14608
32-18,25324473,-21531
32-19,25328379,-12926
32-20,25332285,-2806
32-21,25336191,12369
32-22,25340097,29223
32-23,25344003,32154
32-24,25347909,6831
32-25,25351815,-20929
32-26,25355721,-18966
32-27,25359627,-10955
32-28,25363533,-8365
32-29,25367439,-7251
32-30,25371345,2061
32-31,25375251,9242
32-32,25379157,-7684
32-1,25383191,-21718
32-2,25387097,-18483
32-3,25391003,-16239
32-4,25394909,-14755
32-5,25398815,-4195
32-6,25402721,14379
32-7,25406627,10421
32-8,25410533,-14285
32-9,25414439,-20094
32-10,25418345,-11834
32-11,25422251,-1857
32-12,25426157,12051
32-13,25430063,28595
32-14,25433969,32767
32-15,25437875,8791
32-16,25441781,-19360
32-17,25445687,-18279
32-18,25449593,-6707
32-19,25453499,9300
32-20,25457405,25382
32-21,25461311,32366
32-22,25465217,28994
32-23,25469123,-2114
32-24,25473029,-22194
32-25,25476935,-17311
32-26,25480841,-5784
32-27,25484747,4110
32-28,25488653,8781
32-29,25492559,10955
32-30,25496465,447
32-31,25500371,-17378
32-32,25504277,-20386
32-1,25508067,-17970
32-2,25511973,-17426
32-3,25515879,-15179
32-4,25519785,-4139
32-5,25523691,10668
32-6,25527597,548
32-7,25531503,-18589
32-8,25535409,-17579
32-9,25539315,-7628
32-10,25543221,5235
32-11,25547127,19980
32-12,25551033,32767
32-13,25554939,30682
32-14,25558845,-953
32-15,25562751,-21610
32-16,25566657,-16525
32-17,25570563,-7261
32-18,25574469,5663
32-19,25578375,22332
32-20,25582281,32201
32-21,25586187,22360
32-22,25590093,-11418
32-23,25593999,-22119
32-24,25597905,-15012
32-25,25601811,-7596
32-26,25605717,9037
32-27,25609623,23467
32-28,25613529,20326
32-29,25617435,-118
32-30,25621341,-18505
32-31,25625247,-20620
32-32,25629153,-17546
32-1,25633064,-15357
32-2,25636970,-8997
32-3,25640876,9231
32-4,25644782,18693
32-5,25648688,-3475
32-6,25652594,-21296
32-7,25656500,-14999
32-8,25660406,-1434
32-9,25664312,15800
32-10,25668218,29077
32-11,25672124,32171
32-12,25676030,23405
32-13,25679936,-9559
32-14,25683842,-22651
32-15,25687748,-16112
32-16,25691654,-8976
32-17,25695560,2791
32-18,25699466,21212
32-19,25703372,31889
32-20,25707278,12902
32-21,25711184,-18147
32-22,25715090,-19792
32-23,25718996,-5163
32-24,25722902,12797
32-25,25726808,26861
32-26,25730714,31370
32-27,25734620,28828
32-28,25738526,-2175
32-29,25742432,-23608
32-30,25746338,-20573
32-31,25750244,-17871
32-32,25754150,-15939
32-1,25758062,-5624
32-2,25761968,13882
32-3,25765874,13726
32-4,25769780,-12861
32-5,25773686,-23676
32-6,25777592,-18249
32-7,25781498,-14112
32-8,25785404,-5840
32-9,25789310,11652
32-10,25793216,28041
32-11,25797122,11796
32-12,25801028,-18206
32-13,25804934,-21177
32-14,25808840,-10953
32-15,25812746,2956
32-16,25816652,20050
32-17,25820558,31967
32-18,25824464,31567
32-19,25828370,2541
32-20,25832276,-22068
32-21,25836182,-18837
32-22,25840088,-7213
32-23,25843994,8876
32-24,25847900,24938
32-25,25851806,31317
32-26,25855712,24585
32-27,25859618,-9156
32-28,25863524,-24201
32-29,25867430,-19105
32-30,25871336,-17454
32-31,25875242,-11736
32-32,25879148,8200
32-1,25883060,28921
32-2,25886966,13777
32-3,25890872,-18693
32-4,25894778,-23661
32-5,25898684,-18497
32-6,25902590,-17983
32-7,25906496,-12595
32-8,25910402,3945
32-9,25914308,16370
32-10,25918214,-1938
32-11,25922120,-22041
32-12,25926026,-18087
32-13,25929932,-6081
32-14,25933838,10167
32-15,25937744,25426
32-16,25941650,32041
32-17,25945556,26279
32-18,25949462,-7171
32-19,25953368,-23745
32-20,25957274,-17057
32-21,25961180,-7853
32-22,25965086,5018
32-23,25968992,22250
32-24,25972898,31666
32-25,25976804,16228
32-26,25980710,-16971
32-27,25984616,-23548
32-28,25988522,-17429
32-29,25992428,-17666
32-30,25996334,-17278
32-31,26000240,-2029
32-32,26004146,15202
32-1,26008057,-56
32-2,26011963,-21546
32-3,26015869,-20529
32-4,26019775,-17041
32-5,26023681,-15610
32-6,26027587,-7330
32-7,26031493,11908
32-8,26035399,16909
32-9,26039305,-7749
32-10,26043211,-21499
32-11,26047117,-13426
32-12,26051023,82
32-13,26054929,17183
32-14,26058835,30572
32-15,26062741,32658
32-16,26066647,18895
32-17,26070553,-13684
32-18,26074459,-21683
32-19,26078365,-13307
32-20,26082271,-3849
32-21,26086177,10343
32-22,26090083,27695
32-23,26093989,32191
32-24,26097895,7233
32-25,26101801,-21080
32-26,26105707,-19216
32-27,26109613,-11423
32-28,26113519,-9055
32-29,26117425,-7705
32-30,26121331,1235
32-31,26125237,8385
32-32,26129143,-7781
32-1,26133207,-21699
32-2,26137113,-18594
32-3,26141019,-15930
32-4,26144925,-13515
32-5,26148831,-1628
32-6,26152737,17731
32-7,26156643,12859
32-8,26160549,-13646
32-9,26164455,-19957
32-10,26168361,-10987
32-11,26172267,151
32-12,26176173,15273
32-13,26180079,30894
32-14,26183985,32767
32-15,26187891,9249
32-16,26191797,-18825
32-17,26195703,-18822
32-18,26199609,-9902
32-19,26203515,1525
32-20,26207421,17552
32-21,26211327,32596
32-22,26215233,29530
32-23,26219139,-2307
32-24,26223045,-22043
32-25,26226951,-16793
32-26,26230857,-5211
32-27,26234763,4895
32-28,26238669,9371
32-29,26242575,11557
32-30,26246481,1212
32-31,26250387,-16849
32-32,26254293,-20150
32-1,26258052,-17650
32-2,26261958,-16640
32-3,26265864,-13490
32-4,26269770,-616
32-5,26273676,15196
32-6,26277582,2977
32-7,26281488,-18636
32-8,26285394,-18261
32-9,26289300,-9369
32-10,26293206,2057
32-11,26297112,17151
32-12,26301018,32767
32-13,26304924,30897
32-14,26308830,-752
32-15,26312736,-21214
32-16,26316642,-14921
32-17,26320548,-1968
32-18,26324454,15146
32-19,26328360,29244
32-20,26332266,32088
32-21,26336172,22169
32-22,26340078,-10754
32-23,26343984,-22040
32-24,26347890,-14240
32-25,26351796,-5479
32-26,26355702,11206
32-27,26359608,24376
32-28,26363514,20298
32-29,26367420,-163
32-30,26371326,-18669
32-31,26375232,-20881
32-32,26379138,-17715
32-1,26383050,-14963
32-2,26386956,-6695
32-3,26390862,14392
32-4,26394768,24134
32-5,26398674,-1762
32-6,26402580,-22506
32-7,26406486,-17334
32-8,26410392,-8328
32-9,26414298,3314
32-10,26418204,19287
32-11,26422110,32208
32-12,26426016,23352
32-13,26429922,-10870
32-14,26433828,-22989
32-15,26437734,-14984
32-16,26441640,-5426
32-17,26445546,8774
32-18,26449452,25864
32-19,26453358,31756
32-20,26457264,12527
32-21,26461170,-18689
32-22,26465076,-21630
32-23,26468982,-12113
32-24,26472888,-907
32-25,26476794,15193
32-26,26480700,31676
32-27,26484606,29408
32-28,26488512,-3008
32-29,26492418,-23622
32-30,26496324,-20022
32-31,26500230,-16683
32-32,26504136,-11306
32-1,26508048,3727
32-2,26511954,25805
32-3,26515860,22347
32-4,26519766,-10884
32-5,26523672,-24340
32-6,26527578,-18248
32-7,26531484,-14449
32-8,26535390,-6712
32-9,26539296,10620
32-10,26543202,26957
32-11,26547108,11036
32-12,26551014,-18763
32-13,26554920,-21003
32-14,26558826,-8104
32-15,26562732,8587
32-16,26566638,24223
32-17,26570544,31701
32-18,26574450,31304
32-19,26578356,2446
32-20,26582262,-22741
32-21,26586168,-20827
32-22,26590074,-13227
32-23,26593980,-3440
32-24,26597886,12744
32-25,26601792,30989
32-26,26605698,24621
32-27,26609604,-9994
32-28,26613510,-25046
32-29,26617416,-19551
32-30,26621322,-18338
32-31,26625228,-13985
32-32,26629134,3623
32-1,26633045,24068
32-2,26636951,11864
32-3,26640857,-18064
32-4,26644763,-22872
32-5,26648669,-18053
32-6,26652575,-17818
32-7,26656481,-13229
32-8,26660387,2824
32-9,26664293,15829
32-10,26668199,-1515
32-11,26672105,-21307
32-12,26676011,-17211
32-13,26679917,-5761
32-14,26683823,8387
32-15,26687729,23090
32-16,26691635,32432
32-17,26695541,26875
32-18,26699447,-6734
32-19,26703353,-23140
32-20,26707259,-17149
32-21,26711165,-9742
32-22,26715071,1958
32-23,26718977,19893
32-24,26722883,32124
32-25,26726789,17456
32-26,26730695,-15428
32-27,26734601,-22358
32-28,26738507,-16195
32-29,26742413,-16119
32-30,26746319,-15639
32-31,26750225,56
32-32,26754131,17747
32-1,26758043,1730
32-2,26761949,-20790
32-3,26765855,-19817
32-4,26769761,-15827
32-5,26773667,-13051
32-6,26777573,-2376
32-7,26781479,18316
32-8,26785385,21709
32-9,26789291,-6187
32-10,26793197,-21543
32-11,26797103,-14274
32-12,26801009,-2444
32-13,26804915,14602
32-14,26808821,29803
32-15,26812727,32721
32-16,26816633,19390
32-17,26820539,-13170
32-18,26824445,-21158
32-19,26828351,-11329
32-20,26832257,2693
32-21,26836163,20012
32-22,26840069,32353
32-23,26843975,31949
32-24,26847881,7920
32-25,26851787,-20169
32-26,26855693,-18749
32-27,26859599,-9280
32-28,26863505,-5258
32-29,26867411,-2888
32-30,26871317,8384
32-31,26875223,15967
32-32,26879129,-5141
32-1,26883224,-22834
32-2,26887130,-19182
32-3,26891036,-16566
32-4,26894942,-14854
32-5,26898848,-3602
32-6,26902754,15065
32-7,26906660,10875
32-8,26910566,-14717
32-9,26914472,-20744
32-10,26918378,-10467
32-11,26922284,4226
32-12,26926190,21087
32-13,26930096,32767
32-14,26934002,32358
32-15,26937908,9215
32-16,26941814,-19239
32-17,26945720,-20047
32-18,26949626,-11385
32-19,26953532,-1006
32-20,26957438,14433
32-21,26961344,31723
32-22,26965250,29320
32-23,26969156,-2789
32-24,26973062,-23165
32-25,26976968,-17658
32-26,26980874,-5829
32-27,26984780,4328
32-28,26988686,8842
32-29,26992592,11351
32-30,26996498,1264
32-31,27000404,-17298
32-32,27004310,-20969
32-1,27008069,-18209
32-2,27011975,-16713
32-3,27015881,-12661
32-4,27019787,1466
32-5,27023693,17960
32-6,27027599,4530
32-7,27031505,-18918
32-8,27035411,-18356
32-9,27039317,-6675
32-10,27043223,9328
32-11,27047129,25026
32-12,27051035,32718
32-13,27054941,30650
32-14,27058847,-415
32-15,27062753,-21983
32-16,27066659,-17500
32-17,27070565,-8525
32-18,27074471,3439
32-19,27078377,20158
32-20,27082283,32233
32-21,27086189,22644
32-22,27090095,-11480
32-23,27094001,-22412
32-24,27097907,-14447
32-25,27101813,-5612
32-26,27105719,11641
32-27,27109625,24718
32-28,27113531,20318
32-29,27117437,-135
32-30,27121343,-18774
32-31,27125249,-21125
32-32,27129155,-18303
32-1,27133036,-17295
32-2,27136942,-13179
32-3,27140848,2588
32-4,27144754,12808
32-5,27148660,-5471
32-6,27152566,-21614
32-7,27156472,-17063
32-8,27160378,-8006
32-9,27164284,4258
32-10,27168190,20064
32-11,27172096,32767
32-12,27176002,24033
32-13,27179908,-10054
32-14,27183814,-22335
32-15,27187720,-14320
32-16,27191626,-4554
32-17,27195532,9805
32-18,27199438,26783
32-19,27203344,32238
32-20,27207250,13125
32-21,27211156,-17842
32-22,27215062,-20902
32-23,27218968,-11595
32-24,27222874,-460
32-25,27226780,15514
32-26,27230686,32110
32-27,27234592,30243
32-28,27238498,-1881
32-29,27242404,-23137
32-30,27246310,-19875
32-31,27250216,-17128
32-32,27254122,-14365
32-1,27258033,-2685
32-2,27261939,17938
32-3,27265845,16944
32-4,27269751,-11690
32-5,27273657,-22919
32-6,27277563,-15959
32-7,27281469,-7480
32-8,27285375,7428
32-9,27289281,25749
32-10,27293187,32186
32-11,27297093,14579
32-12,27300999,-17361
32-13,27304905,-21215
32-14,27308811,-10895
32-15,27312717,2673
32-16,27316623,19406
32-17,27320529,31941
32-18,27324435,31542
32-19,27328341,2563
32-20,27332247,-22401
32-21,27336153,-19926
32-22,27340059,-10966
32-23,27343965,589
32-24,27347871,16867
32-25,27351777,31560
32-26,27355683,25067
32-27,27359589,-9378
32-28,27363495,-24619
32-29,27367401,-19545
32-30,27371307,-18586
32-31,27375213,-15485
32-32,27379119,575
32-1,27383031,20972
32-2,27386937,10419
32-3,27390843,-18186
32-4,27394749,-23032
32-5,27398655,-18267
32-6,27402561,-17759
32-7,27406467,-12977
32-8,27410373,3414
32-9,27414279,16557
32-10,27418185,-1056
32-11,27422091,-21250
32-12,27425997,-18175
32-13,27429903,-8804
32-14,27433809,3589
32-15,27437715,19186
32-16,27441621,32748
32-17,27445527,27371
32-18,27449433,-6540
32-19,27453339,-22921
32-20,27457245,-15570
32-21,27461151,-4949
32-22,27465057,9987
32-23,27468963,26446
32-24,27472869,32163
32-25,27476775,17209
32-26,27480681,-15695
32-27,27484587,-22680
32-28,27488493,-15413
32-29,27492399,-13995
32-30,27496305,-11196
32-31,27500211,9567
32-32,27504117,28729
32-1,27508029,6522
32-2,27511935,-21478
32-3,27515841,-20732
32-4,27519747,-16803
32-5,27523653,-15788
32-6,27527559,-7296
32-7,27531465,12034
32-8,27535371,17201
32-9,27539277,-7380
32-10,27543183,-21595
32-11,27547089,-14506
32-12,27550995,-3692
32-13,27554901,10932
32-14,27558807,26501
32-15,27562713,32747
32-16,27566619,19331
32-17,27570525,-13949
32-18,27574431,-22076
32-19,27578337,-14565
32-20,27582243,-6257
32-21,27586149,7833
32-22,27590055,26374
32-23,27593961,32376
32-24,27597867,7887
32-25,27601773,-20875
32-26,27605679,-17614
32-27,27609585,-7255
32-28,27613491,-3792
32-29,27617397,-2147
32-30,27621303,8452
32-31,27625209,15545
32-32,27629115,-5083
32-1,27633301,-22122
32-2,27637207,-18628
32-3,27641113,-16386
32-4,27645019,-15297
32-5,27648925,-4889
32-6,27652831,13802
32-7,27656737,10707
32-8,27660643,-14131
32-9,27664549,-19929
32-10,27668455,-9531
32-11,27672361,3891
32-12,27676267,19359
32-13,27680173,32345
32-14,27684079,32767
32-15,27687985,10248
32-16,27691891,-18174
32-17,27695797,-19381
32-18,27699703,-11841
32-19,27703609,-2657
32-20,27707515,12745
32-21,27711421,31222
32-22,27715327,30028
32-23,27719233,-1552
32-24,27723139,-22258
32-25,27727045,-16070
32-26,27730951,-536
32-27,27734857,12506
32-28,27738763,16687
32-29,27742669,18812
32-30,27746575,6715
32-31,27750481,-16125
32-32,27754387,-21341
32-1,27758024,-18079
32-2,27761930,-16786
32-3,27765836,-12793
32-4,27769742,1229
32-5,27773648,17467
32-6,27777554,4182
32-7,27781460,-18950
32-8,27785366,-17307
32-9,27789272,-2850
32-10,27793178,14964
32-11,27797084,28119
32-12,27800990,32494
32-13,27804896,30529
32-14,27808802,-48
32-15,27812708,-22257
32-16,27816614,-18526
32-17,27820520,-11103
32-18,27824426,-1054
32-19,27828332,15748
32-20,27832238,32168
32-21,27836144,22739
32-22,27840050,-11656
32-23,27843956,-22974
32-24,27847862,-14767
32-25,27851768,-6059
32-26,27855674,11117
32-27,27859580,24805
32-28,27863486,20897
32-29,27867392,125
32-30,27871298,-18987
32-31,27875204,-21458
32-32,27879110,-18231
32-1,27883022,-15787
32-2,27886928,-8911
32-3,27890834,9870
32-4,27894740,19509
32-5,27898646,-3418
32-6,27902552,-22519
32-7,27906458,-18281
32-8,27910364,-10518
32-9,27914270,259
32-10,27918176,16448
32-11,27922082,32604
32-12,27925988,24006
32-13,27929894,-10410
32-14,27933800,-23070
32-15,27937706,-14722
32-16,27941612,-4664
32-17,27945518,10150
32-18,27949424,27210
32-19,27953330,32087
32-20,27957236,13384
32-21,27961142,-18061
32-22,27965048,-21439
32-23,27968954,-11623
32-24,27972860,217
32-25,27976766,16398
32-26,27980672,31948
32-27,27984578,30378
32-28,27988484,-1803
32-29,27992390,-23384
32-30,27996296,-20160
32-31,28000202,-16833
32-32,28004108,-12468
32-1,28008019,929
32-2,28011925,22140
32-3,28015831,20231
32-4,28019737,-10884
32-5,28023643,-24004
32-6,28027549,-18044
32-7,28031455,-13300
32-8,28035361,-4071
32-9,28039267,14102
32-10,28043173,30557
32-11,28047079,13716
32-12,28050985,-18065
32-13,28054891,-22146
32-14,28058797,-13113
32-15,28062703,-2780
32-16,28066609,12605
32-17,28070515,29871
32-18,28074421,31871
32-19,28078327,2594
32-20,28082233,-22591
32-21,28086139,-19419
32-22,28090045,-9839
32-23,28093951,3063
32-24,28097857,19665
32-25,28101763,31801
32-26,28105669,25444
32-27,28109575,-8936
32-28,28113481,-23779
32-29,28117387,-18439
32-30,28121293,-16564
32-31,28125199,-9044
32-32,28129105,12512
32-1,28133017,31885
32-2,28136923,15533
32-3,28140829,-17911
32-4,28144735,-23393
32-5,28148641,-18349
32-6,28152547,-18194
32-7,28156453,-13729
32-8,28160359,2178
32-9,28164265,15363
32-10,28168171,-1547
32-11,28172077,-21461
32-12,28175983,-18607
32-13,28179889,-9645
32-14,28183795,2267
32-15,28187701,17806
32-16,28191607,32601
32-17,28195513,27222
32-18,28199419,-6552
32-19,28203325,-23075
32-20,28207231,-16048
32-21,28211137,-6373
32-22,28215043,7523
32-23,28218949,24497
32-24,28222855,32101
32-25,28226761,17182
32-26,28230667,-15833
32-27,28234573,-22959
32-28,28238479,-16888
32-29,28242385,-16765
32-30,28246291,-16174
32-31,28250197,-516
32-32,28254103,17240
32-1,28258106,1660
32-2,28262012,-20786
32-3,28265918,-20050
32-4,28269824,-16409
32-5,28273730,-14667
32-6,28277636,-5423
32-7,28281542,14957
32-8,28285448,19895
32-9,28289354,-6423
32-10,28293260,-21528
32-11,28297166,-14293
32-12,28301072,-3788
32-13,28304978,10584
32-14,28308884,26461
32-15,28312790,32767
32-16,28316696,19509
32-17,28320602,-13537
32-18,28324508,-21361
32-19,28328414,-12593
32-20,28332320,-1723
32-21,28336226,13941
32-22,28340132,30142
32-23,28344038,32176
32-24,28347944,7721
32-25,28351850,-20545
32-26,28355756,-19131
32-27,28359662,-11085
32-28,28363568,-8484
32-29,28367474,-7246
32-30,28371380,2338
32-31,28375286,10296
32-32,28379192,-6709
33-1,28379320,-21753
33-2,28383226,-18587
33-3,28387132,-15887
33-4,28391038,-13546
33-5,28394944,-1535
33-6,28398850,18179
33-7,28402756,13661
33-8,28406662,-13438
33-9,28410568,-20336
33-10,28414474,-11251
33-11,28418380,-12
33-12,28422286,15099
33-13,28426192,30494
33-14,28430098,32767
33-15,28434004,10271
33-16,28437910,-18296
33-17,28441816,-18392
33-18,28445722,-5989
33-19,28449628,11317
33-20,28453534,26764
33-21,28457440,32284
33-22,28461346,29441
33-23,28465252,-1026
33-24,28469158,-22250
33-25,28473064,-18622
33-26,28476970,-9302
33-27,28480876,-978
33-28,28484782,4350
33-29,28488688,7577
33-30,28492594,-1037
33-31,28496500,-17216
33-32,28500406,-20466
33-33,28504312,-18029
32-1,28511916,-15973
32-2,28515822,-10964
32-3,28519728,4064
32-4,28523634,20521
32-5,28527540,5846
32-6,28531446,-18662
32-7,28535352,-18104
32-8,28539258,-5594
32-9,28543164,11419
32-10,28547070,26582
32-11,28550976,32726
32-12,28554882,30901
32-13,28558788,537
32-14,28562694,-21579
32-15,28566600,-18147
32-16,28570506,-10983
32-17,28574412,-1339
32-18,28578318,15139
32-19,28582224,32383
32-20,28586130,23055
32-21,28590036,-11205
32-22,28593942,-22299
32-23,28597848,-12252
32-24,28601754,-454
32-25,28605660,17463
32-26,28609566,29025
32-27,28613472,23660
32-28,28617378,1862
32-29,28621284,-18724
32-30,28625190,-21458
32-31,28629096,-18205
32-32,28633002,-16716
32-1,28636914,-11320
32-2,28640820,6202
32-3,28644726,16738
32-4,28648632,-3718
32-5,28652538,-21894
32-6,28656444,-18080
32-7,28660350,-10466
32-8,28664256,442
32-9,28668162,16719
32-10,28672068,32614
32-11,28675974,24426
32-12,28679880,-9851
32-13,28683786,-22631
32-14,28687692,-13342
32-15,28691598,635
32-16,28695504,18495
32-17,28699410,31680
32-18,28703316,31837
32-19,28707222,13719
32-20,28711128,-17307
32-21,28715034,-21470
32-22,28718940,-10264
32-23,28722846,4798
32-24,28726752,21740
32-25,28730658,31545
32-26,28734564,29699
32-27,28738470,-1747
32-28,28742376,-23512
32-29,28746282,-20832
32-30,28750188,-18695
32-31,28754094,-17724
32-32,28758000,-8309
32-1,28761911,11799
32-2,28765817,14060
32-3,28769723,-11747
32-4,28773629,-23547
32-5,28777535,-18272
32-6,28781441,-13937
32-7,28785347,-5551
32-8,28789253,12008
32-9,28793159,28999
32-10,28797065,13382
32-11,28800971,-17639
32-12,28804877,-21845
32-13,28808783,-13390
32-14,28812689,-3945
32-15,28816595,10841
32-16,28820501,28703
32-17,28824407,32033
32-18,28828313,3474
32-19,28832219,-22062
32-20,28836125,-18569
32-21,28840031,-6116
32-22,28843937,11078
32-23,28847843,26796
32-24,28851749,31698
32-25,28855655,25428
32-26,28859561,-8075
32-27,28863467,-24715
32-28,28867373,-16445
32-29,28871279,-12003
32-30,28875185,-11070
32-31,28879091,5772
32-32,28882997,28907
32-1,28886909,15281
32-2,28890815,-17890
32-3,28894721,-23580
32-4,28898627,-18295
32-5,28902533,-17635
32-6,28906439,-12267
32-7,28910345,4695
32-8,28914251,17908
32-9,28918157,-486
32-10,28922063,-21757
32-11,28925969,-18200
32-12,28929875,-5869
32-13,28933781,10821
32-14,28937687,26084
32-15,28941593,32210
32-16,28945499,26916
32-17,28949405,-6300
32-18,28953311,-23650
32-19,28957217,-17329
32-20,28961123,-8409
32-21,28965029,4043
32-22,28968935,21187
32-23,28972841,31848
32-24,28976747,17008
32-25,28980653,-15981
32-26,28984559,-23424
32-27,28988465,-18657
32-28,28992371,-14101
32-29,28996277,-10588
32-30,29000183,-3097
32-31,29004089,10885
32-32,29007995,-21
32-1,29011907,-21111
32-2,29015813,-20941
32-3,29019719,-17263
32-4,29023625,-16481
32-5,29027531,-9173
32-6,29031437,9596
32-7,29035343,15977
32-8,29039249,-7338
32-9,29043155,-21473
32-10,29047061,-14617
32-11,29050967,-4210
32-12,29054873,10062
32-13,29058779,26094
32-14,29062685,32767
32-15,29066591,19539
32-16,29070497,-13432
32-17,29074403,-21331
32-18,29078309,-12976
32-19,29082215,-3077
32-20,29086121,11860
32-21,29090027,28827
32-22,29093933,32237
32-23,29097839,8271
32-24,29101745,-20891
32-25,29105651,-18291
32-26,29109557,-10821
32-27,29113463,-10577
32-28,29117369,803
32-29,29121275,14418
32-30,29125181,8210
32-31,29129087,-11364
32-32,29132993,-20256
32-1,29136904,-18825
32-2,29140810,-17163
32-3,29144716,-16445
32-4,29148622,-11057
32-5,29152528,3978
32-6,29156434,4456
32-7,29160340,-14192
32-8,29164246,-19743
32-9,29168152,-12356
32-10,29172058,-2183
32-11,29175964,11982
32-12,29179870,28695
32-13,29183776,32767
32-14,29187682,10125
32-15,29191588,-18540
32-16,29195494,-18205
32-17,29199400,-6759
32-18,29203306,8982
32-19,29207212,24968
32-20,29211118,32349
32-21,29215024,29574
32-22,29218930,-1043
32-23,29222836,-21673
32-24,29226742,-18100
32-25,29230648,-6028
32-26,29234554,2653
32-27,29238460,5063
32-28,29242366,17692
32-29,29246272,14881
32-30,29250178,-13831
32-31,29254084,-22688
32-32,29257990,-17134
32-1,29261902,-16894
32-2,29265808,-13601
32-3,29269714,67
32-4,29273620,15941
32-5,29277526,3846
32-6,29281432,-18696
32-7,29285338,-18778
32-8,29289244,-9968
32-9,29293150,1277
32-10,29297056,16294
32-11,29300962,32320
32-12,29304868,31358
32-13,29308774,84
32-14,29312680,-21529
32-15,29316586,-16717
32-16,29320492,-7239
32-17,29324398,5939
32-18,29328304,22504
32-19,29332210,32237
32-20,29336116,23141
32-21,29340022,-10781
32-22,29343928,-22165
32-23,29347834,-13734
32-24,29351740,-3312
32-25,29355646,14762
32-26,29359552,27601
32-27,29363458,23373
32-28,29367364,2396
32-29,29371270,-18217
32-30,29375176,-21343
32-31,29379082,-17453
32-32,29382988,-13952
32-1,29386899,-5060
32-2,29390805,15434
32-3,29394711,23907
32-4,29398617,-2059
32-5,29402523,-22617
32-6,29406429,-18992
32-7,29410335,-14161
32-8,29414241,-7425
32-9,29418147,7740
32-10,29422053,27452
32-11,29425959,22107
32-12,29429865,-10201
32-13,29433771,-21926
32-14,29437677,-11273
32-15,29441583,4017
32-16,29445489,20829
32-17,29449395,31775
32-18,29453301,31699
32-19,29457207,13950
32-20,29461113,-17131
32-21,29465019,-22147
32-22,29468925,-14180
32-23,29472831,-5841
32-24,29476737,8862
32-25,29480643,28627
32-26,29484549,29562
32-27,29488455,-2170
32-28,29492361,-23525
32-29,29496267,-20142
32-30,29500173,-18282
32-31,29504079,-16944
32-32,29507985,-7120
32-1,29511897,13136
32-2,29515803,15228
32-3,29519709,-11093
32-4,29523615,-23173
32-5,29527521,-17764
32-6,29531427,-13188
32-7,29535333,-4630
32-8,29539239,12928
32-9,29543145,29741
32-10,29547051,13909
32-11,29550957,-17355
32-12,29554863,-21055
32-13,29558769,-10523
32-14,29562675,2009
32-15,29566581,17703
32-16,29570487,32178
32-17,29574393,31896
32-18,29578299,3767
32-19,29582205,-21650
32-20,29586111,-19689
32-21,29590017,-11860
32-22,29593923,-1465
32-23,29597829,15023
32-24,29601735,31944
32-25,29605641,26365
32-26,29609547,-7793
32-27,29613453,-24310
32-28,29617359,-16878
32-29,29621265,-13746
32-30,29625171,-13854
32-31,29629077,421
32-32,29632983,22370
32-1,29636895,11927
32-2,29640801,-17363
32-3,29644707,-22221
32-4,29648613,-17304
32-5,29652519,-16259
32-6,29656425,-10393
32-7,29660331,7051
32-8,29664237,20431
32-9,29668143,1346
32-10,29672049,-20428
32-11,29675955,-15181
32-12,29679861,1152
32-13,29683767,19168
32-14,29687673,29917
32-15,29691579,32230
32-16,29695485,27199
32-17,29699391,-5249
32-18,29703297,-23130
32-19,29707203,-17580
32-20,29711109,-10328
32-21,29715015,556
32-22,29718921,18102
32-23,29722827,31955
32-24,29726733,17519
32-25,29730639,-15222
32-26,29734545,-22819
32-27,29738451,-17461
32-28,29742357,-9633
32-29,29746263,-3259
32-30,29750169,6185
32-31,29754075,21705
32-32,29757981,6014
32-1,29761892,-21315
32-2,29765798,-21239
32-3,29769704,-16719
32-4,29773610,-15938
32-5,29777516,-7619
32-6,29781422,11504
32-7,29785328,17224
32-8,29789234,-7166
32-9,29793140,-21728
32-10,29797046,-13995
32-11,29800952,-534
32-12,29804858,16804
32-13,29808764,30269
32-14,29812670,32390
32-15,29816576,19606
32-16,29820482,-13008
32-17,29824388,-21935
32-18,29828294,-13529
32-19,29832200,-3640
32-20,29836106,10977
32-21,29840012,28157
32-22,29843918,31899
32-23,29847824,8226
32-24,29851730,-21242
32-25,29855636,-18930
32-26,29859542,-11833
32-27,29863448,-11824
32-28,29867354,-763
32-29,29871260,12450
32-30,29875166,6891
32-31,29879072,-11651
32-32,29882978,-20421
32-1,29886890,-19113
32-2,29890796,-17101
32-3,29894702,-14927
32-4,29898608,-5401
32-5,29902514,13462
32-6,29906420,11026
32-7,29910326,-13644
32-8,29914232,-20380
32-9,29918138,-10673
32-10,29922044,3499
32-11,29925950,20350
32-12,29929856,32767
32-13,29933762,32443
32-14,29937668,10491
32-15,29941574,-18377
32-16,29945480,-19793
32-17,29949386,-11154
32-18,29953292,-810
32-19,29957198,14446
32-20,29961104,31571
32-21,29965010,29922
32-22,29968916,-1531
32-23,29972822,-22429
32-24,29976728,-18287
32-25,29980634,-5744
32-26,29984540,3397
32-27,29988446,5817
32-28,29992352,18834
32-29,29996258,16035
32-30,30000164,-13725
32-31,30004070,-23135
32-32,30007976,-17423
32-1,30011888,-17044
32-2,30015794,-13474
32-3,30019700,899
32-4,30023606,17343
32-5,30027512,4564
32-6,30031418,-19093
32-7,30035324,-19340
32-8,30039230,-10464
32-9,30043136,622
32-10,30047042,15637
32-11,30050948,31905
32-12,30054854,31247
32-13,30058760,-11
32-14,30062666,-21734
32-15,30066572,-16988
32-16,30070478,-7773
32-17,30074384,5111
32-18,30078290,21843
32-19,30082196,32255
32-20,30086102,23202
32-21,30090008,-10748
32-22,30093914,-22246
32-23,30097820,-14241
32-24,30101726,-4666
32-25,30105632,12948
32-26,30109538,25718
32-27,30113444,21533
32-28,30117350,1435
32-29,30121256,-18146
32-30,30125162,-21136
32-31,30129068,-17173
32-32,30132974,-12692
32-1,30136885,-2010
32-2,30140791,20258
32-3,30144697,28489
32-4,30148603,-343
32-5,30152509,-22946
32-6,30156415,-18992
32-7,30160321,-13290
32-8,30164227,-5519
32-9,30168133,10081
32-10,30172039,29162
32-11,30175945,23109
32-12,30179851,-10122
32-13,30183757,-22959
32-14,30187663,-14905
32-15,30191569,-5225
32-16,30195475,9372
32-17,30199381,26380
32-18,30203287,31911
32-19,30207193,13860
32-20,30211099,-17687
32-21,30215005,-21595
32-22,30218911,-12236
32-23,30222817,-1290
32-24,30226723,14473
32-25,30230629,31567
32-26,30234535,30154
32-27,30238441,-1790
32-28,30242347,-23541
32-29,30246253,-20469
32-30,30250159,-17942
32-31,30254065,-15368
32-32,30257971,-3106
32-1,30261883,19683
32-2,30265789,20545
32-3,30269695,-9953
32-4,30273601,-23847
32-5,30277507,-18103
32-6,30281413,-14303
32-7,30285319,-7048
32-8,30289225,9910
32-9,30293131,26971
32-10,30297037,12303
32-11,30300943,-17749
32-12,30304849,-21305
32-13,30308755,-11366
32-14,30312661,317
32-15,30316567,15557
32-16,30320473,31069
32-17,30324379,31903
32-18,30328285,3340
32-19,30332191,-22269
32-20,30336097,-19509
32-21,30340003,-9973
32-22,30343909,2667
32-23,30347815,19210
32-24,30351721,31833
32-25,30355627,26193
32-26,30359533,-7844
32-27,30363439,-24555
32-28,30367345,-17409
32-29,30371251,-14247
32-30,30375157,-14494
32-31,30379063,-429
32-32,30382969,21827
32-1,30386880,11999
32-2,30390786,-17405
32-3,30394692,-22677
32-4,30398598,-17714
32-5,30402504,-16743
32-6,30406410,-11248
32-7,30410316,5938
32-8,30414222,19531
32-9,30418128,988
32-10,30422034,-20875
32-11,30425940,-17934
32-12,30429846,-7774
32-13,30433752,5594
32-14,30437658,21379
32-15,30441564,32650
32-16,30445470,27976
32-17,30449376,-5416
32-18,30453282,-22756
32-19,30457188,-17078
32-20,30461094,-9358
32-21,30465000,2755
32-22,30468906,20662
32-23,30472812,32279
32-24,30476718,18116
32-25,30480624,-14292
32-26,30484530,-21557
32-27,30488436,-15539
32-28,30492342,-5135
32-29,30496248,2952
32-30,30500154,11685
32-31,30504060,26007
32-32,30507966,8181
32-1,30511878,-21197
32-2,30515784,-21236
32-3,30519690,-16784
32-4,30523596,-16908
32-5,30527502,-9873
32-6,30531408,8265
32-7,30535314,14993
32-8,30539220,-7389
32-9,30543126,-21271
32-10,30547032,-13701
32-11,30550938,-1657
32-12,30554844,13288
32-13,30558750,27517
32-14,30562656,32560
32-15,30566562,19966
32-16,30570468,-13167
32-17,30574374,-22061
32-18,30578280,-14776
32-19,30582186,-6946
32-20,30586092,6689
32-21,30589998,25291
32-22,30593904,32213
32-23,30597810,9044
32-24,30601716,-21167
32-25,30605622,-17873
32-26,30609528,-8469
32-27,30613434,-6284
32-28,30617340,7817
32-29,30621246,23334
32-30,30625152,15491
32-31,30629058,-8913
32-32,30632964,-21028
32-1,30636876,-19360
32-2,30640782,-16997
32-3,30644688,-14563
32-4,30648594,-4164
32-5,30652500,14988
32-6,30656406,11786
32-7,30660312,-13954
32-8,30664218,-20209
32-9,30668124,-7398
32-10,30672030,10042
32-11,30675936,25394
32-12,30679842,32584
32-13,30683748,32176
32-14,30687654,10796
32-15,30691560,-18705
32-16,30695466,-20877
32-17,30699372,-13241
32-18,30703278,-4662
32-19,30707184,9994
32-20,30711090,29053
32-21,30714996,29640
32-22,30718902,-1591
32-23,30722808,-23119
32-24,30726714,-18137
32-25,30730620,-1985
32-26,30734526,10106
32-27,30738432,12459
32-28,30742338,25388
32-29,30746244,20601
32-30,30750150,-13651
32-31,30754056,-24532
32-32,30757962,-18162
32-1,30761873,-18007
32-2,30765779,-14634
32-3,30769685,-715
32-4,30773591,15526
32-5,30777497,3488
32-6,30781403,-19800
32-7,30785309,-19764
32-8,30789215,-8631
32-9,30793121,6848
32-10,30797027,22964
32-11,30800933,32305
32-12,30804839,30832
32-13,30808745,-285
32-14,30812651,-22675
32-15,30816557,-18710
32-16,30820463,-10100
32-17,30824369,1200
32-18,30828275,17633
32-19,30832181,31925
32-20,30836087,23079
32-21,30839993,-11546
32-22,30843899,-23566
32-23,30847805,-15365
32-24,30851711,-6469
32-25,30855617,10718
32-26,30859523,24168
32-27,30863429,20499
32-28,30867335,540
32-29,30871241,-18889
32-30,30875147,-22012
32-31,30879053,-18163
32-32,30882959,-13661
32-1,30886902,-3996
32-2,30890808,16525
32-3,30894714,25232
32-4,30898620,-1310
32-5,30902526,-23303
32-6,30906432,-19973
32-7,30910338,-14728
32-8,30914244,-7603
32-9,30918150,7841
32-10,30922056,27854
32-11,30925962,22852
32-12,30929868,-10365
32-13,30933774,-23627
32-14,30937680,-15663
32-15,30941586,-6338
32-16,30945492,7750
32-17,30949398,25185
32-18,30953304,32068
32-19,30957210,13909
32-20,30961116,-18074
32-21,30965022,-21986
32-22,30968928,-12438
32-23,30972834,-1238
32-24,30976740,14717
32-25,30980646,31818
32-26,30984552,30429
32-27,30988458,-1664
32-28,30992364,-23659
32-29,30996270,-20649
32-30,31000176,-18663
32-31,31004082,-18149
32-32,31007988,-10265
32-1,31011869,8513
32-2,31015775,11905
32-3,31019681,-11746
32-4,31023587,-22909
32-5,31027493,-17464
32-6,31031399,-11742
32-7,31035305,-1718
32-8,31039211,16066
32-9,31043117,32082
32-10,31047023,15235
32-11,31050929,-16925
32-12,31054835,-21460
32-13,31058741,-12638
32-14,31062647,-2673
32-15,31066553,12593
32-16,31070459,29985
32-17,31074365,32264
32-18,31078271,3825
32-19,31082177,-21670
32-20,31086083,-18093
32-21,31089989,-5767
32-22,31093895,10788
32-23,31097801,26273
32-24,31101707,31916
32-25,31105613,26165
32-26,31109519,-7132
32-27,31113425,-24268
32-28,31117331,-16403
32-29,31121237,-12053
32-30,31125143,-10960
32-31,31129049,5872
32-32,31132955,29087
32-1,31136866,16081
32-2,31140772,-17140
32-3,31144678,-23394
32-4,31148584,-18161
32-5,31152490,-17479
32-6,31156396,-12264
32-7,31160302,4609
32-8,31164208,18248
32-9,31168114,381
32-10,31172020,-21201
32-11,31175926,-18631
32-12,31179832,-9281
32-13,31183738,2677
32-14,31187644,18067
32-15,31191550,32598
32-16,31195456,27837
32-17,31199362,-5912
32-18,31203268,-23240
32-19,31207174,-16532
32-20,31211080,-7100
32-21,31214986,6620
32-22,31218892,23703
32-23,31222798,32120
32-24,31226704,18011
32-25,31230610,-14657
32-26,31234516,-22628
32-27,31238422,-17983
32-28,31242328,-12872
32-29,31246234,-9020
32-30,31250140,-1596
32-31,31254046,12480
32-32,31257952,1410
32-1,31261864,-20532
32-2,31265770,-20671
32-3,31269676,-16656
32-4,31273582,-15333
32-5,31277488,-7207
32-6,31281394,12214
32-7,31285300,18425
32-8,31289206,-6225
32-9,31293112,-21482
32-10,31297018,-14764
32-11,31300924,-4566
32-12,31304830,9443
32-13,31308736,25423
32-14,31312642,32767
32-15,31316548,20267
32-16,31320454,-13138
32-17,31324360,-21694
32-18,31328266,-13089
32-19,31332172,-2568
32-20,31336078,12881
32-21,31339984,29431
32-22,31343890,32204
32-23,31347796,9022
32-24,31351702,-20668
32-25,31355608,-19357
32-26,31359514,-12822
32-27,31363420,-12991
32-28,31367326,-1872
32-29,31371232,12211
32-30,31375138,7627
32-31,31379044,-10976
32-32,31382950,-20075
32-1,31386862,-18652
32-2,31390768,-15968
32-3,31394674,-12058
32-4,31398580,-65
32-5,31402486,20123
32-6,31406392,15635
32-7,31410298,-12541
32-8,31414204,-20212
32-9,31418110,-9191
32-10,31422016,6450
32-11,31425922,23045
32-12,31429828,32767
32-13,31433734,32358
32-14,31437640,10926
32-15,31441546,-18471
32-16,31445452,-20673
32-17,31449358,-13222
32-18,31453264,-4980
32-19,31457170,9379
32-20,31461076,28562
32-21,31464982,29907
32-22,31468888,-854
32-23,31472794,-22301
32-24,31476700,-15244
32-25,31480606,4056
32-26,31484512,17100
32-27,31488418,18043
32-28,31492324,28074
32-29,31496230,20994
32-30,31500136,-13416
32-31,31504042,-24086
32-32,31507948,-18016
32-1,31511951,-18343
32-2,31515857,-16163
32-3,31519763,-4259
32-4,31523669,11338
32-5,31527575,1728
32-6,31531481,-19331
32-7,31535387,-19182
32-8,31539293,-8641
32-9,31543199,4776
32-10,31547105,19508
32-11,31551011,32351
32-12,31554917,31228
32-13,31558823,-151
32-14,31562729,-22669
32-15,31566635,-18958
32-16,31570541,-11510
32-17,31574447,-1093
32-18,31578353,15682
32-19,31582259,32037
32-20,31586165,23411
32-21,31590071,-11089
32-22,31593977,-23240
32-23,31597883,-13630
32-24,31601789,-12
32-25,31605695,19615
32-26,31609601,30386
32-27,31613507,25674
32-28,31617413,4646
32-29,31621319,-18532
32-30,31625225,-22451
32-31,31629131,-17239
32-32,31633037,-10661
32-1,31636857,2619
32-2,31640763,24353
32-3,31644669,30541
32-4,31648575,194
32-5,31652481,-23994
32-6,31656387,-20395
32-7,31660293,-14046
32-8,31664199,-4658
32-9,31668105,12693
32-10,31672011,31560
32-11,31675917,24409
32-12,31679823,-10226
32-13,31683729,-24560
32-14,31687635,-17259
32-15,31691541,-9178
32-16,31695447,2930
32-17,31699353,20473
32-18,31703259,31470
32-19,31707165,13341
32-20,31711071,-19310
32-21,31714977,-23292
32-22,31718883,-13363
32-23,31722789,-2111
32-24,31726695,13936
32-25,31730601,31243
32-26,31734507,30011
32-27,31738413,-2352
32-28,31742319,-24548
32-29,31746225,-21438
32-30,31750131,-19355
32-31,31754037,-18098
32-32,31757943,-8630
32-1,31761854,11523
32-2,31765760,14499
32-3,31769666,-11337
32-4,31773572,-23952
32-5,31777478,-18996
32-6,31781384,-15387
32-7,31785290,-8487
32-8,31789196,8167
32-9,31793102,26154
32-10,31797008,12712
32-11,31800914,-17555
32-12,31804820,-22115
32-13,31808726,-13613
32-14,31812632,-4063
32-15,31816538,10608
32-16,31820444,28418
32-17,31824350,32156
32-18,31828256,4373
32-19,31832162,-21883
32-20,31836068,-19419
32-21,31839974,-10149
32-22,31843880,2087
32-23,31847786,18684
32-24,31851692,32080
32-25,31855598,26922
32-26,31859504,-7112
32-27,31863410,-24152
32-28,31867316,-15677
32-29,31871222,-10959
32-30,31875128,-9336
32-31,31879034,7921
32-32,31882940,30898
32-1,31886852,17136
32-2,31890758,-16780
32-3,31894664,-23244
32-4,31898570,-17604
32-5,31902476,-15446
32-6,31906382,-7166
32-7,31910288,13021
32-8,31914194,26602
32-9,31918100,3893
32-10,31922006,-21838
32-11,31925912,-18684
32-12,31929818,-6292
32-13,31933724,9494
32-14,31937630,25078
32-15,31941536,32088
32-16,31945442,27131
32-17,31949348,-6090
32-18,31953254,-23861
32-19,31957160,-17712
32-20,31961066,-8776
32-21,31964972,3631
32-22,31968878,20702
32-23,31972784,31747
32-24,31976690,17409
32-25,31980596,-15752
32-26,31984502,-23672
32-27,31988408,-18969
32-28,31992314,-14343
32-29,31996220,-10716
32-30,32000126,-3201
32-31,32004032,11194
32-32,32007938,622
32-1,32011850,-20962
32-2,32015756,-20967
32-3,32019662,-16587
32-4,32023568,-13590
32-5,32027474,-2142
32-6,32031380,20108
32-7,32035286,24837
32-8,32039192,-4868
32-9,32043098,-22889
32-10,32047004,-15939
32-11,32050910,-6337
32-12,32054816,6411
32-13,32058722,22697
32-14,32062628,32686
32-15,32066534,20148
32-16,32070440,-13513
32-17,32074346,-22038
32-18,32078252,-13383
32-19,32082158,-3026
32-20,32086064,12271
32-21,32089970,28937
32-22,32093876,32158
32-23,32097782,8687
32-24,32101688,-21338
32-25,32105594,-19394
32-26,32109500,-11920
32-27,32113406,-11777
32-28,32117312,-707
32-29,32121218,12901
32-30,32125124,7596
32-31,32129030,-11366
32-32,32132936,-20591
32-1,32137091,-19251
32-2,32140997,-17029
32-3,32144903,-14439
32-4,32148809,-4247
32-5,32152715,15058
32-6,32156621,12232
32-7,32160527,-13434
32-8,32164433,-20867
32-9,32168339,-12475
32-10,32172245,-2063
32-11,32176151,12364
32-12,32180057,28663
32-13,32183963,32767
32-14,32187869,10891
32-15,32191775,-18787
32-16,32195681,-19700
32-17,32199587,-10497
32-18,32203493,1134
32-19,32207399,17240
32-20,32211305,32601
32-21,32215211,30639
32-22,32219117,-579
32-23,32223023,-21823
32-24,32226929,-17837
32-25,32230835,-3984
32-26,32234741,6424
32-27,32238647,8791
32-28,32242553,21431
32-29,32246459,17982
32-30,32250365,-13209
32-31,32254271,-23255
32-32,32258177,-17398
32-1,32261845,-17166
32-2,32265751,-13733
32-3,32269657,195
32-4,32273563,16724
32-5,32277469,4859
32-6,32281375,-18786
32-7,32285281,-19412
32-8,32289187,-10211
32-9,32293093,1498
32-10,32296999,16650
32-11,32300905,32383
32-12,32304811,31802
32-13,32308717,671
32-14,32312623,-22017
32-15,32316529,-18308
32-16,32320435,-10464
32-17,32324341,792
32-18,32328247,18021
32-19,32332153,32424
32-20,32336059,24100
32-21,32339965,-10553
32-22,32343871,-22431
32-23,32347777,-12377
32-24,32351683,143
32-25,32355589,18310
32-26,32359495,29388
32-27,32363401,24533
32-28,32367307,3531
32-29,32371213,-18203
32-30,32375119,-21765
32-31,32379025,-17292
32-32,32382931,-11469
32-1,32386843,1293
32-2,32390749,23550
32-3,32394655,30851
32-4,32398561,1118
32-5,32402467,-23309
32-6,32406373,-20174
32-7,32410279,-15011
32-8,32414185,-8841
32-9,32418091,5944
32-10,32421997,25988
32-11,32425903,21973
32-12,32429809,-10232
32-13,32433715,-22873
32-14,32437621,-12059
32-15,32441527,3694
32-16,32445433,20689
32-17,32449339,31504
32-18,32453245,31508
32-19,32457151,14303
32-20,32461057,-17506
32-21,32464963,-23190
32-22,32468869,-15380
32-23,32472775,-7808
32-24,32476681,6014
32-25,32480587,26301
32-26,32484493,28984
32-27,32488399,-2274
32-28,32492305,-24225
32-29,32496211,-20752
32-30,32500117,-18898
32-31,32504023,-17643
32-32,32507929,-7847
32-1,32511840,12395
32-2,32515746,15150
32-3,32519652,-11082
32-4,32523558,-23726
32-5,32527464,-18379
32-6,32531370,-13854
32-7,32535276,-5477
32-8,32539182,11944
32-9,32543088,29224
32-10,32546994,14350
32-11,32550900,-17111
32-12,32554806,-22022
32-13,32558712,-13410
32-14,32562618,-3682
32-15,32566524,11230
32-16,32570430,28892
32-17,32574336,32169
32-18,32578242,4471
32-19,32582148,-22008
32-20,32586054,-18924
32-21,32589960,-6188
32-22,32593866,11238
32-23,32597772,26921
32-24,32601678,31821
32-25,32605584,26541
32-26,32609490,-6663
32-27,32613396,-24580
32-28,32617302,-16495
32-29,32621208,-11619
32-30,32625114,-10521
32-31,32629020,6370
32-32,32632926,29659
32-1,32636838,16362
32-2,32640744,-17334
32-3,32644650,-23607
32-4,32648556,-18428
32-5,32652462,-18388
32-6,32656368,-14464
32-7,32660274,636
32-8,32664180,14413
32-9,32668086,-988
32-10,32671992,-21233
32-11,32675898,-19052
32-12,32679804,-10099
32-13,32683710,1719
32-14,32687616,17169
32-15,32691522,32672
32-16,32695428,28275
32-17,32699334,-5333
32-18,32703240,-23161
32-19,32707146,-16784
32-20,32711052,-7898
32-21,32714958,5001
32-22,32718864,22049
32-23,32722770,32233
32-24,32726676,18511
32-25,32730582,-14585
32-26,32734488,-22853
32-27,32738394,-17986
32-28,32742300,-12909
32-29,32746206,-9196
32-30,32750112,-1458
32-31,32754018,13477
32-32,32757924,2448
32-1,32761988,-20287
32-2,32765894,-20532
32-3,32769800,-16438
32-4,32773706,-15344
32-5,32777612,-7586
32-6,32781518,11494
32-7,32785424,18279
32-8,32789330,-5777
32-9,32793236,-21150
32-10,32797142,-13715
32-11,32801048,-311
32-12,32804954,16975
32-13,32808860,30526
32-14,32812766,32767
32-15,32816672,20671
32-16,32820578,-12035
32-17,32824484,-21669
32-18,32828390,-13601
32-19,32832296,-4323
32-20,32836202,9796
32-21,32840108,27307
32-22,32844014,32278
32-23,32847920,9557
32-24,32851826,-20441
32-25,32855732,-18703
32-26,32859638,-11434
32-27,32863544,-11266
32-28,32867450,-171
32-29,32871356,12991
32-30,32875262,7617
32-31,32879168,-10943
32-32,32883074,-20148
32-1,32886833,-18924
32-2,32890739,-16851
32-3,32894645,-14862
32-4,32898551,-5698
32-5,32902457,13189
32-6,32906363,11470
32-7,32910269,-12994
32-8,32914175,-20325
32-9,32918081,-12229
32-10,32921987,-2269
32-11,32925893,11806
32-12,32929799,28309
32-13,32933705,32767
32-14,32937611,11127
32-15,32941517,-18261
32-16,32945423,-19212
32-17,32949329,-10286
32-18,32953235,1038
32-19,32957141,16999
32-20,32961047,32588
32-21,32964953,30669
32-22,32968859,-300
32-23,32972765,-21454
32-24,32976671,-17836
32-25,32980577,-5284
32-26,32984483,4006
32-27,32988389,6229
32-28,32992295,19187
32-29,32996201,17120
32-30,33000107,-12637
32-31,33004013,-22694
32-32,33007919,-17009
32-1,33011831,-16582
32-2,33015737,-13058
32-3,33019643,1065
32-4,33023549,17823
32-5,33027455,5884
32-6,33031361,-18172
32-7,33035267,-18969
32-8,33039173,-9772
32-9,33043079,1788
32-10,33046985,16939
32-11,33050891,32536
32-12,33054797,31818
32-13,33058703,1025
32-14,33062609,-21064
32-15,33066515,-15839
32-16,33070421,-3227
32-17,33074327,13635
32-18,33078233,28192
32-19,33082139,31993
32-20,33086045,23609
32-21,33089951,-9563
32-22,33093857,-22603
32-23,33097763,-15124
32-24,33101669,-6246
32-25,33105575,10394
32-26,33109481,23445
32-27,33113387,20342
32-28,33117293,1446
32-29,33121199,-18072
32-30,33125105,-21560
32-31,33129011,-17906
32-32,33132917,-14684
32-1,33136828,-6633
32-2,33140734,13226
32-3,33144640,22861
32-4,33148546,-1663
32-5,33152452,-22542
32-6,33156358,-19369
32-7,33160264,-14549
32-8,33164170,-8213
32-9,33168076,6402
32-10,33171982,26556
32-11,33175888,22734
32-12,33179794,-9482
32-13,33183700,-22440
32-14,33187606,-13558
32-15,33191512,-2172
32-16,33195418,13019
32-17,33199324,28272
32-18,33203230,32008
32-19,33207136,14683
32-20,33211042,-17032
32-21,33214948,-21384
32-22,33218854,-9466
32-23,33222760,6847
32-24,33226666,23528
32-25,33230572,31640
32-26,33234478,29618
32-27,33238384,-1412
32-28,33242290,-23382
32-29,33246196,-20804
32-30,33250102,-18223
32-31,33254008,-16326
32-32,33257914,-5484
32-1,33261826,16404
32-2,33265732,18827
32-3,33269638,-9904
32-4,33273544,-23947
32-5,33277450,-18467
32-6,33281356,-14661
32-7,33285262,-7759
32-8,33289168,8683
32-9,33293074,26152
32-10,33296980,12712
32-11,33300886,-17261
32-12,33304792,-20946
32-13,33308698,-8749
32-14,33312604,7405
32-15,33316510,23518
32-16,33320416,32036
32-17,33324322,31635
32-18,33328228,4595
32-19,33332134,-21826
32-20,33336040,-20901
32-21,33339946,-13844
32-22,33343852,-5671
32-23,33347758,9395
32-24,33351664,28590
32-25,33355570,25997
32-26,33359476,-7405
32-27,33363382,-24831
32-28,33367288,-17066
32-29,33371194,-13476
32-30,33375100,-13404
32-31,33379006,747
32-32,33382912,22952
32-1,33386824,13327
32-2,33390730,-16714
32-3,33394636,-22640
32-4,33398542,-17777
32-5,33402448,-17394
32-6,33406354,-13178
32-7,33410260,2362
32-8,33414166,16486
32-9,33418072,575
32-10,33421978,-20348
32-11,33425884,-17065
32-12,33429790,-5158
32-13,33433696,9111
32-14,33437602,23363
32-15,33441508,32618
32-16,33445414,28364
32-17,33449320,-4789
32-18,33453226,-22878
32-19,33457132,-17553
32-20,33461038,-10681
32-21,33464944,119
32-22,33468850,17863
32-23,33472756,32327
32-24,33476662,18939
32-25,33480568,-13900
32-26,33484474,-22346
32-27,33488380,-17097
32-28,33492286,-9382
32-29,33496192,-3267
32-30,33500098,5970
32-31,33504004,22122
32-32,33507910,7458
32-1,33511821,-20258
32-2,33515727,-20757
32-3,33519633,-16158
32-4,33523539,-15494
32-5,33527445,-7671
32-6,33531351,11218
32-7,33535257,17981
32-8,33539163,-5796
32-9,33543069,-20795
32-10,33546975,-11442
32-11,33550881,5118
32-12,33554787,22156
32-13,33558693,31577
32-14,33562599,32437
32-15,33566505,20973
32-16,33570411,-11810
32-17,33574317,-22237
32-18,33578223,-15053
32-19,33582129,-7569
32-20,33586035,5139
32-21,33589941,23767
32-22,33593847,32113
32-23,33597753,9824
32-24,33601659,-20741
32-25,33605565,-18907
32-26,33609471,-11198
32-27,33613377,-10984
32-28,33617283,773
32-29,33621189,15224
32-30,33625095,9820
32-31,33629001,-10297
32-32,33632907,-20421
32-1,33636819,-19118
32-2,33640725,-16810
32-3,33644631,-14116
32-4,33648537,-3941
32-5,33652443,15511
32-6,33656349,13183
32-7,33660255,-12757
32-8,33664161,-20450
32-9,33668067,-10503
32-10,33671973,3868
32-11,33675879,20685
32-12,33679785,32767
32-13,33683691,32444
32-14,33687597,11348
32-15,33691503,-18288
32-16,33695409,-20373
32-17,33699315,-11543
32-18,33703221,-1100
32-19,33707127,14123
32-20,33711033,31348
32-21,33714939,30504
32-22,33718845,-730
32-23,33722751,-22522
32-24,33726657,-18828
32-25,33730563,-6572
32-26,33734469,2144
32-27,33738375,4135
32-28,33742281,17293
32-29,33746187,15835
32-30,33750093,-13357
32-31,33753999,-23195
32-32,33757905,-17622
32-1,33761817,-17571
32-2,33765723,-14969
32-3,33769629,-2451
32-4,33773535,14075
32-5,33777441,4281
32-6,33781347,-18230
32-7,33785253,-19208
32-8,33789159,-10239
32-9,33793065,1245
32-10,33796971,16333
32-11,33800877,32287
32-12,33804783,32085
32-13,33808689,1221
32-14,33812595,-21544
32-15,33816501,-17326
32-16,33820407,-8118
32-17,33824313,4404
32-18,33828219,21115
32-19,33832125,32399
32-20,33836031,24060
32-21,33839937,-10127
32-22,33843843,-22456
32-23,33847749,-14762
32-24,33851655,-5815
32-25,33855561,11347
32-26,33859467,24269
32-27,33863373,20843
32-28,33867279,1850
32-29,33871185,-17774
32-30,33875091,-21286
32-31,33878997,-17493
32-32,33882903,-14004
32-1,33886814,-5520
32-2,33890720,14580
32-3,33894626,23997
32-4,33898532,-1075
32-5,33902438,-22159
32-6,33906344,-18158
32-7,33910250,-10411
32-8,33914156,2152
32-9,33918062,20202
32-10,33921968,32457
32-11,33925874,25395
32-12,33929780,-8558
32-13,33933686,-22326
32-14,33937592,-14073
32-15,33941498,-2156
32-16,33945404,14118
32-17,33949310,29360
32-18,33953216,31776
32-19,33957122,14502
32-20,33961028,-17106
32-21,33964934,-21654
32-22,33968840,-10882
32-23,33972746,2821
32-24,33976652,19390
32-25,33980558,31538
32-26,33984464,30253
32-27,33988370,-1061
32-28,33992276,-23426
32-29,33996182,-20958
32-30,34000088,-18322
32-31,34003994,-16394
32-32,34007900,-5509
32-1,34011812,16344
32-2,34015718,18463
32-3,34019624,-10367
32-4,34023530,-24205
32-5,34027436,-18766
32-6,34031342,-15300
32-7,34035248,-8875
32-8,34039154,7076
32-9,34043060,24594
32-10,34046966,11915
32-11,34050872,-17506
32-12,34054778,-21750
32-13,34058684,-12236
32-14,34062590,-1108
32-15,34066496,13695
32-16,34070402,29737
32-17,34074308,31931
32-18,34078214,4542
32-19,34082120,-21940
32-20,34086026,-19801
32-21,34089932,-10486
32-22,34093838,1624
32-23,34097744,17979
32-24,34101650,31881
32-25,34105556,26999
32-26,34109462,-7046
32-27,34113368,-24588
32-28,34117274,-16516
32-29,34121180,-12233
32-30,34125086,-10901
32-31,34128992,6055
32-32,34132898,29584
32-1,34136809,17243
32-2,34140715,-16583
32-3,34144621,-23719
32-4,34148527,-18364
32-5,34152433,-17677
32-6,34156339,-12839
32-7,34160245,3467
32-8,34164151,17441
32-9,34168057,636
32-10,34171963,-21022
32-11,34175869,-18830
32-12,34179775,-9460
32-13,34183681,2563
32-14,34187587,17997
32-15,34191493,32571
32-16,34195399,28449
32-17,34199305,-5159
32-18,34203211,-23437
32-19,34207117,-17840
32-20,34211023,-10423
32-21,34214929,1174
32-22,34218835,18990
32-23,34222741,32263
32-24,34226647,18914
32-25,34230553,-14218
32-26,34234459,-22528
32-27,34238365,-17292
32-28,34242271,-10205
32-29,34246177,-4659
32-30,34250083,2833
32-31,34253989,17312
32-32,34257895,4741
32-1,34261807,-20309
32-2,34265713,-20876
32-3,34269619,-16693
32-4,34273525,-16414
32-5,34277431,-9790
32-6,34281337,8304
32-7,34285243,15829
32-8,34289149,-6450
32-9,34293055,-21171
32-10,34296961,-13928
32-11,34300867,-2251
32-12,34304773,12337
32-13,34308679,26867
32-14,34312585,32767
32-15,34316491,21157
32-16,34320397,-12080
32-17,34324303,-21756
32-18,34328209,-14484
32-19,34332115,-6531
32-20,34336021,7157
32-21,34339927,25497
32-22,34343833,32368
32-23,34347739,10298
32-24,34351645,-20609
32-25,34355551,-16443
32-26,34359457,-4738
32-27,34363363,-1746
32-28,34367269,12155
32-29,34371175,26922
32-30,34375081,18447
32-31,34378987,-7214
32-32,34382893,-21197
32-1,34386805,-19771
32-2,34390711,-17451
32-3,34394617,-16039
32-4,34398523,-7167
32-5,34402429,11301
32-6,34406335,10248
32-7,34410241,-13637
32-8,34414147,-20701
32-9,34418053,-10692
32-10,34421959,2648
32-11,34425865,18040
32-12,34429771,31227
32-13,34433677,32407
32-14,34437583,11427
32-15,34441489,-18479
32-16,34445395,-20748
32-17,34449301,-13101
32-18,34453207,-4155
32-19,34457113,10805
32-20,34461019,29647
32-21,34464925,30569
32-22,34468831,-399
32-23,34472737,-22752
32-24,34476643,-18014
32-25,34480549,-1571
32-26,34484455,10669
32-27,34488361,13075
32-28,34492267,25862
32-29,34496173,21482
32-30,34500079,-12720
32-31,34503985,-24161
32-32,34507891,-17947
32-1,34511802,-18102
32-2,34515708,-15675
32-3,34519614,-3386
32-4,34523520,12882
32-5,34527426,3381
32-6,34531332,-18701
32-7,34535238,-18406
32-8,34539144,-5120
32-9,34543050,12126
32-10,34546956,26309
32-11,34550862,32305
32-12,34554768,31310
32-13,34558674,1313
32-14,34562580,-22283
32-15,34566486,-19459
32-16,34570392,-12183
32-17,34574298,-2913
32-18,34578204,13179
32-19,34582110,31277
32-20,34586016,23694
32-21,34589922,-10745
32-22,34593828,-23629
32-23,34597734,-15434
32-24,34601640,-6293
32-25,34605546,11025
32-26,34609452,24302
32-27,34613358,21182
32-28,34617264,1823
32-29,34621170,-18499
32-30,34625076,-22143
32-31,34628982,-18141
32-32,34632888,-14066
32-1,34636800,-5128
32-2,34640706,14906
32-3,34644612,24587
32-4,34648518,-632
32-5,34652424,-22824
32-6,34656330,-19900
32-7,34660236,-14964
32-8,34664142,-8680
32-9,34668048,5942
32-10,34671954,26247
32-11,34675860,23002
32-12,34679766,-9424
32-13,34683672,-23376
32-14,34687578,-15820
32-15,34691484,-6993
32-16,34695390,6572
32-17,34699296,24090
32-18,34703202,32250
32-19,34707108,15496
32-20,34711014,-16937
32-21,34714920,-21840
32-22,34718826,-12623
32-23,34722732,-2171
32-24,34726638,13372
32-25,34730544,31102
32-26,34734450,31052
32-27,34738356,-412
32-28,34742262,-22987
32-29,34746168,-20224
32-30,34750074,-17961
32-31,34753980,-16499
32-32,34757886,-6688
32-1,34761798,13964
32-2,34765704,17154
32-3,34769610,-9624
32-4,34773516,-22983
32-5,34777422,-17209
32-6,34781328,-10694
32-7,34785234,1724
32-8,34789140,21042
32-9,34793046,32513
32-10,34796952,17071
32-11,34800858,-16013
32-12,34804764,-21867
32-13,34808670,-13657
32-14,34812576,-4687
32-15,34816482,9561
32-16,34820388,27736
32-17,34824294,32127
32-18,34828200,4867
32-19,34832106,-21709
32-20,34836012,-19467
32-21,34839918,-10227
32-22,34843824,1825
32-23,34847730,18333
32-24,34851636,32052
32-25,34855542,27208
32-26,34859448,-6765
32-27,34863354,-24333
32-28,34867260,-16017
32-29,34871166,-11221
32-30,34875072,-9751
32-31,34878978,7344
32-32,34882884,30636
32-1,34886795,17464
32-2,34890701,-16532
32-3,34894607,-23386
32-4,34898513,-18064
32-5,34902419,-17386
32-6,34906325,-12546
32-7,34910231,3843
32-8,34914137,18139
32-9,34918043,1288
32-10,34921949,-20800
32-11,34925855,-18803
32-12,34929761,-9581
32-13,34933667,2250
32-14,34937573,17659
32-15,34941479,32635
32-16,34945385,28608
32-17,34949291,-4496
32-18,34953197,-22446
32-19,34957103,-14959
32-20,34961009,-1875
32-21,34964915,15162
32-22,34968821,29258
32-23,34972727,31858
32-24,34976633,18658
32-25,34980539,-13623
32-26,34984445,-23104
32-27,34988351,-18556
32-28,34992257,-14027
32-29,34996163,-11135
32-30,35000069,-4362
32-31,35003975,9862
32-32,35007881,801
32-1,35011793,-20065
32-2,35015699,-20649
32-3,35019605,-16825
32-4,35023511,-15776
32-5,35027417,-8432
32-6,35031323,10419
32-7,35035229,17615
32-8,35039135,-5872
32-9,35043041,-21490
32-10,35046947,-15348
32-11,35050853,-5694
32-12,35054759,7516
32-13,35058665,23447
32-14,35062571,32767
32-15,35066477,21250
32-16,35070383,-12456
32-17,35074289,-21892
32-18,35078195,-13445
32-19,35082101,-3407
32-20,35086007,11572
32-21,35089913,28409
32-22,35093819,32230
32-23,35097725,10049
32-24,35101631,-20325
32-25,35105537,-18996
32-26,35109443,-11563
32-27,35113349,-11360
32-28,35117255,-90
32-29,35121161,13836
32-30,35125067,9137
32-31,35128973,-10009
32-32,35132879,-20156
32-1,35136790,-18968
32-2,35140696,-16668
32-3,35144602,-14146
32-4,35148508,-4124
32-5,35152414,15380
32-6,35156320,13211
32-7,35160226,-12562
32-8,35164132,-20737
32-9,35168038,-12330
32-10,35171944,-652
32-11,35175850,12717
32-12,35179756,25857
32-13,35183662,32767
32-14,35187568,12017
32-15,35191474,-18252
32-16,35195380,-20358
32-17,35199286,-13186
32-18,35203192,-5948
32-19,35207098,7534
32-20,35211004,26899
32-21,35214910,29788
32-22,35218816,-24
32-23,35222722,-21604
32-24,35226628,-15694
32-25,35230534,1685
32-26,35234440,13722
32-27,35238346,14627
32-28,35242252,25778
32-29,35246158,21059
32-30,35250064,-12371
32-31,35253970,-23306
32-32,35257876,-17228
32-1,35261788,-17884
32-2,35265694,-16394
32-3,35269600,-6466
32-4,35273506,7745
32-5,35277412,647
32-6,35281318,-17886
32-7,35285224,-18365
32-8,35289130,-9467
32-9,35293036,1969
32-10,35296942,15789
32-11,35300848,31518
32-12,35304754,32290
32-13,35308660,1777
32-14,35312566,-21220
32-15,35316472,-17910
32-16,35320378,-11331
32-17,35324284,-2725
32-18,35328190,12657
32-19,35332096,30740
32-20,35336002,24144
32-21,35339908,-9389
32-22,35343814,-22142
32-23,35347720,-14628
32-24,35351626,-7166
32-25,35355532,8764
32-26,35359438,22051
32-27,35363344,19646
32-28,35367250,2029
32-29,35371156,-16527
32-30,35375062,-20075
32-31,35378968,-16473
32-32,35382874,-12605
32-1,35386786,-4384
32-2,35390692,14584
32-3,35394598,24325
32-4,35398504,632
32-5,35402410,-20867
32-6,35406316,-18394
32-7,35410222,-14408
32-8,35414128,-10482
32-9,35418034,1546
32-10,35421940,21159
32-11,35425846,20328
32-12,35429752,-8398
32-13,35433658,-21016
32-14,35437564,-13443
32-15,35441470,-2746
32-16,35445376,12913
32-17,35449282,28770
32-18,35453188,32724
32-19,35457094,16566
32-20,35461000,-15043
32-21,35464906,-20593
32-22,35468812,-12502
32-23,35472718,-4704
32-24,35476624,8236
32-25,35480530,27224
32-26,35484436,30041
32-27,35488342,-48
32-28,35492248,-21749
32-29,35496154,-18497
32-30,35500060,-16664
32-31,35503966,-15850
32-32,35507872,-7704
32-1,35511783,10692
32-2,35515689,14687
32-3,35519595,-8815
32-4,35523501,-21106
32-5,35527407,-16410
32-6,35531313,-12710
32-7,35535219,-6314
32-8,35539125,9070
32-9,35543031,26386
32-10,35546937,14301
32-11,35550843,-14729
32-12,35554749,-19684
32-13,35558655,-12110
32-14,35562561,-4246
32-15,35566467,8563
32-16,35570373,26527
32-17,35574279,32767
32-18,35578185,6397
32-19,35582091,-19732
32-20,35585997,-17657
32-21,35589903,-9630
32-22,35593809,261
32-23,35597715,15717
32-24,35601621,32387
32-25,35605527,28143
32-26,35609433,-4591
32-27,35613339,-21871
32-28,35617245,-14292
32-29,35621151,-10197
32-30,35625057,-9305
32-31,35628963,6217
32-32,35632869,29395
32-1,35636781,18556
32-2,35640687,-14142
32-3,35644593,-21137
32-4,35648499,-15963
32-5,35652405,-15775
32-6,35656311,-12171
32-7,35660217,1804
32-8,35664123,15217
32-9,35668029,1273
32-10,35671935,-18434
32-11,35675841,-17049
32-12,35679747,-9397
32-13,35683653,182
32-14,35687559,14161
32-15,35691465,31238
32-16,35695371,29045
32-17,35699277,-2844
32-18,35703183,-20739
32-19,35707089,-14810
32-20,35710995,-6926
32-21,35714901,4471
32-22,35718807,20907
32-23,35722713,32609
32-24,35726619,20030
32-25,35730525,-12008
32-26,35734431,-20456
32-27,35738337,-15978
32-28,35742243,-12297
32-29,35746149,-9774
32-30,35750055,-3635
32-31,35753961,9679
32-32,35757867,1546
32-1,35761779,-17628
32-2,35765685,-18100
32-3,35769591,-14595
32-4,35773497,-13853
32-5,35777403,-7664
32-6,35781309,9451
32-7,35785215,16658
32-8,35789121,-4459
32-9,35793027,-18845
32-10,35796933,-13475
32-11,35800839,-5297
32-12,35804745,6048
32-13,35808651,21541
32-14,35812557,32767
32-15,35816463,21603
32-16,35820369,-10874
32-17,35824275,-19821
32-18,35828181,-12055
32-19,35832087,-3608
32-20,35835993,9799
32-21,35839899,26722
32-22,35843805,32208
32-23,35847711,10976
32-24,35851617,-18344
32-25,35855523,-17287
32-26,35859429,-10610
32-27,35863335,-11081
32-28,35867241,-1361
32-29,35871147,10780
32-30,35875053,6522
32-31,35878959,-9600
32-32,35882865,-17841
32-1,35886990,-16980
32-2,35890896,-15106
32-3,35894802,-13333
32-4,35898708,-5465
32-5,35902614,11748
32-6,35906520,10973
32-7,35910426,-11234
32-8,35914332,-18500
32-9,35918238,-11497
32-10,35922144,-2879
32-11,35926050,9693
32-12,35929956,26069
32-13,35933862,32767
32-14,35937768,12897
32-15,35941674,-16148
32-16,35945580,-17549
32-17,35949486,-8958
32-18,35953392,1597
32-19,35957298,16799
32-20,35961204,32497
32-21,35965110,31178
32-22,35969016,1563
32-23,35972922,-19715
32-24,35976828,-16770
32-25,35980734,-5666
32-26,35984640,2121
32-27,35988546,4082
32-28,35992452,16395
32-29,35996358,15230
32-30,36000264,-11568
32-31,36004170,-20624
32-32,36008076,-15409
32-1,36011774,-15257
32-2,36015680,-12739
32-3,36019586,-1072
32-4,36023492,14338
32-5,36027398,5090
32-6,36031304,-16053
32-7,36035210,-16601
32-8,36039116,-7047
32-9,36043022,6216
32-10,36046928,21583
32-11,36050834,32590
32-12,36054740,32171
32-13,36058646,3233
32-14,36062552,-19300
32-15,36066458,-16391
32-16,36070364,-8427
32-17,36074270,1832
32-18,36078176,17495
32-19,36082082,32047
32-20,36085988,24685
32-21,36089894,-8447
32-22,36093800,-20915
32-23,36097706,-12574
32-24,36101612,-1350
32-25,36105518,16880
32-26,36109424,28828
32-27,36113330,25474
32-28,36117236,5977
32-29,36121142,-16139
32-30,36125048,-20611
32-31,36128954,-16807
32-32,36132860,-14768
32-1,36136772,-9054
32-2,36140678,8143
32-3,36144584,18513
32-4,36148490,-1842
32-5,36152396,-20803
32-6,36156302,-18208
32-7,36160208,-14152
32-8,36164114,-9525
32-9,36168020,2607
32-10,36171926,21762
32-11,36175832,20483
32-12,36179738,-8418
32-13,36183644,-20697
32-14,36187550,-11632
32-15,36191456,1702
32-16,36195362,18161
32-17,36199268,30636
32-18,36203174,31660
32-19,36207080,16098
32-20,36210986,-14660
32-21,36214892,-20965
32-22,36218798,-14012
32-23,36222704,-8175
32-24,36226610,3396
32-25,36230516,23137
32-26,36234422,27718
32-27,36238328,-777
32-28,36242234,-21807
32-29,36246140,-18638
32-30,36250046,-16786
32-31,36253952,-16051
32-32,36257858,-8332
32-1,36261769,9630
32-2,36265675,13793
32-3,36269581,-8931
32-4,36273487,-20949
32-5,36277393,-16661
32-6,36281299,-13895
32-7,36285205,-9222
32-8,36289111,4545
32-9,36293017,22106
32-10,36296923,12444
32-11,36300829,-14608
32-12,36304735,-19507
32-13,36308641,-12338
32-14,36312547,-4579
32-15,36316453,8199
32-16,36320359,25975
32-17,36324265,32426
32-18,36328171,6886
32-19,36332077,-19245
32-20,36335983,-17569
32-21,36339889,-9645
32-22,36343795,187
32-23,36347701,15573
32-24,36351607,32157
32-25,36355513,28203
32-26,36359419,-4101
32-27,36363325,-21483
32-28,36367231,-14179
32-29,36371137,-10310
32-30,36375043,-9781
32-31,36378949,5286
32-32,36382855,28204
32-1,36386767,17840
32-2,36390673,-14008
32-3,36394579,-20731
32-4,36398485,-15670
32-5,36402391,-15468
32-6,36406297,-11793
32-7,36410203,2207
32-8,36414109,15545
32-9,36418015,1414
32-10,36421921,-18281
32-11,36425827,-15843
32-12,36429733,-5648
32-13,36433639,7156
32-14,36437545,21470
32-15,36441451,32530
32-16,36445357,29251
32-17,36449263,-2383
32-18,36453169,-20665
32-19,36457075,-15911
32-20,36460981,-9428
32-21,36464887,116
32-22,36468793,16515
32-23,36472699,32152
32-24,36476605,19980
32-25,36480511,-12019
32-26,36484417,-20825
32-27,36488323,-16125
32-28,36492229,-12524
32-29,36496135,-10281
32-30,36500041,-4337
32-31,36503947,9151
32-32,36507853,1498
32-1,36511764,-17624
32-2,36515670,-18209
32-3,36519576,-14443
32-4,36523482,-13073
32-5,36527388,-5438
32-6,36531294,13940
32-7,36535200,21515
32-8,36539106,-2671
32-9,36543012,-19273
32-10,36546918,-12992
32-11,36550824,-2438
32-12,36554730,12224
32-13,36558636,27259
32-14,36562542,32700
32-15,36566448,22247
32-16,36570354,-9557
32-17,36574260,-19596
32-18,36578166,-12631
32-19,36582072,-5319
32-20,36585978,6242
32-21,36589884,23523
32-22,36593790,32226
32-23,36597696,11205
32-24,36601602,-18373
32-25,36605508,-17519
32-26,36609414,-11219
32-27,36613320,-11950
32-28,36617226,-2800
32-29,36621132,8474
32-30,36625038,4940
32-31,36628944,-9783
32-32,36632850,-17687
32-1,36636762,-16896
32-2,36640668,-14946
32-3,36644574,-13130
32-4,36648480,-5349
32-5,36652386,12015
32-6,36656292,11585
32-7,36660198,-10809
32-8,36664104,-18433
32-9,36668010,-11628
32-10,36671916,-3655
32-11,36675822,8221
32-12,36679728,24828
32-13,36683634,32767
32-14,36687540,13051
32-15,36691446,-16009
32-16,36695352,-17588
32-17,36699258,-9572
32-18,36703164,-365
32-19,36707070,13986
32-20,36710976,30882
32-21,36714882,31039
32-22,36718788,1453
32-23,36722694,-19873
32-24,36726600,-16666
32-25,36730506,-5664
32-26,36734412,1899
32-27,36738318,3710
32-28,36742224,16419
32-29,36746130,15809
32-30,36750036,-11220
32-31,36753942,-20624
32-32,36757848,-15261
32-1,36761760,-14416
32-2,36765666,-10240
32-3,36769572,4702
32-4,36773478,22377
32-5,36777384,9922
32-6,36781290,-16146
32-7,36785196,-18097
32-8,36789102,-10143
32-9,36793008,-1679
32-10,36796914,11379
32-11,36800820,28677
32-12,36804726,31586
32-13,36808632,2724
32-14,36812538,-19546
32-15,36816444,-15767
32-16,36820350,-8191
32-17,36824256,2052
32-18,36828162,17740
32-19,36832068,32190
32-20,36835974,24879
32-21,36839880,-8053
32-22,36843786,-20557
32-23,36847692,-13471
32-24,36851598,-6191
32-25,36855504,9265
32-26,36859410,21828
32-27,36863316,19046
32-28,36867222,2050
32-29,36871128,-15787
32-30,36875034,-19346
32-31,36878940,-16025
32-32,36882846,-13319
32-1,36886757,-6989
32-2,36890663,10764
32-3,36894569,20981
32-4,36898475,-496
32-5,36902381,-20144
32-6,36906287,-17442
32-7,36910193,-13274
32-8,36914099,-8652
32-9,36918005,3651
32-10,36921911,22973
32-11,36925817,21743
32-12,36929723,-7210
32-13,36933629,-19921
32-14,36937535,-12377
32-15,36941441,-3125
32-16,36945347,9915
32-17,36949253,25539
32-18,36953159,32148
32-19,36957065,16557
32-20,36960971,-14484
32-21,36964877,-19250
32-22,36968783,-9125
32-23,36972689,4355
32-24,36976595,20774
32-25,36980501,31757
32-26,36984407,30766
32-27,36988313,1247
32-28,36992219,-20648
32-29,36996125,-18572
32-30,37000031,-16056
32-31,37003937,-14754
32-32,37007843,-5584
32-1,37011785,14783
32-2,37015691,18729
32-3,37019597,-7418
32-4,37023503,-21340
32-5,37027409,-16524
32-6,37031315,-13411
32-7,37035221,-8174
32-8,37039127,6083
32-9,37043033,23122
32-10,37046939,12582
32-11,37050845,-15009
32-12,37054751,-19662
32-13,37058657,-11287
32-14,37062563,-1878
32-15,37066469,11546
32-16,37070375,28045
32-17,37074281,31894
32-18,37078187,6362
32-19,37082093,-19823
32-20,37085999,-18642
32-21,37089905,-11861
32-22,37093811,-3694
32-23,37097717,11093
32-24,37101623,29507
32-25,37105529,27538
32-26,37109435,-4759
32-27,37113341,-22258
32-28,37117247,-14078
32-29,37121153,-9722
32-30,37125059,-8683
32-31,37128965,7011
32-32,37132871,29666
32-1,37136753,18702
32-2,37140659,-13899
32-3,37144565,-21205
32-4,37148471,-16136
32-5,37152377,-16362
32-6,37156283,-13838
32-7,37160189,-1422
32-8,37164095,11541
32-9,37168001,-413
32-10,37171907,-18368
32-11,37175813,-16427
32-12,37179719,-7412
32-13,37183625,3941
32-14,37187531,17897
32-15,37191437,32431
32-16,37195343,29210
32-17,37199249,-2543
32-18,37203155,-20822
32-19,37207061,-16016
32-20,37210967,-9962
32-21,37214873,-885
32-22,37218779,15274
32-23,37222685,31951
32-24,37226591,19753
32-25,37230497,-11888
32-26,37234403,-20511
32-27,37238309,-15639
32-28,37242215,-10496
32-29,37246121,-6906
32-30,37250027,-412
32-31,37253933,13898
32-32,37257839,4310
32-1,37261750,-17902
32-2,37265656,-18630
32-3,37269562,-14669
32-4,37273468,-14234
32-5,37277374,-7817
32-6,37281280,10439
32-7,37285186,18779
32-8,37289092,-3380
32-9,37292998,-19148
32-10,37296904,-12832
32-11,37300810,-2874
32-12,37304716,9714
32-13,37308622,24344
32-14,37312528,32638
32-15,37316434,22295
32-16,37320340,-10042
32-17,37324246,-19962
32-18,37328152,-13506
32-19,37332058,-7540
32-20,37335964,3204
32-21,37339870,21045
32-22,37343776,32284
32-23,37347682,11601
32-24,37351588,-18203
32-25,37355494,-16633
32-26,37359400,-8881
32-27,37363306,-8025
32-28,37367212,4195
32-29,37371118,18629
32-30,37375024,13821
32-31,37378930,-6746
32-32,37382836,-18383
32-1,37386748,-17178
32-2,37390654,-15092
32-3,37394560,-13721
32-4,37398466,-6232
32-5,37402372,10437
32-6,37406278,10367
32-7,37410184,-11177
32-8,37414090,-18785
32-9,37417996,-12148
32-10,37421902,-4041
32-11,37425808,7940
32-12,37429714,24346
32-13,37433620,32767
32-14,37437526,13649
32-15,37441432,-15659
32-16,37445338,-17785
32-17,37449244,-10099
32-18,37453150,-1805
32-19,37457056,11697
32-20,37460962,29292
32-21,37464868,30919
32-22,37468774,1705
32-23,37472680,-19908
32-24,37476586,-16799
32-25,37480492,-6178
32-26,37484398,987
32-27,37488304,2616
32-28,37492210,15182
32-29,37496116,15058
32-30,37500022,-11187
32-31,37503928,-20419
32-32,37507834,-15270
32-1,37511745,-15050
32-2,37515651,-12675
32-3,37519557,-1369
32-4,37523463,14262
32-5,37527369,5723
32-6,37531275,-15600
32-7,37535181,-17281
32-8,37539087,-10010
32-9,37542993,-1199
32-10,37546899,11908
32-11,37550805,29058
32-12,37554711,32308
32-13,37558617,3741
32-14,37562523,-18966
32-15,37566429,-15357
32-16,37570335,-7553
32-17,37574241,2884
32-18,37578147,18594
32-19,37582053,32478
32-20,37585959,25672
32-21,37589865,-6993
32-22,37593771,-19986
32-23,37597677,-12960
32-24,37601583,-5543
32-25,37605489,9872
32-26,37609395,23046
32-27,37613301,21000
32-28,37617207,3714
32-29,37621113,-14918
32-30,37625019,-18715
32-31,37628925,-15206
32-32,37632831,-11636
32-1,37636835,-3929
32-2,37640741,14648
32-3,37644647,24793
32-4,37648553,1799
32-5,37652459,-19663
32-6,37656365,-17228
32-7,37660271,-12747
32-8,37664177,-7792
32-9,37668083,5044
32-10,37671989,24596
32-11,37675895,23022
32-12,37679801,-6888
32-13,37683707,-20385
32-14,37687613,-13684
32-15,37691519,-6256
32-16,37695425,5418
32-17,37699331,22232
32-18,37703237,32182
32-19,37707143,16686
32-20,37711049,-14496
32-21,37714955,-19453
32-22,37718861,-11024
32-23,37722767,-1989
32-24,37726673,12346
32-25,37730579,29957
32-26,37734485,31031
32-27,37738391,1344
32-28,37742297,-20516
32-29,37746203,-17920
32-30,37750109,-15897
32-31,37754015,-15545
32-32,37757921,-8636
32-1,37761741,8685
32-2,37765647,13126
32-3,37769553,-8725
32-4,37773459,-20370
32-5,37777365,-15652
32-6,37781271,-11043
32-7,37785177,-3240
32-8,37789083,12729
32-9,37792989,29687
32-10,37796895,16687
32-11,37800801,-13753
32-12,37804707,-19387
32-13,37808613,-11663
32-14,37812519,-3614
32-15,37816425,9738
32-16,37820331,27289
32-17,37824237,32062
32-18,37828143,7021
32-19,37832049,-18914
32-20,37835955,-17249
32-21,37839861,-8837
32-22,37843767,2110
32-23,37847673,17906
32-24,37851579,31883
32-25,37855485,28066
32-26,37859391,-3902
32-27,37863297,-21507
32-28,37867203,-14497
32-29,37871109,-10433
32-30,37875015,-9986
32-31,37878921,4910
32-32,37882827,28122
32-1,37886738,18326
32-2,37890644,-13797
32-3,37894550,-21112
32-4,37898456,-15975
32-5,37902362,-15787
32-6,37906268,-12325
32-7,37910174,1539
32-8,37914080,14973
32-9,37917986,1232
32-10,37921892,-18335
32-11,37925798,-16144
32-12,37929704,-5941
32-13,37933610,8104
32-14,37937516,23267
32-15,37941422,32115
32-16,37945328,28898
32-17,37949234,-2386
32-18,37953140,-20995
32-19,37957046,-15955
32-20,37960952,-8025
32-21,37964858,2758
32-22,37968764,19032
32-23,37972670,31670
32-24,37976576,19829
32-25,37980482,-12418
32-26,37984388,-21456
32-27,37988294,-16825
32-28,37992200,-12787
32-29,37996106,-10119
32-30,38000012,-4224
32-31,38003918,9274
32-32,38007824,1601
32-1,38011736,-18055
32-2,38015642,-18977
32-3,38019548,-15372
32-4,38023454,-14662
32-5,38027360,-8748
32-6,38031266,7965
32-7,38035172,15599
32-8,38039078,-4771
32-9,38042984,-19343
32-10,38046890,-14293
32-11,38050796,-6186
32-12,38054702,5154
32-13,38058608,20675
32-14,38062514,32741
32-15,38066420,22563
32-16,38070326,-10068
32-17,38074232,-20061
32-18,38078138,-13448
32-19,38082044,-7314
32-20,38085950,3890
32-21,38089856,21701
32-22,38093762,32362
32-23,38097668,12007
32-24,38101574,-18140
32-25,38105480,-15121
32-26,38109386,-5021
32-27,38113292,-3470
32-28,38117198,9149
32-29,38121104,23355
32-30,38125010,16699
32-31,38128916,-5871
32-32,38132822,-18618
32-1,38136764,-17483
32-2,38140670,-15705
32-3,38144576,-15350
32-4,38148482,-9477
32-5,38152388,5528
32-6,38156294,6682
32-7,38160200,-11881
32-8,38164106,-18382
32-9,38168012,-11042
32-10,38171918,-1079
32-11,38175824,11910
32-12,38179730,27140
32-13,38183636,32625
32-14,38187542,13695
32-15,38191448,-15738
32-16,38195354,-18345
32-17,38199260,-11620
32-18,38203166,-4589
32-19,38207072,8470
32-20,38210978,27298
32-21,38214884,30820
32-22,38218790,2357
32-23,38222696,-19602
32-24,38226602,-16722
32-25,38230508,-5875
32-26,38234414,1897
32-27,38238320,3832
32-28,38242226,16232
32-29,38246132,15959
32-30,38250038,-10729
32-31,38253944,-20374
32-32,38257850,-15132
32-1,38261884,-14492
32-2,38265790,-11091
32-3,38269696,1837
32-4,38273602,17973
32-5,38277508,7472
32-6,38281414,-15955
32-7,38285320,-18109
32-8,38289226,-11585
32-9,38293132,-4333
32-10,38297038,8045
32-11,38300944,26349
32-12,38304850,31656
32-13,38308756,3854
32-14,38312662,-19171
32-15,38316568,-15644
32-16,38320474,-7925
32-17,38324380,2304
32-18,38328286,17999
32-19,38332192,32441
32-20,38336098,25865
32-21,38340004,-6943
32-22,38343910,-20234
32-23,38347816,-13239
32-24,38351722,-5706
