32-1,35010359,-27345
32-2,35014265,-32768
32-3,35018171,-27282
32-4,35022077,1222
32-5,35025983,21102
32-6,35029889,22155
32-7,35033795,21873
32-8,35037701,-4499
32-9,35041607,-32768
32-10,35045513,-21307
32-11,35049419,14252
32-12,35053325,23242
32-13,35057231,18411
32-14,35061137,23858
32-15,35065043,16740
32-16,35068949,-16960
32-17,35072855,-32768
32-18,35076761,-26539
32-19,35080667,3747
32-20,35084573,21121
32-21,35088479,20337
32-22,35092385,23231
32-23,35096291,7933
32-24,35100197,-30275
32-25,35104103,-32606
32-26,35108009,2229
32-27,35111915,21427
32-28,35115821,15453
32-29,35119727,16068
32-30,35123633,19598
32-31,35127539,-6429
32-32,35131445,-32768
32-1,35135570,-32523
32-2,35139476,-32050
32-3,35143382,-13438
32-4,35147288,14645
32-5,35151194,27598
32-6,35155100,19788
32-7,35159006,-16847
32-8,35162912,-25996
32-9,35166818,11597
32-10,35170724,27657
32-11,35174630,20722
32-12,35178536,21432
32-13,35182442,26608
32-14,35186348,12470
32-15,35190254,-27133
32-16,35194160,-32768
32-17,35198066,4440
32-18,35201972,25918
32-19,35205878,20452
32-20,35209784,20772
32-21,35213690,26121
32-22,35217596,-1502
32-23,35221502,-32768
32-24,35225408,-15259
32-25,35229314,21388
32-26,35233220,24156
32-27,35237126,17968
32-28,35241032,24297
32-29,35244938,15620
32-30,35248844,-16488
32-31,35252750,-32768
32-32,35256656,-32359
32-1,35260354,-7971
32-2,35264260,19681
32-3,35268166,22013
32-4,35272072,24161
32-5,35275978,12331
32-6,35279884,-27659
32-7,35283790,-26013
32-8,35287696,12873
32-9,35291602,25047
32-10,35295508,18376
32-11,35299414,21210
32-12,35303320,23692
32-13,35307226,-441
32-14,35311132,-32768
32-15,35315038,-31612
32-16,35318944,3023
32-17,35322850,23056
32-18,35326756,19491
32-19,35330662,21857
32-20,35334568,20766
32-21,35338474,-13632
32-22,35342380,-32768
32-23,35346286,-13232
32-24,35350192,19353
32-25,35354098,21742
32-26,35358004,19019
32-27,35361910,24135
32-28,35365816,4480
32-29,35369722,-27478
32-30,35373628,-32768
32-31,35377534,-32359
32-32,35381440,-17188
32-1,35385351,11375
32-2,35389257,23159
32-3,35393163,22533
32-4,35397069,585
32-5,35400975,-32462
32-6,35404881,-28088
32-7,35408787,7203
32-8,35412693,22990
32-9,35416599,19008
32-10,35420505,22250
32-11,35424411,19878
32-12,35428317,-11847
32-13,35432223,-32701
32-14,35436129,-24602
32-15,35440035,7978
32-16,35443941,21855
32-17,35447847,18987
32-18,35451753,22917
32-19,35455659,11927
32-20,35459565,-24436
32-21,35463471,-32728
32-22,35467377,-12964
32-23,35471283,17054
32-24,35475189,21510
32-25,35479095,19966
32-26,35483001,23979
32-27,35486907,775
32-28,35490813,-30487
32-29,35494719,-32768
32-30,35498625,-26552
32-31,35502531,1176
32-32,35506437,20522
32-1,35510349,24279
32-2,35514255,18999
32-3,35518161,-11116
32-4,35522067,-32703
32-5,35525973,-32294
32-6,35529879,-19406
32-7,35533785,9731
32-8,35537691,22840
32-9,35541597,24182
32-10,35545503,14987
32-11,35549409,-22180
32-12,35553315,-32270
32-13,35557221,-3222
32-14,35561127,22872
32-15,35565033,21644
32-16,35568939,20432
32-17,35572845,25338
32-18,35576751,4380
32-19,35580657,-32401
32-20,35584563,-32521
32-21,35588469,1670
32-22,35592375,22997
32-23,35596281,20152
32-24,35600187,22342
32-25,35604093,22057
32-26,35607999,-8966
32-27,35611905,-32768
32-28,35615811,-32195
32-29,35619717,-14547
32-30,35623623,7073
32-31,35627529,20634
32-32,35631435,26403
32-1,35635347,13941
32-2,35639253,-19307
32-3,35643159,-32387
32-4,35647065,-31982
32-5,35650971,-12138
32-6,35654877,15711
32-7,35658783,24234
32-8,35662689,24666
32-9,35666595,6540
32-10,35670501,-30949
32-11,35674407,-29826
32-12,35678313,6466
32-13,35682219,24754
32-14,35686125,20902
32-15,35690031,22947
32-16,35693937,23831
32-17,35697843,-5885
32-18,35701749,-32728
32-19,35705655,-24528
32-20,35709561,10603
32-21,35713467,24241
32-22,35717373,19857
32-23,35721279,24622
32-24,35725185,17780
32-25,35729091,-19468
32-26,35732997,-32768
32-27,35736903,-15143
32-28,35740809,9358
32-29,35744715,15906
32-30,35748621,18959
32-31,35752527,25903
32-32,35756433,6504
32-1,35760344,-27484
32-2,35764250,-32768
32-3,35768156,-30689
32-4,35772062,-9302
32-5,35775968,16518
32-6,35779874,24593
32-7,35783780,23107
32-8,35787686,-4092
32-9,35791592,-32613
32-10,35795498,-19798
32-11,35799404,16136
32-12,35803310,24763
32-13,35807216,19838
32-14,35811122,25030
32-15,35815028,19315
32-16,35818934,-16913
32-17,35822840,-32768
32-18,35826746,-13945
32-19,35830652,18203
32-20,35834558,23482
32-21,35838464,20193
32-22,35842370,25682
32-23,35846276,10147
32-24,35850182,-28766
32-25,35854088,-32768
32-26,35857994,-1234
32-27,35861900,21866
32-28,35865806,17141
32-29,35869712,17472
32-30,35873618,21869
32-31,35877524,-3880
32-32,35881430,-32569
32-1,35885556,-32768
32-2,35889462,-26949
32-3,35893368,-1532
32-4,35897274,20058
32-5,35901180,25165
32-6,35905086,18570
32-7,35908992,-15615
32-8,35912898,-32608
32-9,35916804,-9535
32-10,35920710,21085
32-11,35924616,22912
32-12,35928522,19808
32-13,35932428,25674
32-14,35936334,11007
32-15,35940240,-27539
32-16,35944146,-32768
32-17,35948052,-2436
32-18,35951958,22710
32-19,35955864,21424
32-20,35959770,21145
32-21,35963676,24826
32-22,35967582,-941
32-23,35971488,-32768
32-24,35975394,-27196
32-25,35979300,8894
32-26,35983206,24717
32-27,35987112,18747
32-28,35991018,21164
32-29,35994924,14018
32-30,35998830,-18515
32-31,36002736,-32768
32-32,36006642,-32359
32-1,36010340,-18001
32-2,36014246,11044
32-3,36018152,23569
32-4,36022058,24998
32-5,36025964,12300
32-6,36029870,-25690
32-7,36033776,-32309
32-8,36037682,1103
32-9,36041588,24273
32-10,36045494,21680
32-11,36049400,21940
32-12,36053306,25162
32-13,36057212,868
32-14,36061118,-32768
32-15,36065024,-32359
32-16,36068930,88
32-17,36072836,22664
32-18,36076742,21165
32-19,36080648,23012
32-20,36084554,21937
32-21,36088460,-12975
32-22,36092366,-32768
32-23,36096272,-11703
32-24,36100178,20297
32-25,36104084,22595
32-26,36107990,20554
32-27,36111896,25098
32-28,36115802,5876
32-29,36119708,-26354
32-30,36123614,-32768
32-31,36127520,-27715
32-32,36131426,577
32-1,36135337,21204
32-2,36139243,23152
32-3,36143149,23389
32-4,36147055,1347
32-5,36150961,-31672
32-6,36154867,-32490
32-7,36158773,-15271
32-8,36162679,14329
32-9,36166585,23275
32-10,36170491,23039
32-11,36174397,21508
32-12,36178303,-9711
32-13,36182209,-32768
32-14,36186115,-21846
32-15,36190021,12587
32-16,36193927,24122
32-17,36197833,20128
32-18,36201739,25132
32-19,36205645,15181
32-20,36209551,-23315
32-21,36213457,-32768
32-22,36217363,-7637
32-23,36221269,21036
32-24,36225175,21987
32-25,36229081,21066
32-26,36232987,25641
32-27,36236893,2032
32-28,36240799,-30211
32-29,36244705,-32768
32-30,36248611,-26234
32-31,36252517,1490
32-32,36256423,21089
32-1,36260396,24993
32-2,36264302,19816
32-3,36268208,-10451
32-4,36272114,-32745
32-5,36276020,-32336
32-6,36279926,-19249
32-7,36283832,10067
32-8,36287738,23227
32-9,36291644,25232
32-10,36295550,16107
32-11,36299456,-22359
32-12,36303362,-31779
32-13,36307268,4746
32-14,36311174,25711
32-15,36315080,21187
32-16,36318986,21461
32-17,36322892,26090
32-18,36326798,5408
32-19,36330704,-31138
32-20,36334610,-32768
32-21,36338516,-3900
32-22,36342422,21605
32-23,36346328,21841
32-24,36350234,22792
32-25,36354140,23066
32-26,36358046,-7677
32-27,36361952,-32768
32-28,36365858,-32088
32-29,36369764,-14240
32-30,36373670,7145
32-31,36377576,21105
32-32,36381482,27216
32-1,36385333,14421
32-2,36389239,-19389
32-3,36393145,-32413
32-4,36397051,-32008
32-5,36400957,-12133
32-6,36404863,15739
32-7,36408769,24626
32-8,36412675,25444
32-9,36416581,7402
32-10,36420487,-30641
32-11,36424393,-29742
32-12,36428299,6899
32-13,36432205,25493
32-14,36436111,21628
32-15,36440017,23549
32-16,36443923,24701
32-17,36447829,-5302
32-18,36451735,-32768
32-19,36455641,-23934
32-20,36459547,11504
32-21,36463453,24909
32-22,36467359,20384
32-23,36471265,25177
32-24,36475171,18499
32-25,36479077,-19182
32-26,36482983,-32768
32-27,36486889,-14213
32-28,36490795,10494
32-29,36494701,16038
32-30,36498607,19084
32-31,36502513,26458
32-32,36506419,6870
32-1,36510330,-27361
32-2,36514236,-32768
32-3,36518142,-29201
32-4,36522048,-3948
32-5,36525954,19983
32-6,36529860,24599
32-7,36533766,23236
32-8,36537672,-3770
32-9,36541578,-32747
32-10,36545484,-21024
32-11,36549390,14877
32-12,36553296,24706
32-13,36557202,20040
32-14,36561108,25101
32-15,36565014,19167
32-16,36568920,-17327
32-17,36572826,-32768
32-18,36576732,-13950
32-19,36580638,18242
32-20,36584544,23860
32-21,36588450,20780
32-22,36592356,26138
32-23,36596262,9923
32-24,36600168,-29082
32-25,36604074,-32768
32-26,36607980,-1271
32-27,36611886,22076
32-28,36615792,17756
32-29,36619698,18010
32-30,36623604,22017
32-31,36627510,-3991
32-32,36631416,-32646
32-1,36635511,-32768
32-2,36639417,-26310
32-3,36643323,-31
32-4,36647229,20864
32-5,36651135,25498
32-6,36655041,19004
32-7,36658947,-15546
32-8,36662853,-32655
32-9,36666759,-9458
32-10,36670665,21212
32-11,36674571,23206
32-12,36678477,20392
32-13,36682383,26046
32-14,36686289,11050
32-15,36690195,-26526
32-16,36694101,-32768
32-17,36698007,-8840
32-18,36701913,19647
32-19,36705819,22661
32-20,36709725,21577
32-21,36713631,24951
32-22,36717537,-639
32-23,36721443,-32768
32-24,36725349,-27262
32-25,36729255,8789
32-26,36733161,24915
32-27,36737067,19195
32-28,36740973,21805
32-29,36744879,15028
32-30,36748785,-18332
32-31,36752691,-32768
32-32,36756597,-32359
32-1,36760325,-22801
32-2,36764231,4960
32-3,36768137,22841
32-4,36772043,26145
32-5,36775949,12310
32-6,36779855,-25647
32-7,36783761,-32179
32-8,36787667,2332
32-9,36791573,24954
32-10,36795479,21932
32-11,36799385,22072
32-12,36803291,26036
32-13,36807197,1809
32-14,36811103,-32768
32-15,36815009,-28732
32-16,36818915,7184
32-17,36822821,24869
32-18,36826727,20846
32-19,36830633,23787
32-20,36834539,22162
32-21,36838445,-11671
32-22,36842351,-32768
32-23,36846257,-17716
32-24,36850163,16339
32-25,36854069,23300
32-26,36857975,20761
32-27,36861881,24856
32-28,36865787,6365
32-29,36869693,-26093
32-30,36873599,-32768
32-31,36877505,-28354
32-32,36881411,-445
32-1,36885445,21288
32-2,36889351,23602
32-3,36893257,23931
32-4,36897163,2277
32-5,36901069,-32135
32-6,36904975,-32488
32-7,36908881,-10421
32-8,36912787,17658
32-9,36916693,23030
32-10,36920599,23203
32-11,36924505,22671
32-12,36928411,-9349
32-13,36932317,-32768
32-14,36936223,-19771
32-15,36940129,14349
32-16,36944035,24064
32-17,36947941,20208
32-18,36951847,25218
32-19,36955753,14897
32-20,36959659,-22472
32-21,36963565,-32768
32-22,36967471,-12678
32-23,36971377,18376
32-24,36975283,22753
32-25,36979189,20937
32-26,36983095,25260
32-27,36987001,3265
32-28,36990907,-29802
32-29,36994813,-32768
32-30,36998719,-22867
32-31,37002625,6914
32-32,37006531,22285
32-1,37010321,24281
32-2,37014227,20836
32-3,37018133,-9675
32-4,37022039,-32768
32-5,37025945,-32359
32-6,37029851,-22853
32-7,37033757,5859
32-8,37037663,23112
32-9,37041569,25947
32-10,37045475,16152
32-11,37049381,-21725
32-12,37053287,-32288
32-13,37057193,2894
32-14,37061099,25368
32-15,37065005,21580
32-16,37068911,21527
32-17,37072817,26335
32-18,37076723,6095
32-19,37080629,-30763
32-20,37084535,-32768
32-21,37088441,-3427
32-22,37092347,21890
32-23,37096253,21783
32-24,37100159,22639
32-25,37104065,23424
32-26,37107971,-7033
32-27,37111877,-32768
32-28,37115783,-28794
32-29,37119689,-4709
32-30,37123595,13763
32-31,37127501,21140
32-32,37131407,26912
32-1,37135318,15831
32-2,37139224,-18778
32-3,37143130,-32678
32-4,37147036,-32270
32-5,37150942,-16922
32-6,37154848,11947
32-7,37158754,24536
32-8,37162660,26303
32-9,37166566,7508
32-10,37170472,-30385
32-11,37174378,-24571
32-12,37178284,13472
32-13,37182190,26053
32-14,37186096,20465
32-15,37190002,23829
32-16,37193908,24065
32-17,37197814,-5014
32-18,37201720,-32768
32-19,37205626,-28584
32-20,37209532,5400
32-21,37213438,23897
32-22,37217344,21066
32-23,37221250,24716
32-24,37225156,18740
32-25,37229062,-18807
32-26,37232968,-32768
32-27,37236874,-14222
32-28,37240780,10660
32-29,37244686,16242
32-30,37248592,19118
32-31,37252498,26909
32-32,37256404,7414
32-1,37260316,-27425
32-2,37264222,-32768
32-3,37268128,-31118
32-4,37272034,-11140
32-5,37275940,15608
32-6,37279846,25286
32-7,37283752,23722
32-8,37287658,-3806
32-9,37291564,-32593
32-10,37295470,-19936
32-11,37299376,16162
32-12,37303282,24989
32-13,37307188,19994
32-14,37311094,25072
32-15,37315000,19509
32-16,37318906,-16783
32-17,37322812,-32768
32-18,37326718,-13833
32-19,37330624,18394
32-20,37334530,23656
32-21,37338436,20401
32-22,37342342,25846
32-23,37346248,9914
32-24,37350154,-29018
32-25,37354060,-32768
32-26,37357966,-1614
32-27,37361872,22003
32-28,37365778,17987
32-29,37369684,18295
32-30,37373590,22030
32-31,37377496,-3877
32-32,37381402,-32680
32-1,37385527,-32768
32-2,37389433,-24106
32-3,37393339,4380
32-4,37397245,22314
32-5,37401151,24805
32-6,37405057,19199
32-7,37408963,-15246
32-8,37412869,-32753
32-9,37416775,-10462
32-10,37420681,20564
32-11,37424587,23241
32-12,37428493,20190
32-13,37432399,25974
32-14,37436305,11041
32-15,37440211,-27498
32-16,37444117,-32768
32-17,37448023,-4144
32-18,37451929,22083
32-19,37455835,21868
32-20,37459741,21321
32-21,37463647,24783
32-22,37467553,-982
32-23,37471459,-32768
32-24,37475365,-28395
32-25,37479271,6919
32-26,37483177,24439
32-27,37487083,19331
32-28,37490989,21639
32-29,37494895,15205
32-30,37498801,-18221
32-31,37502707,-32768
32-32,37506613,-32359
32-1,37510403,-24161
32-2,37514309,2804
32-3,37518215,22257
32-4,37522121,26324
32-5,37526027,11836
32-6,37529933,-25881
32-7,37533839,-32122
32-8,37537745,1846
32-9,37541651,24808
32-10,37545557,21907
32-11,37549463,21970
32-12,37553369,25863
32-13,37557275,1193
32-14,37561181,-32768
32-15,37565087,-28810
32-16,37568993,6918
32-17,37572899,24687
32-18,37576805,20969
32-19,37580711,23984
32-20,37584617,21824
32-21,37588523,-11743
32-22,37592429,-32768
32-23,37596335,-20073
32-24,37600241,14258
32-25,37604147,23489
32-26,37608053,20782
32-27,37611959,25298
32-28,37615865,7028
32-29,37619771,-26780
32-30,37623677,-32768
32-31,37627583,-32359
32-32,37631489,-19778
32-1,37635309,8410
32-2,37639215,24116
32-3,37643121,25106
32-4,37647027,2114
32-5,37650933,-32456
32-6,37654839,-26194
32-7,37658745,10735
32-8,37662651,25315
32-9,37666557,20579
32-10,37670463,24232
32-11,37674369,22518
32-12,37678275,-9409
32-13,37682181,-32768
32-14,37686087,-25023
32-15,37689993,8649
32-16,37693899,23807
32-17,37697805,20795
32-18,37701711,24841
32-19,37705617,15380
32-20,37709523,-23171
32-21,37713429,-32768
32-22,37717335,-6626
32-23,37721241,21762
32-24,37725147,22174
32-25,37729053,21010
32-26,37732959,25810
32-27,37736865,3148
32-28,37740771,-29467
32-29,37744677,-32768
32-30,37748583,-25889
32-31,37752489,2701
32-32,37756395,21829
32-1,37760306,25141
32-2,37764212,21024
32-3,37768118,-8427
32-4,37772024,-32768
32-5,37775930,-32359
32-6,37779836,-18001
32-7,37783742,11531
32-8,37787648,23832
32-9,37791554,24983
32-10,37795460,16770
32-11,37799366,-20587
32-12,37803272,-32438
32-13,37807178,-4212
32-14,37811084,23109
32-15,37814990,22704
32-16,37818896,20912
32-17,37822802,26354
32-18,37826708,6563
32-19,37830614,-31576
32-20,37834520,-32379
32-21,37838426,2768
32-22,37842332,23860
32-23,37846238,20595
32-24,37850144,22753
32-25,37854050,23159
32-26,37857956,-7584
32-27,37861862,-32768
32-28,37865768,-32359
32-29,37869674,-18597
32-30,37873580,2557
32-31,37877486,20086
32-32,37881392,27373
32-1,37885304,15322
32-2,37889210,-17646
32-3,37893116,-32320
32-4,37897022,-31916
32-5,37900928,-9484
32-6,37904834,17683
32-7,37908740,24660
32-8,37912646,25488
32-9,37916552,9020
32-10,37920458,-29040
32-11,37924364,-31999
32-12,37928270,1477
32-13,37932176,24116
32-14,37936082,22369
32-15,37939988,23241
32-16,37943894,24665
32-17,37947800,-4010
32-18,37951706,-32749
32-19,37955612,-27437
32-20,37959518,7462
32-21,37963424,24679
32-22,37967330,20841
32-23,37971236,24929
32-24,37975142,19389
32-25,37979048,-19208
32-26,37982954,-32768
32-27,37986860,-6558
32-28,37990766,17666
32-29,37994672,17408
32-30,37998578,18472
32-31,38002484,26415
32-32,38006390,7257
32-1,38010302,-26984
32-2,38014208,-32768
32-3,38018114,-31007
32-4,38022020,-8731
32-5,38025926,17647
32-6,38029832,25022
32-7,38033738,23676
32-8,38037644,-2832
32-9,38041550,-32658
32-10,38045456,-20355
32-11,38049362,15426
32-12,38053268,24884
32-13,38057174,20379
32-14,38061080,25155
32-15,38064986,19418
32-16,38068892,-15908
32-17,38072798,-32768
32-18,38076704,-18202
32-19,38080610,15286
32-20,38084516,24176
32-21,38088422,20613
32-22,38092328,25810
32-23,38096234,11013
32-24,38100140,-28280
32-25,38104046,-32768
32-26,38107952,-1786
32-27,38111858,22139
32-28,38115764,18170
32-29,38119670,18305
32-30,38123576,22296
32-31,38127482,-2663
32-32,38131388,-32747
32-1,38135299,-32768
32-2,38139205,-19153
32-3,38143111,10435
32-4,38147017,23180
32-5,38150923,24110
32-6,38154829,19646
32-7,38158735,-14062
32-8,38162641,-32768
32-9,38166547,-16193
32-10,38170453,16842
32-11,38174359,23873
32-12,38178265,20344
32-13,38182171,25772
32-14,38186077,11669
32-15,38189983,-27179
32-16,38193889,-32768
32-17,38197795,-4073
32-18,38201701,22207
32-19,38205607,22150
32-20,38209513,21572
32-21,38213419,25172
32-22,38217325,-344
32-23,38221231,-32768
32-24,38225137,-28258
32-25,38229043,7311
32-26,38232949,24626
32-27,38236855,19409
32-28,38240761,21583
32-29,38244667,15034
32-30,38248573,-18253
32-31,38252479,-32768
32-32,38256385,-32359
32-1,38260297,-24448
32-2,38264203,2643
32-3,38268109,22253
32-4,38272015,26335
32-5,38275921,12357
32-6,38279827,-25452
32-7,38283733,-32128
32-8,38287639,2281
32-9,38291545,24942
32-10,38295451,21850
32-11,38299357,22186
32-12,38303263,25918
32-13,38307169,1229
32-14,38311075,-32768
32-15,38314981,-29234
32-16,38318887,6216
32-17,38322793,24485
32-18,38326699,20798
32-19,38330605,23586
32-20,38334511,21694
32-21,38338417,-12053
32-22,38342323,-32768
32-23,38346229,-18789
32-24,38350135,15400
32-25,38354041,23523
32-26,38357947,21099
32-27,38361853,24778
32-28,38365759,6756
32-29,38369665,-26150
32-30,38373571,-32768
32-31,38377477,-24927
32-32,38381383,5056
32-1,38385295,22527
32-2,38389201,22950
32-3,38393107,24352
32-4,38397013,2188
32-5,38400919,-32313
32-6,38404825,-32609
32-7,38408731,-11417
32-8,38412637,16971
32-9,38416543,23047
32-10,38420449,23201
32-11,38424355,22293
32-12,38428261,-9531
32-13,38432167,-32768
32-14,38436073,-21267
32-15,38439979,13125
32-16,38443885,24248
32-17,38447791,20432
32-18,38451697,25255
32-19,38455603,15061
32-20,38459509,-22994
32-21,38463415,-32768
32-22,38467321,-9386
32-23,38471227,20185
32-24,38475133,22464
32-25,38479039,21208
32-26,38482945,25603
32-27,38486851,2331
32-28,38490757,-29967
32-29,38494663,-32768
32-30,38498569,-26616
32-31,38502475,1182
32-32,38506381,21264
32-1,38510292,25226
32-2,38514198,20112
32-3,38518104,-9940
32-4,38522010,-32751
32-5,38525916,-32342
32-6,38529822,-19564
32-7,38533728,9858
32-8,38537634,23748
32-9,38541540,25133
32-10,38545446,16245
32-11,38549352,-20937
32-12,38553258,-32372
32-13,38557164,-4275
32-14,38561070,23057
32-15,38564976,22853
32-16,38568882,21344
32-17,38572788,26488
32-18,38576694,6228
32-19,38580600,-31539
32-20,38584506,-32768
32-21,38588412,998
32-22,38592318,23284
32-23,38596224,20851
32-24,38600130,22648
32-25,38604036,23295
32-26,38607942,-7091
32-27,38611848,-32768
32-28,38615754,-32359
32-29,38619660,-14676
32-30,38623566,7129
32-31,38627472,21142
32-32,38631378,27145
32-1,38635290,15786
32-2,38639196,-17891
32-3,38643102,-32440
32-4,38647008,-32034
32-5,38650914,-15621
32-6,38654820,12545
32-7,38658726,24599
32-8,38662632,25956
32-9,38666538,8269
32-10,38670444,-29748
32-11,38674350,-29214
32-12,38678256,7917
32-13,38682162,25750
32-14,38686068,21258
32-15,38689974,23400
32-16,38693880,24707
32-17,38697786,-3785
32-18,38701692,-32768
32-19,38705598,-28276
32-20,38709504,5689
32-21,38713410,23940
32-22,38717316,20960
32-23,38721222,24414
32-24,38725128,19128
32-25,38729034,-18048
32-26,38732940,-32768
32-27,38736846,-13206
32-28,38740752,12302
32-29,38744658,17284
32-30,38748564,19204
32-31,38752470,26568
32-32,38756376,8084
32-1,38760288,-26551
32-2,38764194,-32768
32-3,38768100,-30585
32-4,38772006,-8510
32-5,38775912,17364
32-6,38779818,25054
32-7,38783724,23898
32-8,38787630,-2714
32-9,38791536,-32668
32-10,38795442,-20509
32-11,38799348,15916
32-12,38803254,25272
32-13,38807160,20308
32-14,38811066,25227
32-15,38814972,19945
32-16,38818878,-15447
32-17,38822784,-32768
32-18,38826690,-17738
32-19,38830596,15524
32-20,38834502,24139
32-21,38838408,20632
32-22,38842314,25746
32-23,38846220,11333
32-24,38850126,-27796
32-25,38854032,-32768
32-26,38857938,-2871
32-27,38861844,21953
32-28,38865750,18755
32-29,38869656,18262
32-30,38873562,22287
32-31,38877468,-1629
32-32,38881374,-32768
32-1,38885285,-32564
32-2,38889191,-12731
32-3,38893097,15877
32-4,38897003,23160
32-5,38900909,24566
32-6,38904815,20144
32-7,38908721,-11680
32-8,38912627,-32768
32-9,38916533,-32314
32-10,38920439,-4941
32-11,38924345,20370
32-12,38928251,23114
32-13,38932157,25131
32-14,38936063,12951
32-15,38939969,-26753
32-16,38943875,-32581
32-17,38947781,2742
32-18,38951687,24762
32-19,38955593,21486
32-20,38959499,22123
32-21,38963405,25269
32-22,38967311,80
32-23,38971217,-32768
32-24,38975123,-31782
32-25,38979029,1778
32-26,38982935,23720
32-27,38986841,20384
32-28,38990747,21320
32-29,38994653,15102
32-30,38998559,-17847
32-31,39002465,-32768
32-32,39006371,-32359
32-1,39010283,-22405
32-2,39014189,6589
32-3,39018095,23369
32-4,39022001,26549
32-5,39025907,13530
32-6,39029813,-25082
32-7,39033719,-29675
32-8,39037625,7616
32-9,39041531,26106
32-10,39045437,21118
32-11,39049343,22519
32-12,39053249,25949
32-13,39057155,2169
32-14,39061061,-32768
32-15,39064967,-32359
32-16,39068873,-760
32-17,39072779,22616
32-18,39076685,21838
32-19,39080591,23501
32-20,39084497,22649
32-21,39088403,-10832
32-22,39092309,-32768
32-23,39096215,-18594
32-24,39100121,15651
32-25,39104027,23613
32-26,39107933,21111
32-27,39111839,25118
32-28,39115745,6825
32-29,39119651,-25978
32-30,39123557,-32768
32-31,39127463,-28649
32-32,39131369,-2438
32-1,39135280,19941
32-2,39139186,23917
32-3,39143092,24029
32-4,39146998,2179
32-5,39150904,-32268
32-6,39154810,-32445
32-7,39158716,-9112
32-8,39162622,19138
32-9,39166528,23433
32-10,39170434,23306
32-11,39174340,23146
32-12,39178246,-8724
32-13,39182152,-32768
32-14,39186058,-20811
32-15,39189964,13907
32-16,39193870,24683
32-17,39197776,20437
32-18,39201682,25447
32-19,39205588,15853
32-20,39209494,-22526
32-21,39213400,-32768
32-22,39217306,-8887
32-23,39221212,20709
32-24,39225118,22826
32-25,39229024,21548
32-26,39232930,26230
32-27,39236836,3307
32-28,39240742,-29673
32-29,39244648,-32768
32-30,39248554,-26352
32-31,39252460,1467
32-32,39256366,21502
32-1,39260278,25577
32-2,39264184,20906
32-3,39268090,-9057
32-4,39271996,-32768
32-5,39275902,-32359
32-6,39279808,-18791
32-7,39283714,10573
32-8,39287620,24076
32-9,39291526,25696
32-10,39295432,16978
32-11,39299338,-20744
32-12,39303244,-32429
32-13,39307150,-3637
32-14,39311056,23684
32-15,39314962,23303
32-16,39318868,21543
32-17,39322774,26815
32-18,39326680,6826
32-19,39330586,-31435
32-20,39334492,-32659
32-21,39338398,2186
32-22,39342304,23906
32-23,39346210,21204
32-24,39350116,23295
32-25,39354022,23817
32-26,39357928,-7043
32-27,39361834,-32768
32-28,39365740,-32268
32-29,39369646,-14428
32-30,39373552,7296
32-31,39377458,21403
32-32,39381364,27506
32-1,39385276,15939
32-2,39389182,-17849
32-3,39393088,-32456
32-4,39396994,-32051
32-5,39400900,-12554
32-6,39404806,15691
32-7,39408712,24965
32-8,39412618,25767
32-9,39416524,8574
32-10,39420430,-29767
32-11,39424336,-30111
32-12,39428242,6572
32-13,39432148,25498
32-14,39436054,21671
32-15,39439960,23597
32-16,39443866,25291
32-17,39447772,-4157
32-18,39451678,-32768
32-19,39455584,-24319
32-20,39459490,11472
32-21,39463396,25291
32-22,39467302,20674
32-23,39471208,25263
32-24,39475114,19030
32-25,39479020,-18382
32-26,39482926,-32768
32-27,39486832,-15305
32-28,39490738,9286
32-29,39494644,16158
32-30,39498550,19547
32-31,39502456,26537
32-32,39506362,7810
32-1,39510273,-26516
32-2,39514179,-32768
32-3,39518085,-29430
32-4,39521991,-4212
32-5,39525897,20028
32-6,39529803,24817
32-7,39533709,23873
32-8,39537615,-2396
32-9,39541521,-32768
32-10,39545427,-21723
32-11,39549333,14461
32-12,39553239,24886
32-13,39557145,20250
32-14,39561051,25208
32-15,39564957,19865
32-16,39568863,-15258
32-17,39572769,-32768
32-18,39576675,-19881
32-19,39580581,13167
32-20,39584487,23993
32-21,39588393,20973
32-22,39592299,25597
32-23,39596205,11082
32-24,39600111,-28207
32-25,39604017,-32768
32-26,39607923,-1362
32-27,39611829,22192
32-28,39615735,17908
32-29,39619641,17903
32-30,39623547,22659
32-31,39627453,-2383
32-32,39631359,-32027
32-1,39635271,-32768
32-2,39639177,-26981
32-3,39643083,-1537
32-4,39646989,20281
32-5,39650895,25653
32-6,39654801,19775
32-7,39658707,-14250
32-8,39662613,-32648
32-9,39666519,-9607
32-10,39670425,21646
32-11,39674331,23668
32-12,39678237,20236
32-13,39682143,26109
32-14,39686049,12462
32-15,39689955,-26214
32-16,39693861,-32768
32-17,39697767,-3657
32-18,39701673,22717
32-19,39705579,22094
32-20,39709485,21247
32-21,39713391,25357
32-22,39717297,538
32-23,39721203,-32768
32-24,39725109,-27730
32-25,39729015,8568
32-26,39732921,25178
32-27,39736827,19241
32-28,39740733,21552
32-29,39744639,15858
32-30,39748545,-17962
32-31,39752451,-32768
32-32,39756357,-32359
32-1,39760269,-29165
32-2,39764175,-6700
32-3,39768081,18669
32-4,39771987,28087
32-5,39775893,13252
32-6,39779799,-25111
32-7,39783705,-29231
32-8,39787611,7762
32-9,39791517,26582
32-10,39795423,21758
32-11,39799329,22893
32-12,39803235,26567
32-13,39807141,3035
32-14,39811047,-32768
32-15,39814953,-31670
32-16,39818859,2258
32-17,39822765,23692
32-18,39826671,21810
32-19,39830577,23936
32-20,39834483,22124
32-21,39838389,-9890
32-22,39842295,-32768
32-23,39846201,-26434
32-24,39850107,6826
32-25,39854013,22935
32-26,39857919,21821
32-27,39861825,24636
32-28,39865731,7326
32-29,39869637,-26055
32-30,39873543,-32750
32-31,39877449,-32340
32-32,39881355,-17119
32-1,39885266,11446
32-2,39889172,24415
32-3,39893078,25539
32-4,39896984,3692
32-5,39900890,-32538
32-6,39904796,-25203
32-7,39908702,12467
32-8,39912608,25927
32-9,39916514,20778
32-10,39920420,24417
32-11,39924326,22816
32-12,39928232,-8696
32-13,39932138,-32768
32-14,39936044,-25487
32-15,39939950,8872
32-16,39943856,24347
32-17,39947762,20710
32-18,39951668,25101
32-19,39955574,16587
32-20,39959480,-22949
32-21,39963386,-32768
32-22,39967292,-1702
32-23,39971198,24029
32-24,39975104,21764
32-25,39979010,21232
32-26,39982916,26332
32-27,39986822,3590
32-28,39990728,-29148
32-29,39994634,-32768
32-30,39998540,-27675
32-31,40002446,-678
32-32,40006352,20930
32-1,40010264,25781
32-2,40014170,20946
32-3,40018076,-8321
32-4,40021982,-32748
32-5,40025888,-32339
32-6,40029794,-14107
32-7,40033700,14534
32-8,40037606,23733
32-9,40041512,24625
32-10,40045418,16895
32-11,40049324,-19674
32-12,40053230,-32513
32-13,40057136,-10567
32-14,40061042,20008
32-15,40064948,23702
32-16,40068854,21111
32-17,40072760,26443
32-18,40076666,7172
32-19,40080572,-31353
32-20,40084478,-32768
32-21,40088384,1896
32-22,40092290,23742
32-23,40096196,20997
32-24,40100102,22802
32-25,40104008,23479
32-26,40107914,-6849
32-27,40111820,-32768
32-28,40115726,-32359
32-29,40119632,-15886
32-30,40123538,6034
32-31,40127444,21113
32-32,40131350,27455
32-1,40135261,15998
32-2,40139167,-17618
32-3,40143073,-32420
32-4,40146979,-32015
32-5,40150885,-11619
32-6,40154791,16291
32-7,40158697,24652
32-8,40162603,25817
32-9,40166509,9259
32-10,40170415,-29531
32-11,40174321,-29849
32-12,40178227,7269
32-13,40182133,25693
32-14,40186039,21398
32-15,40189945,23305
32-16,40193851,25092
32-17,40197757,-4048
32-18,40201663,-32768
32-19,40205569,-24842
32-20,40209475,10723
32-21,40213381,24902
32-22,40217287,20565
32-23,40221193,25225
32-24,40225099,19445
32-25,40229005,-17980
32-26,40232911,-32768
32-27,40236817,-14761
32-28,40240723,10267
32-29,40244629,15888
32-30,40248535,18737
32-31,40252441,26357
32-32,40256347,7483
32-1,40260259,-26876
32-2,40264165,-32768
32-3,40268071,-29822
32-4,40271977,-5336
32-5,40275883,19419
32-6,40279789,24657
32-7,40283695,23683
32-8,40287601,-2412
32-9,40291507,-32739
32-10,40295413,-21851
32-11,40299319,14386
32-12,40303225,24997
32-13,40307131,20218
32-14,40311037,24957
32-15,40314943,20021
32-16,40318849,-15978
32-17,40322755,-32768
32-18,40326661,-14948
32-19,40330567,17738
32-20,40334473,23972
32-21,40338379,20531
32-22,40342285,25924
32-23,40346191,11066
32-24,40350097,-27936
32-25,40354003,-32768
32-26,40357909,-2581
32-27,40361815,21668
32-28,40365721,18099
32-29,40369627,18076
32-30,40373533,22394
32-31,40377439,-2597
32-32,40381345,-32097
32-1,40385257,-32768
32-2,40389163,-24615
32-3,40393069,3790
32-4,40396975,22397
32-5,40400881,25038
32-6,40404787,19729
32-7,40408693,-14227
32-8,40412599,-32762
32-9,40416505,-11373
32-10,40420411,20232
32-11,40424317,23560
32-12,40428223,20365
32-13,40432129,26142
32-14,40436035,11829
32-15,40439941,-26823
32-16,40443847,-32768
32-17,40447753,-4805
32-18,40451659,21953
32-19,40455565,22192
32-20,40459471,21484
32-21,40463377,25139
32-22,40467283,351
32-23,40471189,-32768
32-24,40475095,-29800
32-25,40479001,5291
32-26,40482907,24468
32-27,40486813,19717
32-28,40490719,21472
32-29,40494625,15475
32-30,40498531,-17685
32-31,40502437,-32768
32-32,40506343,-32359
32-1,40510254,-24339
32-2,40514160,2805
32-3,40518066,22365
32-4,40521972,26189
32-5,40525878,12668
32-6,40529784,-24740
32-7,40533690,-32144
32-8,40537596,471
32-9,40541502,24448
32-10,40545408,22073
32-11,40549314,21757
32-12,40553220,26180
32-13,40557126,2822
32-14,40561032,-32768
32-15,40564938,-29942
32-16,40568844,5435
32-17,40572750,24388
32-18,40576656,20884
32-19,40580562,23303
32-20,40584468,22374
32-21,40588374,-10335
32-22,40592280,-32768
32-23,40596186,-19493
32-24,40600092,15016
32-25,40603998,23529
32-26,40607904,20431
32-27,40611810,25063
32-28,40615716,7891
32-29,40619622,-26072
32-30,40623528,-32768
32-31,40627434,-32359
32-32,40631340,-23065
32-1,40635252,4406
32-2,40639158,23455
32-3,40643064,25989
32-4,40646970,3452
32-5,40650876,-32384
32-6,40654782,-26949
32-7,40658688,9935
32-8,40662594,25630
32-9,40666500,20906
32-10,40670406,23913
32-11,40674312,23731
32-12,40678218,-8138
32-13,40682124,-32768
32-14,40686030,-20656
32-15,40689936,14363
32-16,40693842,24558
32-17,40697748,20167
32-18,40701654,25388
32-19,40705560,16500
32-20,40709466,-21758
32-21,40713372,-32768
32-22,40717278,-8732
32-23,40721184,20800
32-24,40725090,22445
32-25,40728996,20975
32-26,40732902,25993
32-27,40736808,4114
32-28,40740714,-29009
32-29,40744620,-32768
32-30,40748526,-26183
32-31,40752432,2002
32-32,40756338,21422
32-1,40760250,25007
32-2,40764156,21337
32-3,40768062,-7680
32-4,40771968,-32768
32-5,40775874,-32359
32-6,40779780,-18559
32-7,40783686,10863
32-8,40787592,23744
32-9,40791498,25019
32-10,40795404,17241
32-11,40799310,-19908
32-12,40803216,-32437
32-13,40807122,-4352
32-14,40811028,23046
32-15,40814934,22550
32-16,40818840,21000
32-17,40822746,26120
32-18,40826652,7073
32-19,40830558,-29994
32-20,40834464,-32768
32-21,40838370,-5243
32-22,40842276,21103
32-23,40846182,22013
32-24,40850088,22405
32-25,40853994,23546
32-26,40857900,-5958
32-27,40861806,-32768
32-28,40865712,-29952
32-29,40869618,-6627
32-30,40873524,12667
32-31,40877430,20814
32-32,40881336,26556
32-1,40885247,16539
32-2,40889153,-18031
32-3,40893059,-32635
32-4,40896965,-32227
32-5,40900871,-21144
32-6,40904777,6945
32-7,40908683,23729
32-8,40912589,26671
32-9,40916495,8077
32-10,40920401,-29647
32-11,40924307,-25331
32-12,40928213,12744
32-13,40932119,26320
32-14,40936025,20768
32-15,40939931,23835
32-16,40943837,24972
32-17,40947743,-3097
32-18,40951649,-32768
32-19,40955555,-29109
32-20,40959461,4976
32-21,40963367,24158
32-22,40967273,21500
32-23,40971179,24841
32-24,40975085,19844
32-25,40978991,-17151
32-26,40982897,-32768
32-27,40986803,-15626
32-28,40990709,9643
32-29,40994615,16422
32-30,40998521,19275
32-31,41002427,26214
32-32,41006333,8416
32-1,41010245,-26159
32-2,41014151,-32768
32-3,41018057,-26332
32-4,41021963,2078
32-5,41025869,21949
32-6,41029775,23861
32-7,41033681,23603
32-8,41037587,-1748
32-9,41041493,-32768
32-10,41045399,-27295
32-11,41049305,8112
32-12,41053211,24620
32-13,41057117,21063
32-14,41061023,24530
32-15,41064929,20380
32-16,41068835,-15509
32-17,41072741,-32768
32-18,41076647,-15426
32-19,41080553,17395
32-20,41084459,23872
32-21,41088365,20332
32-22,41092271,25911
32-23,41096177,11489
32-24,41100083,-27686
32-25,41103989,-32768
32-26,41107895,-2414
32-27,41111801,21919
32-28,41115707,18198
32-29,41119613,18001
32-30,41123519,22704
32-31,41127425,-2619
32-32,41131331,-32215
32-1,41135304,-32768
32-2,41139210,-28192
32-3,41143116,-4107
32-4,41147022,19081
32-5,41150928,25610
32-6,41154834,19608
32-7,41158740,-14293
32-8,41162646,-32582
32-9,41166552,-9948
32-10,41170458,21432
32-11,41174364,23675
32-12,41178270,20400
32-13,41182176,26351
32-14,41186082,12344
32-15,41189988,-26384
32-16,41193894,-32768
32-17,41197800,-4631
32-18,41201706,22010
32-19,41205612,22049
32-20,41209518,21415
32-21,41213424,25346
32-22,41217330,294
32-23,41221236,-32768
32-24,41225142,-28879
32-25,41229048,6567
32-26,41232954,24585
32-27,41236860,19423
32-28,41240766,21414
32-29,41244672,15592
32-30,41248578,-17423
32-31,41252484,-32768
32-32,41256390,-32359
32-1,41260240,-24094
32-2,41264146,3283
32-3,41268052,22399
32-4,41271958,26292
32-5,41275864,13027
32-6,41279770,-24737
32-7,41283676,-32159
32-8,41287582,864
32-9,41291488,24516
32-10,41295394,21900
32-11,41299300,22223
32-12,41303206,25642
32-13,41307112,644
32-14,41311018,-32768
32-15,41314924,-30061
32-16,41318830,4560
32-17,41322736,24269
32-18,41326642,21266
32-19,41330548,23559
32-20,41334454,22471
32-21,41338360,-10619
32-22,41342266,-32768
32-23,41346172,-19939
32-24,41350078,14491
32-25,41353984,23726
32-26,41357890,21250
32-27,41361796,24885
32-28,41365702,8268
32-29,41369608,-24811
32-30,41373514,-32768
32-31,41377420,-24932
32-32,41381326,5476
32-1,41385238,22542
32-2,41389144,22854
32-3,41393050,24491
32-4,41396956,2404
32-5,41400862,-31128
32-6,41404768,-32633
32-7,41408674,-18356
32-8,41412580,11263
32-9,41416486,23032
32-10,41420392,23119
32-11,41424298,22216
32-12,41428204,-9207
32-13,41432110,-32768
32-14,41436016,-16744
32-15,41439922,17301
32-16,41443828,24124
32-17,41447734,19947
32-18,41451640,25443
32-19,41455546,15715
32-20,41459452,-21162
32-21,41463358,-32768
32-22,41467264,-14503
32-23,41471170,16864
32-24,41475076,22942
32-25,41478982,21303
32-26,41482888,25703
32-27,41486794,3953
32-28,41490700,-29209
32-29,41494606,-32768
32-30,41498512,-25951
32-31,41502418,2746
32-32,41506324,21910
32-1,41510235,24884
32-2,41514141,21204
32-3,41518047,-7712
32-4,41521953,-32768
32-5,41525859,-32359
32-6,41529765,-18871
32-7,41533671,10679
32-8,41537577,23953
32-9,41541483,25112
32-10,41545389,17404
32-11,41549295,-18488
32-12,41553201,-32455
32-13,41557107,-11257
32-14,41561013,19466
32-15,41564919,23872
32-16,41568825,21106
32-17,41572731,26153
32-18,41576637,7498
32-19,41580543,-31084
32-20,41584449,-32373
32-21,41588355,2931
32-22,41592261,24193
32-23,41596167,20924
32-24,41600073,22863
32-25,41603979,24090
32-26,41607885,-5773
32-27,41611791,-32768
32-28,41615697,-32359
32-29,41619603,-14482
32-30,41623509,7456
32-31,41627415,21228
32-32,41631321,27105
32-1,41635233,16550
32-2,41639139,-16678
32-3,41643045,-32471
32-4,41646951,-32066
32-5,41650857,-12149
32-6,41654763,15861
32-7,41658669,24803
32-8,41662575,25644
32-9,41666481,9915
32-10,41670387,-28043
32-11,41674293,-32118
32-12,41678199,-531
32-13,41682105,23580
32-14,41686011,22716
32-15,41689917,22943
32-16,41693823,25363
32-17,41697729,-3280
32-18,41701635,-32768
32-19,41705541,-23562
32-20,41709447,12548
32-21,41713353,25071
32-22,41717259,20062
32-23,41721165,24966
32-24,41725071,19693
32-25,41728977,-17183
32-26,41732883,-32768
32-27,41736789,-15254
32-28,41740695,10172
32-29,41744601,16768
32-30,41748507,19281
32-31,41752413,26429
32-32,41756319,8849
32-1,41760231,-25787
32-2,41764137,-32768
32-3,41768043,-29721
32-4,41771949,-4333
32-5,41775855,19204
32-6,41779761,24475
32-7,41783667,24635
32-8,41787573,-4823
32-9,41791479,-29271
32-10,41795385,385
32-11,41799291,26115
32-12,41803197,22181
32-13,41807103,19716
32-14,41811009,25712
32-15,41814915,18680
32-16,41818821,-13555
32-17,41822727,-32768
32-18,41826633,-32359
32-19,41830539,-10944
32-20,41834445,16512
32-21,41838351,23624
32-22,41842257,24964
32-23,41846163,12099
32-24,41850069,-27000
32-25,41853975,-32448
32-26,41857881,3062
32-27,41861787,23861
32-28,41865693,17705
32-29,41869599,18360
32-30,41873505,23164
32-31,41877411,-2017
32-32,41881317,-31571
32-1,41885289,-32702
32-2,41889195,-27866
32-3,41893101,-2121
32-4,41897007,20345
32-5,41900913,25620
32-6,41904819,20334
32-7,41908725,-14024
32-8,41912631,-32574
32-9,41916537,-4697
32-10,41920443,23742
32-11,41924349,22725
32-12,41928255,20388
32-13,41932161,26065
32-14,41936067,11993
32-15,41939973,-24946
32-16,41943879,-32768
32-17,41947785,-12041
32-18,41951691,17995
32-19,41955597,22889
32-20,41959503,21303
32-21,41963409,25269
32-22,41967315,1327
32-23,41971221,-32768
32-24,41975127,-29023
32-25,41979033,6691
32-26,41982939,24856
32-27,41986845,19296
32-28,41990751,20891
32-29,41994657,15272
32-30,41998563,-17613
32-31,42002469,-32768
32-32,42006375,-32359
32-1,42010226,-24976
32-2,42014132,1813
32-3,42018038,21646
32-4,42021944,26678
32-5,42025850,13084
32-6,42029756,-25253
32-7,42033662,-29603
32-8,42037568,7759
32-9,42041474,26291
32-10,42045380,21232
32-11,42049286,22426
32-12,42053192,25936
32-13,42057098,2772
32-14,42061004,-32768
32-15,42064910,-32609
32-16,42068816,-1688
32-17,42072722,22279
32-18,42076628,21900
32-19,42080534,23239
32-20,42084440,22668
32-21,42088346,-10149
32-22,42092252,-32768
32-23,42096158,-20036
32-24,42100064,14459
32-25,42103970,23707
32-26,42107876,21223
32-27,42111782,25128
32-28,42115688,7719
32-29,42119594,-25191
32-30,42123500,-32768
32-31,42127406,-28865
32-32,42131312,-2841
32-1,42135224,19598
32-2,42139130,23760
32-3,42143036,24026
32-4,42146942,2633
32-5,42150848,-31702
32-6,42154754,-32444
32-7,42158660,-10830
32-8,42162566,17691
32-9,42166472,23033
32-10,42170378,22856
32-11,42174284,22781
32-12,42178190,-8399
32-13,42182096,-32768
32-14,42186002,-21727
32-15,42189908,13049
32-16,42193814,24540
32-17,42197720,20442
32-18,42201626,25351
32-19,42205532,16308
32-20,42209438,-21779
32-21,42213344,-32768
32-22,42217250,-9906
32-23,42221156,20117
32-24,42225062,22670
32-25,42228968,21150
32-26,42232874,26068
32-27,42236780,3559
32-28,42240686,-29412
32-29,42244592,-32768
32-30,42248498,-27779
32-31,42252404,-1271
32-32,42256310,20460
32-1,42260221,25683
32-2,42264127,21099
32-3,42268033,-8363
32-4,42271939,-32734
32-5,42275845,-32325
32-6,42279751,-19471
32-7,42283657,9990
32-8,42287563,23899
32-9,42291469,25286
32-10,42295375,17290
32-11,42299281,-19796
32-12,42303187,-32389
32-13,42307093,-4558
32-14,42310999,23020
32-15,42314905,22786
32-16,42318811,21025
32-17,42322717,26481
32-18,42326623,7279
32-19,42330529,-30828
32-20,42334435,-32768
32-21,42338341,976
32-22,42342247,23607
32-23,42346153,21216
32-24,42350059,22951
32-25,42353965,23961
32-26,42357871,-6256
32-27,42361777,-32768
32-28,42365683,-32359
32-29,42369589,-16723
32-30,42373495,5469
32-31,42377401,21114
32-32,42381307,27333
32-1,42385280,16152
32-2,42389186,-17133
32-3,42393092,-32410
32-4,42396998,-32005
32-5,42400904,-13267
32-6,42404810,15095
32-7,42408716,24798
32-8,42412622,26023
32-9,42416528,9815
32-10,42420434,-28794
32-11,42424340,-30838
32-12,42428246,5554
32-13,42432152,25507
32-14,42436058,21924
32-15,42439964,23462
32-16,42443870,25386
32-17,42447776,-2433
32-18,42451682,-32768
32-19,42455588,-29013
32-20,42459494,4845
32-21,42463400,23982
32-22,42467306,21436
32-23,42471212,24804
32-24,42475118,19580
32-25,42479024,-16827
32-26,42482930,-32768
32-27,42486836,-19692
32-28,42490742,3712
32-29,42494648,14430
32-30,42498554,19659
32-31,42502460,26627
32-32,42506366,9072
32-1,42510216,-25558
32-2,42514122,-32715
32-3,42518028,-30105
32-4,42521934,-6220
32-5,42525840,19050
32-6,42529746,25039
32-7,42533652,24438
32-8,42537558,-1089
32-9,42541464,-32697
32-10,42545370,-21468
32-11,42549276,15279
32-12,42553182,25493
32-13,42557088,20320
32-14,42560994,24971
32-15,42564900,21041
32-16,42568806,-14419
32-17,42572712,-32768
32-18,42576618,-15232
32-19,42580524,18025
32-20,42584430,24397
32-21,42588336,20548
32-22,42592242,26086
32-23,42596148,12513
32-24,42600054,-26944
32-25,42603960,-32768
32-26,42607866,-1670
32-27,42611772,22401
32-28,42615678,18168
32-29,42619584,17779
32-30,42623490,22944
32-31,42627396,-1652
32-32,42631302,-31620
32-1,42635275,-32768
32-2,42639181,-29582
32-3,42643087,-6208
32-4,42646993,18669
32-5,42650899,26176
32-6,42654805,20514
32-7,42658711,-13673
32-8,42662617,-32559
32-9,42666523,-5493
32-10,42670429,23420
32-11,42674335,23026
32-12,42678241,20328
32-13,42682147,26266
32-14,42686053,13050
32-15,42689959,-25386
32-16,42693865,-32768
32-17,42697771,-4594
32-18,42701677,22339
32-19,42705583,22097
32-20,42709489,21459
32-21,42713395,24906
32-22,42717301,1020
32-23,42721207,-32768
32-24,42725113,-32385
32-25,42729019,-4256
32-26,42732925,21340
32-27,42736831,21138
32-28,42740737,20640
32-29,42744643,14923
32-30,42748549,-16284
32-31,42752455,-32702
32-32,42756361,-32294
32-1,42760212,-13127
32-2,42764118,15469
32-3,42768024,23738
32-4,42771930,25068
32-5,42775836,14682
32-6,42779742,-23986
32-7,42783648,-32415
32-8,42787554,112
32-9,42791460,24297
32-10,42795366,22052
32-11,42799272,21725
32-12,42803178,25863
32-13,42807084,3350
32-14,42810990,-32757
32-15,42814896,-32768
32-16,42818802,-1517
32-17,42822708,22446
32-18,42826614,21723
32-19,42830520,22690
32-20,42834426,22639
32-21,42838332,-10671
32-22,42842238,-32768
32-23,42846144,-14523
32-24,42850050,19107
32-25,42853956,23333
32-26,42857862,20336
32-27,42861768,25563
32-28,42865674,8233
32-29,42869580,-24811
32-30,42873486,-32768
32-31,42877392,-32359
32-32,42881298,-13847
32-1,42885209,14443
32-2,42889115,24489
32-3,42893021,24486
32-4,42896927,4866
32-5,42900833,-31597
32-6,42904739,-32240
32-7,42908645,2216
32-8,42912551,23777
32-9,42916457,21647
32-10,42920363,23260
32-11,42924269,23502
32-12,42928175,-8126
32-13,42932081,-32768
32-14,42935987,-21692
32-15,42939893,13141
32-16,42943799,24198
32-17,42947705,19919
32-18,42951611,24968
32-19,42955517,16260
32-20,42959423,-21621
32-21,42963329,-32768
32-22,42967235,-10323
32-23,42971141,19800
32-24,42975047,22529
32-25,42978953,20790
32-26,42982859,25811
32-27,42986765,4176
32-28,42990671,-28990
32-29,42994577,-32768
32-30,42998483,-26709
32-31,43002389,969
32-32,43006295,20967
32-1,43010329,25042
32-2,43014235,21318
32-3,43018141,-7934
32-4,43022047,-32768
32-5,43025953,-32359
32-6,43029859,-19745
32-7,43033765,9594
32-8,43037671,23818
32-9,43041577,25451
32-10,43045483,17822
32-11,43049389,-19296
32-12,43053295,-32428
32-13,43057201,-4865
32-14,43061107,23204
32-15,43065013,23182
32-16,43068919,21142
32-17,43072825,26532
32-18,43076731,7627
32-19,43080637,-30636
32-20,43084543,-32768
32-21,43088449,683
32-22,43092355,23359
32-23,43096261,21058
32-24,43100167,22642
32-25,43104073,23758
32-26,43107979,-6216
32-27,43111885,-32768
32-28,43115791,-32359
32-29,43119697,-16301
32-30,43123603,5475
32-31,43127509,20938
32-32,43131415,27437
32-1,43135205,16234
32-2,43139111,-17261
32-3,43143017,-32413
32-4,43146923,-32008
32-5,43150829,-12975
32-6,43154735,15138
32-7,43158641,24482
32-8,43162547,25626
32-9,43166453,9473
32-10,43170359,-29029
32-11,43174265,-31048
32-12,43178171,5258
32-13,43182077,25349
32-14,43185983,21866
32-15,43189889,23202
32-16,43193795,25413
32-17,43197701,-3032
32-18,43201607,-32768
32-19,43205513,-25523
32-20,43209419,10048
32-21,43213325,24882
32-22,43217231,20738
32-23,43221137,25220
32-24,43225043,19900
32-25,43228949,-17071
32-26,43232855,-32768
32-27,43236761,-16401
32-28,43240667,8625
32-29,43244573,15667
32-30,43248479,18741
32-31,43252385,26370
32-32,43256291,8685
32-1,43260202,-25885
32-2,43264108,-32768
32-3,43268014,-30013
32-4,43271920,-5465
32-5,43275826,19391
32-6,43279732,24702
32-7,43283638,23998
32-8,43287544,-1414
32-9,43291450,-32751
32-10,43295356,-22855
32-11,43299262,13508
32-12,43303168,25160
32-13,43307074,20515
32-14,43310980,24898
32-15,43314886,20498
32-16,43318792,-15046
32-17,43322698,-32768
32-18,43326604,-15847
32-19,43330510,17345
32-20,43334416,24184
32-21,43338322,20604
32-22,43342228,25997
32-23,43346134,11900
32-24,43350040,-27102
32-25,43353946,-32768
32-26,43357852,-3857
32-27,43361758,21286
32-28,43365664,18260
32-29,43369570,17656
32-30,43373476,22877
32-31,43377382,-1684
32-32,43381288,-31750
32-1,43385261,-32768
32-2,43389167,-29278
32-3,43393073,-6625
32-4,43396979,18085
32-5,43400885,25946
32-6,43404791,19968
32-7,43408697,-13236
32-8,43412603,-32547
32-9,43416509,-11933
32-10,43420415,20335
32-11,43424321,23951
32-12,43428227,20429
32-13,43432133,26344
32-14,43436039,13463
32-15,43439945,-25144
32-16,43443851,-32768
32-17,43447757,-5852
32-18,43451663,21781
32-19,43455569,22526
32-20,43459475,21294
32-21,43463381,25562
32-22,43467287,1762
32-23,43471193,-32768
32-24,43475099,-29409
32-25,43479005,6172
32-26,43482911,24661
32-27,43486817,19338
32-28,43490723,21095
32-29,43494629,15887
32-30,43498535,-17196
32-31,43502441,-32768
32-32,43506347,-32359
32-1,43510198,-27120
32-2,43514104,-1913
32-3,43518010,20992
32-4,43521916,26927
32-5,43525822,13716
32-6,43529728,-23487
32-7,43533634,-32071
32-8,43537540,-934
32-9,43541446,24268
32-10,43545352,22419
32-11,43549258,21766
32-12,43553164,26159
32-13,43557070,3887
32-14,43560976,-32457
32-15,43564882,-32487
32-16,43568788,-23
32-17,43572694,22834
32-18,43576600,21637
32-19,43580506,22984
32-20,43584412,22914
32-21,43588318,-9287
32-22,43592224,-32768
32-23,43596130,-19788
32-24,43600036,15291
32-25,43603942,24102
32-26,43607848,20766
32-27,43611754,25404
32-28,43615660,9124
32-29,43619566,-24724
32-30,43623472,-32768
32-31,43627378,-32359
32-32,43631284,-19238
32-1,43635348,9105
32-2,43639254,24181
32-3,43643160,25698
32-4,43647066,4618
32-5,43650972,-31985
32-6,43654878,-27168
32-7,43658784,10079
32-8,43662690,25677
32-9,43666596,20967
32-10,43670502,24009
32-11,43674408,23500
32-12,43678314,-7048
32-13,43682220,-32768
32-14,43686126,-26478
32-15,43690032,7825
32-16,43693938,24226
32-17,43697844,20736
32-18,43701750,24797
32-19,43705656,17329
32-20,43709562,-21729
32-21,43713468,-32768
32-22,43717374,-3082
32-23,43721280,23516
32-24,43725186,21872
32-25,43729092,21084
32-26,43732998,26202
32-27,43736904,4485
32-28,43740810,-28558
32-29,43744716,-32768
32-30,43748622,-25982
32-31,43752528,3185
32-32,43756434,22049
32-1,43760193,24646
32-2,43764099,21362
32-3,43768005,-7065
32-4,43771911,-32768
32-5,43775817,-32359
32-6,43779723,-15869
32-7,43783629,13212
32-8,43787535,23678
32-9,43791441,24710
32-10,43795347,18094
32-11,43799253,-18878
32-12,43803159,-32519
32-13,43807065,-6205
32-14,43810971,22753
32-15,43814877,23116
32-16,43818783,20925
32-17,43822689,26184
32-18,43826595,7819
32-19,43830501,-29400
32-20,43834407,-32768
32-21,43838313,-6595
32-22,43842219,20566
32-23,43846125,22330
32-24,43850031,22633
32-25,43853937,23949
32-26,43857843,-5170
32-27,43861749,-32768
32-28,43865655,-32359
32-29,43869561,-15864
32-30,43873467,5788
32-31,43877373,20793
32-32,43881279,27382
32-1,43885190,16736
32-2,43889096,-16736
32-3,43893002,-32433
32-4,43896908,-32028
32-5,43900814,-12702
32-6,43904720,15515
32-7,43908626,24595
32-8,43912532,26408
32-9,43916438,9831
32-10,43920344,-29089
32-11,43924250,-25797
32-12,43928156,12387
32-13,43932062,26381
32-14,43935968,20893
32-15,43939874,23639
32-16,43943780,25056
32-17,43947686,-2403
32-18,43951592,-32768
32-19,43955498,-29783
32-20,43959404,4096
32-21,43963310,23944
32-22,43967216,21508
32-23,43971122,24670
32-24,43975028,20186
32-25,43978934,-16521
32-26,43982840,-32768
32-27,43986746,-16460
32-28,43990652,8598
32-29,43994558,15938
32-30,43998464,19030
32-31,44002370,26872
32-32,44006276,9250
32-1,44010188,-26002
32-2,44014094,-32768
32-3,44018000,-31590
32-4,44021906,-12660
32-5,44025812,14501
32-6,44029718,25246
32-7,44033624,24544
32-8,44037530,-1542
32-9,44041436,-32592
32-10,44045342,-21694
32-11,44049248,15150
32-12,44053154,25610
32-13,44057060,20427
32-14,44060966,25079
32-15,44064872,20952
32-16,44068778,-14613
32-17,44072684,-32768
32-18,44076590,-15574
32-19,44080496,17631
32-20,44084402,24300
32-21,44088308,20647
32-22,44092214,26114
32-23,44096120,12188
32-24,44100026,-27018
32-25,44103932,-32768
32-26,44107838,-3326
32-27,44111744,21609
32-28,44115650,18216
32-29,44119556,17809
32-30,44123462,22634
32-31,44127368,-1871
32-32,44131274,-31802
32-1,44135216,-32768
32-2,44139122,-25644
32-3,44143028,2156
32-4,44146934,21928
32-5,44150840,25056
32-6,44154746,20330
32-7,44158652,-12870
32-8,44162558,-32748
32-9,44166464,-12926
32-10,44170370,19448
32-11,44174276,23758
32-12,44178182,20206
32-13,44182088,26009
32-14,44185994,13126
32-15,44189900,-25464
32-16,44193806,-32768
32-17,44197712,-5978
32-18,44201618,21749
32-19,44205524,22694
32-20,44209430,21572
32-21,44213336,25687
32-22,44217242,1623
32-23,44221148,-32768
32-24,44225054,-29537
32-25,44228960,5816
32-26,44232866,24559
32-27,44236772,19587
32-28,44240678,21457
32-29,44244584,16424
32-30,44248490,-16735
32-31,44252396,-32768
32-32,44256302,-32359
32-1,44260183,-26850
32-2,44264089,-1803
32-3,44267995,20789
32-4,44271901,26811
32-5,44275807,13371
32-6,44279713,-23963
32-7,44283619,-32061
32-8,44287525,-353
32-9,44291431,24338
32-10,44295337,22385
32-11,44299243,21929
32-12,44303149,26378
32-13,44307055,3757
32-14,44310961,-32768
32-15,44314867,-31102
32-16,44318773,4064
32-17,44322679,24499
32-18,44326585,21391
32-19,44330491,23640
32-20,44334397,23286
32-21,44338303,-9127
32-22,44342209,-32768
32-23,44346115,-21059
32-24,44350021,13833
32-25,44353927,24142
32-26,44357833,21027
32-27,44361739,25339
32-28,44365645,9296
32-29,44369551,-24720
32-30,44373457,-32768
32-31,44377363,-32359
32-32,44381269,-20417
32-1,44385181,7664
32-2,44389087,23958
32-3,44392993,25707
32-4,44396899,4483
32-5,44400805,-31896
32-6,44404711,-27596
32-7,44408617,9379
32-8,44412523,25508
32-9,44416429,21013
32-10,44420335,24062
32-11,44424241,23666
32-12,44428147,-6904
32-13,44432053,-32768
32-14,44435959,-26365
32-15,44439865,7567
32-16,44443771,23902
32-17,44447677,20965
32-18,44451583,24902
32-19,44455489,17530
32-20,44459395,-20585
32-21,44463301,-32768
32-22,44467207,-9197
32-23,44471113,20952
32-24,44475019,22740
32-25,44478925,20855
32-26,44482831,26229
32-27,44486737,5241
32-28,44490643,-28294
32-29,44494549,-32768
32-30,44498455,-26590
32-31,44502361,1635
32-32,44506267,21491
32-1,44510179,25213
32-2,44514085,22146
32-3,44517991,-6538
32-4,44521897,-32768
32-5,44525803,-32359
32-6,44529709,-19860
32-7,44533615,9631
32-8,44537521,23807
32-9,44541427,25157
32-10,44545333,18321
32-11,44549239,-18193
32-12,44553145,-32443
32-13,44557051,-6046
32-14,44560957,22775
32-15,44564863,23304
32-16,44568769,21386
32-17,44572675,27030
32-18,44576581,8846
32-19,44580487,-29481
32-20,44584393,-32768
32-21,44588299,-2651
32-22,44592205,22530
32-23,44596111,21827
32-24,44600017,22581
32-25,44603923,24361
32-26,44607829,-4694
32-27,44611735,-32768
32-28,44615641,-32359
32-29,44619547,-14393
32-30,44623453,7474
32-31,44627359,20944
32-32,44631265,26794
32-1,44635176,16996
32-2,44639082,-15972
32-3,44642988,-32480
32-4,44646894,-32075
32-5,44650800,-12087
32-6,44654706,15752
32-7,44658612,24217
32-8,44662518,25548
32-9,44666424,10457
32-10,44670330,-28295
32-11,44674236,-31360
32-12,44678142,5053
32-13,44682048,25372
32-14,44685954,21805
32-15,44689860,23200
32-16,44693766,25396
32-17,44697672,-1758
32-18,44701578,-32768
32-19,44705484,-29841
32-20,44709390,4164
32-21,44713296,24068
32-22,44717202,21255
32-23,44721108,24461
32-24,44725014,20723
32-25,44728920,-16796
32-26,44732826,-32768
32-27,44736732,-9035
32-28,44740638,16059
32-29,44744544,17495
32-30,44748450,18481
32-31,44752356,26608
32-32,44756262,9059
32-1,44760174,-25784
32-2,44764080,-32768
32-3,44767986,-31835
32-4,44771892,-11481
32-5,44775798,15886
32-6,44779704,24983
32-7,44783610,24660
32-8,44787516,-1339
32-9,44791422,-32622
32-10,44795328,-17228
32-11,44799234,18531
32-12,44803140,24846
32-13,44807046,19827
32-14,44810952,25002
32-15,44814858,20211
32-16,44818764,-13568
32-17,44822670,-32768
32-18,44826576,-22272
32-19,44830482,11356
32-20,44834388,23911
32-21,44838294,20784
32-22,44842200,25510
32-23,44846106,12730
32-24,44850012,-26626
32-25,44853918,-32768
32-26,44857824,-3594
32-27,44861730,21453
32-28,44865636,18360
32-29,44869542,17936
32-30,44873448,22933
32-31,44877354,-1289
32-32,44881260,-31631
32-1,44885171,-32768
32-2,44889077,-25460
32-3,44892983,2481
32-4,44896889,21767
32-5,44900795,24909
32-6,44904701,20734
32-7,44908607,-13562
32-8,44912513,-32746
32-9,44916419,-5779
32-10,44920325,23206
32-11,44924231,22591
32-12,44928137,19993
32-13,44932043,25756
32-14,44935949,12399
32-15,44939855,-24457
32-16,44943761,-32768
32-17,44947667,-12651
32-18,44951573,17801
32-19,44955479,23216
32-20,44959385,21257
32-21,44963291,25184
32-22,44967197,2189
32-23,44971103,-32768
32-24,44975009,-29663
32-25,44978915,5825
32-26,44982821,24454
32-27,44986727,19366
32-28,44990633,21291
32-29,44994539,16132
32-30,44998445,-16693
32-31,45002351,-32768
32-32,45006257,-32359
32-1,45010169,-24988
32-2,45014075,1756
32-3,45017981,21762
32-4,45021887,26367
32-5,45025793,13966
32-6,45029699,-23706
32-7,45033605,-32146
32-8,45037511,-111
32-9,45041417,24582
32-10,45045323,22457
32-11,45049229,21852
32-12,45053135,26448
32-13,45057041,3788
32-14,45060947,-32768
32-15,45064853,-30582
32-16,45068759,4662
32-17,45072665,24504
32-18,45076571,21239
32-19,45080477,23415
32-20,45084383,22966
32-21,45088289,-9189
32-22,45092195,-32768
32-23,45096101,-21692
32-24,45100007,13145
32-25,45103913,23752
32-26,45107819,21103
32-27,45111725,24460
32-28,45115631,8860
32-29,45119537,-23958
32-30,45123443,-32768
32-31,45127349,-25907
32-32,45131255,4299
32-1,45135167,22207
32-2,45139073,22591
32-3,45142979,24652
32-4,45146885,3320
32-5,45150791,-30041
32-6,45154697,-32625
32-7,45158603,-22852
32-8,45162509,6345
32-9,45166415,22811
32-10,45170321,23681
32-11,45174227,22380
32-12,45178133,-7767
32-13,45182039,-32768
32-14,45185945,-17631
32-15,45189851,16901
32-16,45193757,24288
32-17,45197663,19898
32-18,45201569,25302
32-19,45205475,16426
32-20,45209381,-21111
32-21,45213287,-32768
32-22,45217193,-10921
32-23,45221099,19650
32-24,45225005,22701
32-25,45228911,20851
32-26,45232817,26022
32-27,45236723,4678
32-28,45240629,-28662
32-29,45244535,-32768
32-30,45248441,-27123
32-31,45252347,416
32-32,45256253,21036
32-1,45260164,25172
32-2,45264070,21213
32-3,45267976,-7718
32-4,45271882,-32768
32-5,45275788,-32359
32-6,45279694,-20384
32-7,45283600,9146
32-8,45287506,23645
32-9,45291412,25011
32-10,45295318,18074
32-11,45299224,-18336
32-12,45303130,-32421
32-13,45307036,-6094
32-14,45310942,22549
32-15,45314848,23114
32-16,45318754,20829
32-17,45322660,26487
32-18,45326566,8710
32-19,45330472,-29693
32-20,45334378,-32768
32-21,45338284,-210
32-22,45342190,23369
32-23,45346096,21445
32-24,45350002,22633
32-25,45353908,24458
32-26,45357814,-4635
32-27,45361720,-32768
32-28,45365626,-32359
32-29,45369532,-16641
32-30,45373438,5363
32-31,45377344,20881
32-32,45381250,27345
32-1,45385162,17614
32-2,45389068,-15503
32-3,45392974,-32445
32-4,45396880,-32040
32-5,45400786,-16691
32-6,45404692,12112
32-7,45408598,24735
32-8,45412504,26250
32-9,45416410,10832
32-10,45420316,-27661
32-11,45424222,-31437
32-12,45428128,4948
32-13,45432034,25630
32-14,45435940,22031
32-15,45439846,23047
32-16,45443752,25776
32-17,45447658,-1528
32-18,45451564,-32768
32-19,45455470,-26428
32-20,45459376,9311
32-21,45463282,25109
32-22,45467188,20801
32-23,45471094,24864
32-24,45475000,20646
32-25,45478906,-15824
32-26,45482812,-32768
32-27,45486718,-16729
32-28,45490624,8524
32-29,45494530,16508
32-30,45498436,19473
32-31,45502342,26556
32-32,45506248,9902
32-1,45510160,-24849
32-2,45514066,-32768
32-3,45517972,-30232
32-4,45521878,-5876
32-5,45525784,19130
32-6,45529690,24589
32-7,45533596,24390
32-8,45537502,59
32-9,45541408,-32762
32-10,45545314,-23739
32-11,45549220,12927
32-12,45553126,25209
32-13,45557032,20403
32-14,45560938,24555
32-15,45564844,21209
32-16,45568750,-13669
32-17,45572656,-32768
32-18,45576562,-16639
32-19,45580468,16899
32-20,45584374,24016
32-21,45588280,20305
32-22,45592186,25483
32-23,45596092,12289
32-24,45599998,-25332
32-25,45603904,-32768
32-26,45607810,-10781
32-27,45611716,17735
32-28,45615622,19027
32-29,45619528,17567
32-30,45623434,22519
32-31,45627340,-104
32-32,45631246,-31476
32-1,45635157,-32768
32-2,45639063,-21673
32-3,45642969,7754
32-4,45646875,22736
32-5,45650781,23997
32-6,45654687,21082
32-7,45658593,-12041
32-8,45662499,-32768
32-9,45666405,-12228
32-10,45670311,20083
32-11,45674217,23443
32-12,45678123,19876
32-13,45682029,25635
32-14,45685935,12920
32-15,45689841,-24174
32-16,45693747,-32768
32-17,45697653,-13100
32-18,45701559,17522
32-19,45705465,23211
32-20,45709371,20903
32-21,45713277,25429
32-22,45717183,2353
32-23,45721089,-32768
32-24,45724995,-25975
32-25,45728901,11114
32-26,45732807,25458
32-27,45736713,18686
32-28,45740619,21214
32-29,45744525,15742
32-30,45748431,-16728
32-31,45752337,-32768
32-32,45756243,-32359
32-1,45760155,-24395
32-2,45764061,3579
32-3,45767967,22492
32-4,45771873,26278
32-5,45775779,14363
32-6,45779685,-23690
32-7,45783591,-31746
32-8,45787497,4399
32-9,45791403,25553
32-10,45795309,21488
32-11,45799215,22089
32-12,45803121,26091
32-13,45807027,3747
32-14,45810933,-32088
32-15,45814839,-32687
32-16,45818745,-3435
32-17,45822651,21670
32-18,45826557,22052
32-19,45830463,22785
32-20,45834369,22836
32-21,45838275,-9009
32-22,45842181,-32768
32-23,45846087,-20931
32-24,45849993,13806
32-25,45853899,23725
32-26,45857805,20857
32-27,45861711,25305
32-28,45865617,9104
32-29,45869523,-24427
32-30,45873429,-32768
32-31,45877335,-32359
32-32,45881241,-16263
32-1,45885153,11767
32-2,45889059,24225
32-3,45892965,24974
32-4,45896871,5230
32-5,45900777,-31349
32-6,45904683,-32037
32-7,45908589,2893
32-8,45912495,24206
32-9,45916401,21625
32-10,45920307,23151
32-11,45924213,23904
32-12,45928119,-7030
32-13,45932025,-32768
32-14,45935931,-22566
32-15,45939837,12402
32-16,45943743,24305
32-17,45947649,20046
32-18,45951555,24838
32-19,45955461,16975
32-20,45959367,-20618
32-21,45963273,-32768
32-22,45967179,-10911
32-23,45971085,19612
32-24,45974991,22630
32-25,45978897,20681
32-26,45982803,25846
32-27,45986709,4666
32-28,45990615,-28642
32-29,45994521,-32768
32-30,45998427,-27372
32-31,46002333,-81
32-32,46006239,20693
32-1,46010150,24936
32-2,46014056,21350
32-3,46017962,-7348
32-4,46021868,-32763
32-5,46025774,-32353
32-6,46029680,-20549
32-7,46033586,8723
32-8,46037492,23622
32-9,46041398,25209
32-10,46045304,17984
32-11,46049210,-18562
32-12,46053116,-32407
32-13,46057022,-5819
32-14,46060928,22775
32-15,46064834,23110
32-16,46068740,20913
32-17,46072646,26610
32-18,46076552,8450
32-19,46080458,-29978
32-20,46084364,-32768
32-21,46088270,-678
32-22,46092176,23147
32-23,46096082,21480
32-24,46099988,22526
32-25,46103894,23961
32-26,46107800,-5322
32-27,46111706,-32768
32-28,46115612,-32359
32-29,46119518,-16723
32-30,46123424,5439
32-31,46127330,20765
32-32,46131236,27029
32-1,46135148,16715
32-2,46139054,-17290
32-3,46142960,-32406
32-4,46146866,-32001
32-5,46150772,-22575
32-6,46154678,4664
32-7,46158584,23553
32-8,46162490,27063
32-9,46166396,9857
32-10,46170302,-28008
32-11,46174208,-30719
32-12,46178114,5679
32-13,46182020,25970
32-14,46185926,22261
32-15,46189832,23504
32-16,46193738,25923
32-17,46197644,-1864
32-18,46201550,-32673
32-19,46205456,-26115
32-20,46209362,9663
32-21,46213268,25258
32-22,46217174,20986
32-23,46221080,25214
32-24,46224986,20423
32-25,46228892,-15692
32-26,46232798,-32768
32-27,46236704,-21360
32-28,46240610,1121
32-29,46244516,12803
32-30,46248422,19074
32-31,46252328,26464
32-32,46256234,9509
32-1,46260145,-25209
32-2,46264051,-32642
32-3,46267957,-30995
32-4,46271863,-9588
32-5,46275769,16819
32-6,46279675,24956
32-7,46283581,24527
32-8,46287487,-246
32-9,46291393,-32554
32-10,46295299,-22774
32-11,46299205,14014
32-12,46303111,25479
32-13,46307017,20519
32-14,46310923,24978
32-15,46314829,21809
32-16,46318735,-13026
32-17,46322641,-32768
32-18,46326547,-16693
32-19,46330453,17180
32-20,46334359,24550
32-21,46338265,20767
32-22,46342171,25994
32-23,46346077,12919
32-24,46349983,-25110
32-25,46353889,-32768
32-26,46357795,-10234
32-27,46361701,17620
32-28,46365607,18201
32-29,46369513,16648
32-30,46373419,22184
32-31,46377325,149
32-32,46381231,-30925
32-1,46385174,-32768
32-2,46389080,-24005
32-3,46392986,5118
32-4,46396892,22891
32-5,46400798,24781
32-6,46404704,21327
32-7,46408610,-11337
32-8,46412516,-32768
32-9,46416422,-13422
32-10,46420328,19571
32-11,46424234,24073
32-12,46428140,20056
32-13,46432046,25831
32-14,46435952,14133
32-15,46439858,-24497
32-16,46443764,-32768
32-17,46447670,-5458
32-18,46451576,22093
32-19,46455482,22457
32-20,46459388,21170
32-21,46463294,25899
32-22,46467200,2891
32-23,46471106,-32768
32-24,46475012,-29498
32-25,46478918,6621
32-26,46482824,25059
32-27,46486730,19442
32-28,46490636,21211
32-29,46494542,16163
32-30,46498448,-15900
32-31,46502354,-32768
32-32,46506260,-32359
32-1,46510141,-19824
32-2,46514047,9274
32-3,46517953,23538
32-4,46521859,25399
32-5,46525765,15096
32-6,46529671,-22470
32-7,46533577,-32344
32-8,46537483,-2269
32-9,46541389,23639
32-10,46545295,22331
32-11,46549201,21443
32-12,46553107,25939
32-13,46557013,4469
32-14,46560919,-31912
32-15,46564825,-32738
32-16,46568731,-3067
32-17,46572637,21856
32-18,46576543,21747
32-19,46580449,22454
32-20,46584355,23146
32-21,46588261,-9575
32-22,46592167,-32768
32-23,46596073,-14784
32-24,46599979,18906
32-25,46603885,23312
32-26,46607791,20004
32-27,46611697,25151
32-28,46615603,8900
32-29,46619509,-24072
32-30,46623415,-32768
32-31,46627321,-32359
32-32,46631227,-14708
32-1,46635138,13851
32-2,46639044,24214
32-3,46642950,25126
32-4,46646856,6052
32-5,46650762,-31393
32-6,46654668,-28819
32-7,46658574,8078
32-8,46662480,25237
32-9,46666386,20889
32-10,46670292,23477
32-11,46674198,23450
32-12,46678104,-6497
32-13,46682010,-32768
32-14,46685916,-27739
32-15,46689822,6077
32-16,46693728,23735
32-17,46697634,20995
32-18,46701540,24444
32-19,46705446,17466
32-20,46709352,-19868
32-21,46713258,-32768
32-22,46717164,-11759
32-23,46721070,19043
32-24,46724976,22644
32-25,46728882,20584
32-26,46732788,25917
32-27,46736694,5299
32-28,46740600,-28255
32-29,46744506,-32768
32-30,46748412,-27454
32-31,46752318,-288
32-32,46756224,20633
32-1,46760136,25093
32-2,46764042,21697
32-3,46767948,-6956
32-4,46771854,-32768
32-5,46775760,-32359
32-6,46779666,-20671
32-7,46783572,8447
32-8,46787478,23236
32-9,46791384,25433
32-10,46795290,18371
32-11,46799196,-19253
32-12,46803102,-32401
32-13,46807008,723
32-14,46810914,25080
32-15,46814820,22048
32-16,46818726,21052
32-17,46822632,26406
32-18,46826538,8597
32-19,46830444,-28656
32-20,46834350,-32768
32-21,46838256,-6800
32-22,46842162,20662
32-23,46846068,22447
32-24,46849974,22665
32-25,46853880,24610
32-26,46857786,-4220
32-27,46861692,-32768
32-28,46865598,-32359
32-29,46869504,-17008
32-30,46873410,4857
32-31,46877316,20794
32-32,46881222,27417
32-1,46885134,17222
32-2,46889040,-16002
32-3,46892946,-32423
32-4,46896852,-32018
32-5,46900758,-13736
32-6,46904664,14498
32-7,46908570,24394
32-8,46912476,25931
32-9,46916382,10981
32-10,46920288,-27897
32-11,46924194,-31511
32-12,46928100,4819
32-13,46932006,25462
32-14,46935912,21973
32-15,46939818,23028
32-16,46943724,25642
32-17,46947630,-1890
32-18,46951536,-32768
32-19,46955442,-26599
32-20,46959348,8961
32-21,46963254,24917
32-22,46967160,20731
32-23,46971066,24761
32-24,46974972,20577
32-25,46978878,-15850
32-26,46982784,-32768
32-27,46986690,-17177
32-28,46990596,8085
32-29,46994502,15509
32-30,46998408,18407
32-31,47002314,26442
32-32,47006220,9576
32-1,47010131,-25412
32-2,47014037,-32768
32-3,47017943,-31851
32-4,47021849,-11517
32-5,47025755,16088
32-6,47029661,25266
32-7,47033567,24312
32-8,47037473,-361
32-9,47041379,-32635
32-10,47045285,-24122
32-11,47049191,12399
32-12,47053097,25021
32-13,47057003,20387
32-14,47060909,24587
32-15,47064815,21157
32-16,47068721,-13664
32-17,47072627,-32768
32-18,47076533,-17288
32-19,47080439,16187
32-20,47084345,23985
32-21,47088251,20275
32-22,47092157,25776
32-23,47096063,12877
32-24,47099969,-26146
32-25,47103875,-32768
32-26,47107781,-4503
32-27,47111687,21322
32-28,47115593,18567
32-29,47119499,17631
32-30,47123405,23079
32-31,47127311,-1025
32-32,47131217,-31567
32-1,47135190,-32768
32-2,47139096,-29106
32-3,47143002,-6611
32-4,47146908,17936
32-5,47150814,26111
32-6,47154720,20698
32-7,47158626,-12431
32-8,47162532,-32569
32-9,47166438,-12393
32-10,47170344,20097
32-11,47174250,24018
32-12,47178156,20377
32-13,47182062,26199
32-14,47185968,14083
32-15,47189874,-24480
32-16,47193780,-32768
32-17,47197686,-6023
32-18,47201592,21824
32-19,47205498,22401
32-20,47209404,21075
32-21,47213310,25587
32-22,47217216,2706
32-23,47221122,-32768
32-24,47225028,-30744
32-25,47228934,4269
32-26,47232840,24365
32-27,47236746,19694
32-28,47240652,21175
32-29,47244558,16759
32-30,47248464,-15829
32-31,47252370,-32768
32-32,47256276,-32359
32-1,47260126,-25243
32-2,47264032,1156
32-3,47267938,21562
32-4,47271844,26274
32-5,47275750,14642
32-6,47279656,-22585
32-7,47283562,-32154
32-8,47287468,-1163
32-9,47291374,24257
32-10,47295280,22424
32-11,47299186,21721
32-12,47303092,26296
32-13,47306998,4865
32-14,47310904,-31543
32-15,47314810,-32591
32-16,47318716,-2689
32-17,47322622,21755
32-18,47326528,21879
32-19,47330434,22876
32-20,47334340,23026
32-21,47338246,-8401
32-22,47342152,-32768
32-23,47346058,-21755
32-24,47349964,12048
32-25,47353870,23608
32-26,47357776,21231
32-27,47361682,25302
32-28,47365588,10657
32-29,47369494,-22759
32-30,47373400,-32768
32-31,47377306,-32359
32-32,47381212,-13596
32-1,47385124,14772
32-2,47389030,24510
32-3,47392936,24806
32-4,47396842,6484
32-5,47400748,-30339
32-6,47404654,-32290
32-7,47408560,519
32-8,47412466,23179
32-9,47416372,21904
32-10,47420278,22856
32-11,47424184,24045
32-12,47428090,-6402
32-13,47431996,-32768
32-14,47435902,-21572
32-15,47439808,14068
32-16,47443714,24926
32-17,47447620,20015
32-18,47451526,24985
32-19,47455432,18010
32-20,47459338,-19714
32-21,47463244,-32768
32-22,47467150,-9732
32-23,47471056,20723
32-24,47474962,22695
32-25,47478868,20551
32-26,47482774,25815
32-27,47486680,5742
32-28,47490586,-27675
32-29,47494492,-32768
32-30,47498398,-26236
32-31,47502304,3298
32-32,47506210,22285
32-1,47510122,24675
32-2,47514028,22106
32-3,47517934,-5733
32-4,47521840,-32768
32-5,47525746,-32359
32-6,47529652,-16717
32-7,47533558,12647
32-8,47537464,23673
32-9,47541370,24638
32-10,47545276,18755
32-11,47549182,-17938
32-12,47553088,-32520
32-13,47556994,-5794
32-14,47560900,22884
32-15,47564806,22944
32-16,47568712,20701
32-17,47572618,26048
32-18,47576524,8648
32-19,47580430,-28613
32-20,47584336,-32768
32-21,47588242,-7063
32-22,47592148,20327
32-23,47596054,22104
32-24,47599960,22089
32-25,47603866,24225
32-26,47607772,-3783
32-27,47611678,-32768
32-28,47615584,-31739
32-29,47619490,-9698
32-30,47623396,11073
32-31,47627302,20950
32-32,47631208,26563
32-1,47635119,17806
32-2,47639025,-15817
32-3,47642931,-32601
32-4,47646837,-32194
32-5,47650743,-18777
32-6,47654649,10090
32-7,47658555,24102
32-8,47662461,26509
32-9,47666367,10641
32-10,47670273,-27971
32-11,47674179,-27267
32-12,47678085,10629
32-13,47681991,26047
32-14,47685897,20826
32-15,47689803,23392
32-16,47693709,25219
32-17,47697615,-1517
32-18,47701521,-32768
32-19,47705427,-30759
32-20,47709333,2633
32-21,47713239,23418
32-22,47717145,21338
32-23,47721051,24157
32-24,47724957,20582
32-25,47728863,-15386
32-26,47732769,-32768
32-27,47736675,-17432
32-28,47740581,8040
32-29,47744487,16135
32-30,47748393,19068
32-31,47752299,26519
32-32,47756205,9998
32-1,47760117,-24894
32-2,47764023,-32768
32-3,47767929,-30376
32-4,47771835,-6131
32-5,47775741,18960
32-6,47779647,24430
32-7,47783553,24970
32-8,47787459,-383
32-9,47791365,-32754
32-10,47795271,-17589
32-11,47799177,18478
32-12,47803083,24914
32-13,47806989,19787
32-14,47810895,24874
32-15,47814801,20494
32-16,47818707,-12979
32-17,47822613,-32768
32-18,47826519,-22817
32-19,47830425,11053
32-20,47834331,24168
32-21,47838237,21054
32-22,47842143,25412
32-23,47846049,13018
32-24,47849955,-25964
32-25,47853861,-32768
32-26,47857767,-5428
32-27,47861673,20628
32-28,47865579,18433
32-29,47869485,17548
32-30,47873391,22970
32-31,47877297,-387
32-32,47881203,-31180
32-1,47885359,-32768
32-2,47889265,-25525
32-3,47893171,2285
32-4,47897077,21865
32-5,47900983,24891
32-6,47904889,20878
32-7,47908795,-11712
32-8,47912701,-32768
32-9,47916607,-13698
32-10,47920513,19117
32-11,47924419,23736
32-12,47928325,20055
32-13,47932231,25930
32-14,47936137,13862
32-15,47940043,-24649
32-16,47943949,-32768
32-17,47947855,-6998
32-18,47951761,21079
32-19,47955667,22239
32-20,47959573,20882
32-21,47963479,25474
32-22,47967385,2552
32-23,47971291,-32768
32-24,47975197,-30567
32-25,47979103,4484
32-26,47983009,24350
32-27,47986915,19668
32-28,47990821,21133
32-29,47994727,16716
32-30,47998633,-15819
32-31,48002539,-32768
32-32,48006445,-32359
32-1,48010112,-25708
32-2,48014018,588
32-3,48017924,21562
32-4,48021830,26510
32-5,48025736,14497
32-6,48029642,-22823
32-7,48033548,-32140
32-8,48037454,-1604
32-9,48041360,24072
32-10,48045266,22586
32-11,48049172,21676
32-12,48053078,26449
32-13,48056984,4601
32-14,48060890,-32632
32-15,48064796,-31473
32-16,48068702,3548
32-17,48072608,24022
32-18,48076514,21101
32-19,48080420,23196
32-20,48084326,23125
32-21,48088232,-8750
32-22,48092138,-32768
32-23,48096044,-21343
32-24,48099950,13609
32-25,48103856,24151
32-26,48107762,21105
32-27,48111668,25199
32-28,48115574,9909
32-29,48119480,-23889
32-30,48123386,-32768
32-31,48127292,-32359
32-32,48131198,-22577
32-1,48135110,5071
32-2,48139016,23410
32-3,48142922,25967
32-4,48146828,5240
32-5,48150734,-31240
32-6,48154640,-28965
32-7,48158546,7548
32-8,48162452,25378
32-9,48166358,21120
32-10,48170264,23257
32-11,48174170,23934
32-12,48178076,-6256
32-13,48181982,-32768
32-14,48185888,-23747
32-15,48189794,11596
32-16,48193700,24656
32-17,48197606,20524
32-18,48201512,25044
32-19,48205418,17567
32-20,48209324,-18866
32-21,48213230,-32768
32-22,48217136,-16792
32-23,48221042,15319
32-24,48224948,23135
32-25,48228854,20993
32-26,48232760,25670
32-27,48236666,6154
32-28,48240572,-27763
32-29,48244478,-32768
32-30,48248384,-25860
32-31,48252290,3270
32-32,48256196,21949
32-1,48260108,24527
32-2,48264014,22474
32-3,48267920,-5304
32-4,48271826,-32768
32-5,48275732,-32359
32-6,48279638,-20225
32-7,48283544,9461
32-8,48287450,23952
32-9,48291356,25358
32-10,48295262,19261
32-11,48299168,-17170
32-12,48303074,-32465
32-13,48306980,-5854
32-14,48310886,23162
32-15,48314792,23419
32-16,48318698,20894
32-17,48322604,26466
32-18,48326510,9394
32-19,48330416,-29115
32-20,48334322,-32768
32-21,48338228,-596
32-22,48342134,23288
32-23,48346040,21322
32-24,48349946,22215
32-25,48353852,24395
32-26,48357758,-3872
32-27,48361664,-32768
32-28,48365570,-32359
32-29,48369476,-15901
32-30,48373382,6270
32-31,48377288,20643
32-32,48381194,26718
32-1,48385105,17766
32-2,48389011,-14915
32-3,48392917,-32464
32-4,48396823,-32058
32-5,48400729,-13644
32-6,48404635,14818
32-7,48408541,24378
32-8,48412447,25561
32-9,48416353,11478
32-10,48420259,-27135
32-11,48424165,-32103
32-12,48428071,3137
32-13,48431977,24989
32-14,48435883,21883
32-15,48439789,22571
32-16,48443695,25316
32-17,48447601,-639
32-18,48451507,-32768
32-19,48455413,-30659
32-20,48459319,3190
32-21,48463225,23867
32-22,48467131,21186
32-23,48471037,23939
32-24,48474943,21119
32-25,48478849,-15396
32-26,48482755,-32768
32-27,48486661,-11772
32-28,48490567,14018
32-29,48494473,17439
32-30,48498379,18435
32-31,48502285,26409
32-32,48506191,10133
32-1,48510164,-24824
32-2,48514070,-32768
32-3,48517976,-32061
32-4,48521882,-11995
32-5,48525788,15619
32-6,48529694,25021
32-7,48533600,24952
32-8,48537506,-32
32-9,48541412,-32630
32-10,48545318,-19137
32-11,48549224,17261
32-12,48553130,25128
32-13,48557036,20070
32-14,48560942,24860
32-15,48564848,20737
32-16,48568754,-12575
32-17,48572660,-32768
32-18,48576566,-22885
32-19,48580472,10926
32-20,48584378,24059
32-21,48588284,20458
32-22,48592190,25172
32-23,48596096,13766
32-24,48600002,-26144
32-25,48603908,-32768
32-26,48607814,985
32-27,48611720,23301
32-28,48615626,17486
32-29,48619532,17437
32-30,48623438,23146
32-31,48627344,-575
32-32,48631250,-31039
32-1,48635223,-32768
32-2,48639129,-29084
32-3,48643035,-4531
32-4,48646941,19383
32-5,48650847,25532
32-6,48654753,21172
32-7,48658659,-12007
32-8,48662565,-32617
32-9,48666471,-6860
32-10,48670377,23187
32-11,48674283,23244
32-12,48678189,20331
32-13,48682095,26181
32-14,48686001,13723
32-15,48689907,-23297
32-16,48693813,-32768
32-17,48697719,-13333
32-18,48701625,17559
32-19,48705531,23373
32-20,48709437,21140
32-21,48713343,25356
32-22,48717249,3349
32-23,48721155,-32768
32-24,48725061,-30567
32-25,48728967,4808
32-26,48732873,24611
32-27,48736779,19514
32-28,48740685,20772
32-29,48744591,16584
32-30,48748497,-15783
32-31,48752403,-32768
32-32,48756309,-32359
32-1,48760098,-25459
32-2,48764004,984
32-3,48767910,21236
32-4,48771816,26598
32-5,48775722,14738
32-6,48779628,-23513
32-7,48783534,-30967
32-8,48787440,5805
32-9,48791346,26086
32-10,48795252,21367
32-11,48799158,22002
32-12,48803064,26327
32-13,48806970,4852
32-14,48810876,-31483
32-15,48814782,-32692
32-16,48818688,-3248
32-17,48822594,21714
32-18,48826500,21824
32-19,48830406,22650
32-20,48834312,23034
32-21,48838218,-8357
32-22,48842124,-32768
32-23,48846030,-21758
32-24,48849936,13211
32-25,48853842,24059
32-26,48857748,21328
32-27,48861654,24702
32-28,48865560,9961
32-29,48869466,-22986
32-30,48873372,-32768
32-31,48877278,-26153
32-32,48881184,4147
32-1,48885096,22285
32-2,48889002,22394
32-3,48892908,24634
32-4,48896814,4690
32-5,48900720,-29035
32-6,48904626,-32649
32-7,48908532,-23051
32-8,48912438,6256
32-9,48916344,22452
32-10,48920250,23226
32-11,48924156,22797
32-12,48928062,-6520
32-13,48931968,-32768
32-14,48935874,-18774
32-15,48939780,16206
32-16,48943686,24455
32-17,48947592,19922
32-18,48951498,25114
32-19,48955404,17238
32-20,48959310,-19904
32-21,48963216,-32768
32-22,48967122,-12521
32-23,48971028,18761
32-24,48974934,22994
32-25,48978840,20833
32-26,48982746,26163
32-27,48986652,5818
32-28,48990558,-27996
32-29,48994464,-32768
32-30,48998370,-28012
32-31,49002276,-1231
32-32,49006182,20508
32-1,49010093,25211
32-2,49013999,22019
32-3,49017905,-6658
32-4,49021811,-32759
32-5,49025717,-32350
32-6,49029623,-26098
32-7,49033529,179
32-8,49037435,21591
32-9,49041341,26193
32-10,49045247,17871
32-11,49049153,-17896
32-12,49053059,-32220
32-13,49056965,-6419
32-14,49060871,22741
32-15,49064777,23500
32-16,49068683,21174
32-17,49072589,26859
32-18,49076495,9726
32-19,49080401,-28741
32-20,49084307,-32681
32-21,49088213,-2115
32-22,49092119,22940
32-23,49096025,21763
32-24,49099931,22528
32-25,49103837,24856
32-26,49107743,-3791
32-27,49111649,-32768
32-28,49115555,-32359
32-29,49119461,-17631
32-30,49123367,4813
32-31,49127273,20931
32-32,49131179,27170
32-1,49135213,17700
32-2,49139119,-15206
32-3,49143025,-32429
32-4,49146931,-32024
32-5,49150837,-18292
32-6,49154743,10090
32-7,49158649,26275
32-8,49162555,22780
32-9,49166461,17491
32-10,49170367,18514
32-11,49174273,22761
32-12,49178179,22457
32-13,49182085,22599
32-14,49185991,21106
32-15,49189897,22088
32-16,49193803,24653
32-17,49197709,-1690
32-18,49201615,-32768
32-19,49205521,-32768
32-20,49209427,-31766
32-21,49213333,-27309
32-22,49217239,-1948
32-23,49221145,24940
32-24,49225051,21744
32-25,49228957,-16376
32-26,49232863,-31977
32-27,49236769,-4225
32-28,49240675,19275
32-29,49244581,17969
32-30,49248487,18761
32-31,49252393,27373
32-32,49256299,11047
32-1,49260089,-23960
32-2,49263995,-32407
32-3,49267901,-31256
32-4,49271807,-11130
32-5,49275713,15707
32-6,49279619,24972
32-7,49283525,24706
32-8,49287431,916
32-9,49291337,-32303
32-10,49295243,-23981
32-11,49299149,12894
32-12,49303055,25681
32-13,49306961,20723
32-14,49310867,24557
32-15,49314773,22119
32-16,49318679,-12076
32-17,49322585,-32768
32-18,49326491,-16913
32-19,49330397,17062
32-20,49334303,24394
32-21,49338209,20233
32-22,49342115,25715
32-23,49346021,13835
32-24,49349927,-25230
32-25,49353833,-32768
32-26,49357739,-4551
32-27,49361645,21250
32-28,49365551,18149
32-29,49369457,17100
32-30,49373363,22925
32-31,49377269,691
32-32,49381175,-30528
32-1,49385208,-32768
32-2,49389114,-25222
32-3,49393020,2906
32-4,49396926,21840
32-5,49400832,24452
32-6,49404738,21336
32-7,49408644,-10556
32-8,49412550,-32768
32-9,49416456,-14134
32-10,49420362,18995
32-11,49424268,23629
32-12,49428174,20000
32-13,49432080,25850
32-14,49435986,14392
32-15,49439892,-22832
32-16,49443798,-32768
32-17,49447704,-13588
32-18,49451610,17551
32-19,49455516,23546
32-20,49459422,20928
32-21,49463328,25635
32-22,49467234,3312
32-23,49471140,-32768
32-24,49475046,-25979
32-25,49478952,11082
32-26,49482858,25397
32-27,49486764,18704
32-28,49490670,21293
32-29,49494576,16454
32-30,49498482,-15815
32-31,49502388,-32768
32-32,49506294,-32359
32-1,49510084,-24859
32-2,49513990,2955
32-3,49517896,22278
32-4,49521802,26146
32-5,49525708,15304
32-6,49529614,-22431
32-7,49533520,-32172
32-8,49537426,3501
32-9,49541332,25443
32-10,49545238,21644
32-11,49549144,21977
32-12,49553050,26447
32-13,49556956,5195
32-14,49560862,-31244
32-15,49564768,-32712
32-16,49568674,-3842
32-17,49572580,21507
32-18,49576486,21924
32-19,49580392,22403
32-20,49584298,23130
32-21,49588204,-7603
32-22,49592110,-32768
32-23,49596016,-22284
32-24,49599922,12853
32-25,49603828,23971
32-26,49607734,20995
32-27,49611640,24801
32-28,49615546,10253
32-29,49619452,-22582
32-30,49623358,-32768
32-31,49627264,-29819
32-32,49631170,-3903
32-1,49635081,19178
32-2,49638987,23610
32-3,49642893,24375
32-4,49646799,4672
32-5,49650705,-30269
32-6,49654611,-32459
32-7,49658517,-12601
32-8,49662423,16814
32-9,49666329,23361
32-10,49670235,22484
32-11,49674141,23455
32-12,49678047,-5395
32-13,49681953,-32768
32-14,49685859,-24841
32-15,49689765,10395
32-16,49693671,24432
32-17,49697577,20340
32-18,49701483,24806
32-19,49705389,18051
32-20,49709295,-19388
32-21,49713201,-32768
32-22,49717107,-11842
32-23,49721013,19220
32-24,49724919,22636
32-25,49728825,20334
32-26,49732731,25882
32-27,49736637,5998
32-28,49740543,-27780
32-29,49744449,-32768
32-30,49748355,-27443
32-31,49752261,-15
32-32,49756167,20744
32-1,49760232,25039
32-2,49764138,22193
32-3,49768044,-6550
32-4,49771950,-32768
32-5,49775856,-32359
32-6,49779762,-24749
32-7,49783668,3166
32-8,49787574,22710
32-9,49791480,25827
32-10,49795386,18505
32-11,49799292,-17238
32-12,49803198,-32309
32-13,49807104,-6827
32-14,49811010,22494
32-15,49814916,23243
32-16,49818822,20808
32-17,49822728,26546
32-18,49826634,9311
32-19,49830540,-29132
32-20,49834446,-32738
32-21,49838352,-1819
32-22,49842258,22695
32-23,49846164,21349
32-24,49850070,22094
32-25,49853976,24455
32-26,49857882,-3983
32-27,49861788,-32768
32-28,49865694,-32359
32-29,49869600,-17760
32-30,49873506,4413
32-31,49877412,20826
32-32,49881318,27417
32-1,49885077,17629
32-2,49888983,-15426
32-3,49892889,-32421
32-4,49896795,-32016
32-5,49900701,-14738
32-6,49904607,13946
32-7,49908513,24768
32-8,49912419,26056
32-9,49916325,11442
32-10,49920231,-27253
32-11,49924137,-32046
32-12,49928043,3209
32-13,49931949,25160
32-14,49935855,22326
32-15,49939761,23177
32-16,49943667,26506
32-17,49947573,-350
32-18,49951479,-32768
32-19,49955385,-27217
32-20,49959291,8470
32-21,49963197,25162
32-22,49967103,21054
32-23,49971009,24874
32-24,49974915,20944
32-25,49978821,-15054
32-26,49982727,-32768
32-27,49986633,-17784
32-28,49990539,6610
32-29,49994445,15366
32-30,49998351,20379
32-31,50002257,22448
32-32,50006163,17123
32-1,50010074,16688
32-2,50013980,21758
32-3,50017886,21865
32-4,50021792,20945
32-5,50025698,20430
32-6,50029604,22174
32-7,50033510,19731
32-8,50037416,9246
32-9,50041322,11737
32-10,50045228,20265
32-11,50049134,19091
32-12,50053040,18219
32-13,50056946,16531
32-14,50060852,19837
32-15,50064758,16023
32-16,50068664,-16370
32-17,50072570,-32768
32-18,50076476,-32359
32-19,50080382,-29482
32-20,50084288,-31587
32-21,50088194,-31192
32-22,50092100,-15455
32-23,50096006,-4531
32-24,50099912,-25598
32-25,50103818,-18461
32-26,50107724,16668
32-27,50111630,24322
32-28,50115536,14946
32-29,50119442,17173
32-30,50123348,22554
32-31,50127254,390
32-32,50131160,-29150
32-1,50135225,-30842
32-2,50139131,-29345
32-3,50143037,-11787
32-4,50146943,15257
32-5,50150849,27356
32-6,50154755,22346
32-7,50158661,-9572
32-8,50162567,-30637
32-9,50166473,-12842
32-10,50170379,20453
32-11,50174285,25594
32-12,50178191,21677
32-13,50182097,27382
32-14,50186003,16127
32-15,50189909,-20767
32-16,50193815,-31226
32-17,50197721,-12755
32-18,50201627,17830
32-19,50205533,24499
32-20,50209439,22675
32-21,50213345,26504
32-22,50217251,5175
32-23,50221157,-31439
32-24,50225063,-31494
32-25,50228969,1209
32-26,50232875,24066
32-27,50236781,20834
32-28,50240687,21103
32-29,50244593,16661
32-30,50248499,-14587
32-31,50252405,-31969
32-32,50256311,-31570
32-1,50260070,-18986
32-2,50263976,10272
32-3,50267882,24130
32-4,50271788,25755
32-5,50275694,16435
32-6,50279600,-20768
32-7,50283506,-31638
32-8,50287412,-3365
32-9,50291318,23564
32-10,50295224,23125
32-11,50299130,21826
32-12,50303036,26617
32-13,50306942,6067
32-14,50310848,-30853
32-15,50314754,-32082
32-16,50318660,-1012
32-17,50322566,22902
32-18,50326472,22055
32-19,50330378,22926
32-20,50334284,23948
32-21,50338190,-6903
32-22,50342096,-32733
32-23,50346002,-21147
32-24,50349908,14048
32-25,50353814,23694
32-26,50357720,20131
32-27,50361626,24589
32-28,50365532,10299
32-29,50369438,-22594
32-30,50373344,-32768
32-31,50377250,-32359
32-32,50381156,-14964
32-1,50385067,13476
32-2,50388973,23778
32-3,50392879,24788
32-4,50396785,6795
32-5,50400691,-30719
32-6,50404597,-29873
32-7,50408503,6739
32-8,50412409,24918
32-9,50416315,20873
32-10,50420221,23136
32-11,50424127,23626
32-12,50428033,-5525
32-13,50431939,-32768
32-14,50435845,-28496
32-15,50439751,5194
32-16,50443657,23584
32-17,50447563,20688
32-18,50451469,24082
32-19,50455375,18225
32-20,50459281,-19906
32-21,50463187,-32768
32-22,50467093,-5683
32-23,50470999,22462
32-24,50474905,21984
32-25,50478811,20406
32-26,50482717,26155
32-27,50486623,6274
32-28,50490529,-27362
32-29,50494435,-32768
32-30,50498341,-26823
32-31,50502247,1895
32-32,50506153,21487
32-1,50510065,24230
32-2,50513971,21710
32-3,50517877,-5413
32-4,50521783,-32768
32-5,50525689,-32359
32-6,50529595,-17524
32-7,50533501,11520
32-8,50537407,23322
32-9,50541313,24269
32-10,50545219,18432
32-11,50549125,-16293
32-12,50553031,-32503
32-13,50556937,-14615
32-14,50560843,17589
32-15,50564749,23843
32-16,50568655,20540
32-17,50572561,25855
32-18,50576467,9853
32-19,50580373,-28842
32-20,50584279,-32768
32-21,50588185,-1768
32-22,50592091,22829
32-23,50595997,21532
32-24,50599903,22300
32-25,50603809,24633
32-26,50607715,-3655
32-27,50611621,-32768
32-28,50615527,-32359
32-29,50619433,-17467
32-30,50623339,4507
32-31,50627245,20366
32-32,50631151,26903
32-1,50635063,17632
32-2,50638969,-15107
32-3,50642875,-32417
32-4,50646781,-32012
32-5,50650687,-14534
32-6,50654593,13945
32-7,50658499,24016
32-8,50662405,26161
32-9,50666311,11581
32-10,50670217,-27574
32-11,50674123,-27230
32-12,50678029,10832
32-13,50681935,26201
32-14,50685841,20780
32-15,50689747,23128
32-16,50693653,25251
32-17,50697559,-752
32-18,50701465,-32768
32-19,50705371,-31665
32-20,50709277,1238
32-21,50713183,23011
32-22,50717089,21352
32-23,50720995,23872
32-24,50724901,20875
32-25,50728807,-14592
32-26,50732713,-32768
32-27,50736619,-18912
32-28,50740525,6214
32-29,50744431,15195
32-30,50748337,18426
32-31,50752243,26267
32-32,50756149,10369
32-1,50760060,-24618
32-2,50763966,-32768
32-3,50767872,-32069
32-4,50771778,-11918
32-5,50775684,15733
32-6,50779590,25034
32-7,50783496,24691
32-8,50787402,961
32-9,50791308,-32641
32-10,50795214,-24782
32-11,50799120,11972
32-12,50803026,25187
32-13,50806932,20604
32-14,50810838,24551
32-15,50814744,21717
32-16,50818650,-12555
32-17,50822556,-32768
32-18,50826462,-18253
32-19,50830368,15607
32-20,50834274,24124
32-21,50838180,20170
32-22,50842086,25605
32-23,50845992,13823
32-24,50849898,-25097
32-25,50853804,-32768
32-26,50857710,-5879
32-27,50861616,20521
32-28,50865522,18301
32-29,50869428,16984
32-30,50873334,22563
32-31,50877240,21
32-32,50881146,-30738
32-1,50885241,-32768
32-2,50889147,-26406
32-3,50893053,1016
32-4,50896959,21434
32-5,50900865,24652
32-6,50904771,20957
32-7,50908677,-10687
32-8,50912583,-32748
32-9,50916489,-15252
32-10,50920395,18272
32-11,50924301,24031
32-12,50928207,20158
32-13,50932113,25939
32-14,50936019,14646
32-15,50939925,-23733
32-16,50943831,-32768
32-17,50947737,-8211
32-18,50951643,20591
32-19,50955549,22535
32-20,50959455,20914
32-21,50963361,25548
32-22,50967267,3366
32-23,50971173,-32768
32-24,50975079,-31044
32-25,50978985,4024
32-26,50982891,24491
32-27,50986797,19839
32-28,50990703,21106
32-29,50994609,17260
32-30,50998515,-14998
32-31,51002421,-32768
32-32,51006327,-32359
32-1,51010116,-25879
32-2,51014022,165
32-3,51017928,21160
32-4,51021834,26013
32-5,51025740,14842
32-6,51029646,-21933
32-7,51033552,-32136
32-8,51037458,-2286
32-9,51041364,23979
32-10,51045270,22624
32-11,51049176,21320
32-12,51053082,26497
32-13,51056988,5881
32-14,51060894,-31702
32-15,51064800,-32223
32-16,51068706,2516
32-17,51072612,24005
32-18,51076518,21279
32-19,51080424,22902
32-20,51084330,23310
32-21,51088236,-6736
32-22,51092142,-32768
32-23,51096048,-26642
32-24,51099954,7251
32-25,51103860,23187
32-26,51107766,21614
32-27,51111672,24667
32-28,51115578,10026
32-29,51119484,-23387
32-30,51123390,-32768
32-31,51127296,-32359
32-32,51131202,-18903
32-1,51135053,9736
32-2,51138959,23828
32-3,51142865,25493
32-4,51146771,6914
32-5,51150677,-30426
32-6,51154583,-29354
32-7,51158489,7509
32-8,51162395,25415
32-9,51166301,21028
32-10,51170207,23083
32-11,51174113,24667
32-12,51178019,-4886
32-13,51181925,-32768
32-14,51185831,-23657
32-15,51189737,12522
32-16,51193643,24377
32-17,51197549,19972
32-18,51201455,26668
32-19,51205361,15143
32-20,51209267,-10615
32-21,51213173,2827
32-22,51217079,24688
32-23,51220985,22141
32-24,51224891,19025
32-25,51228797,20605
32-26,51232703,24255
32-27,51236609,5688
32-28,51240515,-29639
32-29,51244421,-32768
32-30,51248327,-31415
32-31,51252233,-30186
32-32,51256139,-7825
32-1,51260051,21256
32-2,51263957,24495
32-3,51267863,-5654
32-4,51271769,-31994
32-5,51275675,-27959
32-6,51279581,4917
32-7,51283487,23766
32-8,51287393,21453
32-9,51291299,24515
32-10,51295205,19756
32-11,51299111,-16074
32-12,51303017,-32227
32-13,51306923,-14253
32-14,51310829,17948
32-15,51314735,23841
32-16,51318641,20818
32-17,51322547,26007
32-18,51326453,10151
32-19,51330359,-27205
32-20,51334265,-32544
32-21,51338171,-9191
32-22,51342077,19156
32-23,51345983,22205
32-24,51349889,21684
32-25,51353795,24090
32-26,51357701,-2919
32-27,51361607,-32768
32-28,51365513,-32359
32-29,51369419,-11647
32-30,51373325,9462
32-31,51377231,20461
32-32,51381137,26137
32-1,51385048,18048
32-2,51388954,-15088
32-3,51392860,-32548
32-4,51396766,-32142
32-5,51400672,-20439
32-6,51404578,8209
32-7,51408484,23563
32-8,51412390,26123
32-9,51416296,11202
32-10,51420202,-27086
32-11,51424108,-28560
32-12,51428014,8933
32-13,51431920,25860
32-14,51435826,20872
32-15,51439732,22938
32-16,51443638,25276
32-17,51447544,-404
32-18,51451450,-32768
32-19,51455356,-31707
32-20,51459262,1173
32-21,51463168,23041
32-22,51467074,21292
32-23,51470980,23686
32-24,51474886,21334
32-25,51478792,-14537
32-26,51482698,-32768
32-27,51486604,-14040
32-28,51490510,12072
32-29,51494416,17135
32-30,51498322,18358
32-31,51502228,26548
32-32,51506134,10996
32-1,51510046,-24222
32-2,51513952,-32768
32-3,51517858,-32217
32-4,51521764,-13189
32-5,51525670,13774
32-6,51529576,26402
32-7,51533482,24139
32-8,51537388,-1361
32-9,51541294,-11029
32-10,51545200,15632
32-11,51549106,26332
32-12,51553012,20443
32-13,51556918,19791
32-14,51560824,25573
32-15,51564730,17576
32-16,51568636,-10262
32-17,51572542,-4393
32-18,51576448,21664
32-19,51580354,22289
32-20,51584260,17984
32-21,51588166,19090
32-22,51592072,23159
32-23,51595978,9686
32-24,51599884,-25701
32-25,51603790,-32768
32-26,51607696,-30901
32-27,51611602,-30836
32-28,51615508,-31588
32-29,51619414,-24750
32-30,51623320,-5217
32-31,51627226,-5199
32-32,51631132,-28207
32-1,51635440,-30403
32-2,51639346,-14761
32-3,51643252,14581
32-4,51647158,24270
32-5,51651064,24926
32-6,51654970,23256
32-7,51658876,-7911
32-8,51662782,-30830
32-9,51666688,-19718
32-10,51670594,14475
32-11,51674500,26286
32-12,51678406,22646
32-13,51682312,27441
32-14,51686218,17047
32-15,51690124,-21388
32-16,51694030,-31281
32-17,51697936,-7548
32-18,51701842,21693
32-19,51705748,24397
32-20,51709654,22562
32-21,51713560,26972
32-22,51717466,4929
32-23,51721372,-31959
32-24,51725278,-30888
32-25,51729184,3497
32-26,51733090,24701
32-27,51736996,20645
32-28,51740902,21582
32-29,51744808,17791
32-30,51748714,-14369
32-31,51752620,-32195
32-32,51756526,-31793
32-1,51760041,-25789
32-2,51763947,-232
32-3,51767853,21584
32-4,51771759,27458
32-5,51775665,16273
32-6,51779571,-21037
32-7,51783477,-31626
32-8,51787383,-1879
32-9,51791289,24573
32-10,51795195,23482
32-11,51799101,22127
32-12,51803007,27219
32-13,51806913,6518
32-14,51810819,-31234
32-15,51814725,-31694
32-16,51818631,3047
32-17,51822537,24586
32-18,51826443,21991
32-19,51830349,23514
32-20,51834255,24149
32-21,51838161,-6801
32-22,51842067,-32768
32-23,51845973,-22604
32-24,51849879,12603
32-25,51853785,24007
32-26,51857691,21030
32-27,51861597,24393
32-28,51865503,10582
32-29,51869409,-21960
32-30,51873315,-32768
32-31,51877221,-27438
32-32,51881127,2352
32-1,51885039,22177
32-2,51888945,22910
32-3,51892851,24839
32-4,51896757,5994
32-5,51900663,-29545
32-6,51904569,-32627
32-7,51908475,-14728
32-8,51912381,14896
32-9,51916287,23292
32-10,51920193,22641
32-11,51924099,23335
32-12,51928005,-5233
32-13,51931911,-32768
32-14,51935817,-24654
32-15,51939723,10718
32-16,51943629,24776
32-17,51947535,20651
32-18,51951441,24878
32-19,51955347,18265
32-20,51959253,-18744
32-21,51963159,-32768
32-22,51967065,-13314
32-23,51970971,18451
32-24,51974877,23173
32-25,51978783,20628
32-26,51982689,26160
32-27,51986595,6779
32-28,51990501,-27286
32-29,51994407,-32768
32-30,51998313,-28040
32-31,52002219,-989
32-32,52006125,20612
32-1,52010037,25082
32-2,52013943,22137
32-3,52017849,-5315
32-4,52021755,-32768
32-5,52025661,-32359
32-6,52029567,-20465
32-7,52033473,9416
32-8,52037379,23913
32-9,52041285,24782
32-10,52045191,19430
32-11,52049097,-15775
32-12,52053003,-32473
32-13,52056909,-9354
32-14,52060815,21285
32-15,52064721,23746
32-16,52068627,20998
32-17,52072533,26992
32-18,52076439,11085
32-19,52080345,-27901
32-20,52084251,-32768
32-21,52088157,-2399
32-22,52092063,22932
32-23,52095969,21892
32-24,52099875,22272
32-25,52103781,25099
32-26,52107687,-2486
32-27,52111593,-32768
32-28,52115499,-32359
32-29,52119405,-18042
32-30,52123311,4155
32-31,52127217,20591
32-32,52131123,27193
32-1,52135034,18509
32-2,52138940,-13889
32-3,52142846,-32438
32-4,52146752,-32033
32-5,52150658,-15127
32-6,52154564,13580
32-7,52158470,24787
32-8,52162376,25774
32-9,52166282,12310
32-10,52170188,-25070
32-11,52174094,-32088
32-12,52178000,-5342
32-13,52181906,21530
32-14,52185812,23302
32-15,52189718,22534
32-16,52193624,25919
32-17,52197530,562
32-18,52201436,-32768
32-19,52205342,-27469
32-20,52209248,8808
32-21,52213154,25339
32-22,52217060,20641
32-23,52220966,24278
32-24,52224872,21573
32-25,52228778,-13752
32-26,52232684,-32768
32-27,52236590,-18487
32-28,52240496,7243
32-29,52244402,16417
32-30,52248308,19460
32-31,52252214,26934
32-32,52256120,12088
32-1,52260032,-23201
32-2,52263938,-32768
32-3,52267844,-30577
32-4,52271750,-6333
32-5,52275656,19040
32-6,52279562,24525
32-7,52283468,24787
32-8,52287374,2318
32-9,52291280,-32768
32-10,52295186,-25701
32-11,52299092,11274
32-12,52302998,25132
32-13,52306904,20348
32-14,52310810,24014
32-15,52314716,21541
32-16,52318622,-11114
32-17,52322528,-32768
32-18,52326434,-23712
32-19,52330340,10372
32-20,52334246,24436
32-21,52338152,20914
32-22,52342058,25477
32-23,52345964,14827
32-24,52349870,-25125
32-25,52353776,-32768
32-26,52357682,601
32-27,52361588,23361
32-28,52365494,17835
32-29,52369400,17347
32-30,52373306,22961
32-31,52377212,1027
32-32,52381118,-30011
32-1,52385243,-32768
32-2,52389149,-24837
32-3,52393055,6673
32-4,52396961,23867
32-5,52400867,25305
32-6,52404773,24320
32-7,52408679,-10336
32-8,52412585,-27478
32-9,52416491,9174
32-10,52420397,28690
32-11,52424303,21848
32-12,52428209,21380
32-13,52432115,26474
32-14,52436021,16627
32-15,52439927,-21958
32-16,52443833,-32768
32-17,52447739,-2923
32-18,52451645,25111
32-19,52455551,22768
32-20,52459457,20525
32-21,52463363,27306
32-22,52467269,4901
32-23,52471175,-32768
32-24,52475081,-21654
32-25,52478987,17723
32-26,52482893,26449
32-27,52486799,18786
32-28,52490705,23514
32-29,52494611,19139
32-30,52498517,-11279
32-31,52502423,-32768
32-32,52506329,-32359
32-1,52510027,-7833
32-2,52513933,20341
32-3,52517839,22827
32-4,52521745,24268
32-5,52525651,17148
32-6,52529557,-22829
32-7,52533463,-31707
32-8,52537369,5739
32-9,52541275,25388
32-10,52545181,20007
32-11,52549087,20391
32-12,52552993,25365
32-13,52556899,5193
32-14,52560805,-32269
32-15,52564711,-32768
32-16,52568617,2657
32-17,52572523,23895
32-18,52576429,19987
32-19,52580335,21297
32-20,52584241,22732
32-21,52588147,-7779
32-22,52592053,-32768
32-23,52595959,-20873
32-24,52599865,14469
32-25,52603771,23072
32-26,52607677,19374
32-27,52611583,23626
32-28,52615489,9763
32-29,52619395,-22198
32-30,52623301,-32768
32-31,52627207,-29906
32-32,52631113,-3570
32-1,52635025,18446
32-2,52638931,21846
32-3,52642837,22960
32-4,52646743,3830
32-5,52650649,-29582
32-6,52654555,-32412
32-7,52658461,-18117
32-8,52662367,11004
32-9,52666273,21695
32-10,52670179,21347
32-11,52674085,21376
32-12,52677991,-5604
32-13,52681897,-32656
32-14,52685803,-28712
32-15,52689709,3162
32-16,52693615,21756
32-17,52697521,19192
32-18,52701427,21703
32-19,52705333,17218
32-20,52709239,-19887
32-21,52713145,-32681
32-22,52717051,-3041
32-23,52720957,24965
32-24,52724863,22479
32-25,52728769,20584
32-26,52732675,26039
32-27,52736581,9152
32-28,52740487,-27323
32-29,52744393,-32768
32-30,52748299,-9846
32-31,52752205,20560
32-32,52756111,22634
32-1,52760022,22266
32-2,52763928,23386
32-3,52767834,-4009
32-4,52771740,-32768
32-5,52775646,-32359
32-6,52779552,-6285
32-7,52783458,21727
32-8,52787364,22534
32-9,52791270,23342
32-10,52795176,20790
32-11,52799082,-17527
32-12,52802988,-32764
32-13,52806894,-399
32-14,52810800,25354
32-15,52814706,21634
32-16,52818612,19920
32-17,52822518,25974
32-18,52826424,9525
32-19,52830330,-29468
32-20,52834236,-32768
32-21,52838142,3633
32-22,52842048,24615
32-23,52845954,19589
32-24,52849860,21106
32-25,52853766,23338
32-26,52857672,-3726
32-27,52861578,-32768
32-28,52865484,-32359
32-29,52869390,-11818
32-30,52873296,11195
32-31,52877202,20414
32-32,52881108,24409
32-1,52885020,16568
32-2,52888926,-15150
32-3,52892832,-32527
32-4,52896738,-32120
32-5,52900644,-9158
32-6,52904550,17994
32-7,52908456,22453
32-8,52912362,23700
32-9,52916268,11309
32-10,52920174,-27564
32-11,52924080,-32170
32-12,52927986,4156
32-13,52931892,24029
32-14,52935798,19735
32-15,52939704,20926
32-16,52943610,24208
32-17,52947516,-1019
32-18,52951422,-32768
32-19,52955328,-29484
32-20,52959234,5143
32-21,52963140,22916
32-22,52967046,19060
32-23,52970952,22714
32-24,52974858,19733
32-25,52978764,-14410
32-26,52982670,-32768
32-27,52986576,-23624
32-28,52990482,-1956
32-29,52994388,9656
32-30,52998294,16056
32-31,53002200,24505
32-32,53006106,9331
32-1,53010018,-25480
32-2,53013924,-32468
32-3,53017830,-31995
32-4,53021736,-23480
32-5,53025642,874
32-6,53029548,20964
32-7,53033454,24853
32-8,53037360,316
32-9,53041266,-31958
32-10,53045172,-24786
32-11,53049078,11421
32-12,53052984,24919
32-13,53056890,20098
32-14,53060796,23817
32-15,53064702,21785
32-16,53068608,-11023
32-17,53072514,-32389
32-18,53076420,-19389
32-19,53080326,14657
32-20,53084232,23743
32-21,53088138,19650
32-22,53092044,24834
32-23,53095950,14075
32-24,53099856,-24030
32-25,53103762,-32656
32-26,53107668,-7262
32-27,53111574,19683
32-28,53115480,17870
32-29,53119386,16164
32-30,53123292,22522
32-31,53127198,985
32-32,53131104,-30126
32-1,53135229,-32749
32-2,53139135,-28762
32-3,53143041,-4591
32-4,53146947,18737
32-5,53150853,24496
32-6,53154759,20584
32-7,53158665,-10063
32-8,53162571,-32596
32-9,53166477,-15795
32-10,53170383,17864
32-11,53174289,23652
32-12,53178195,19482
32-13,53182101,25065
32-14,53186007,15079
32-15,53189913,-22701
32-16,53193819,-32768
32-17,53197725,-8376
32-18,53201631,20532
32-19,53205537,22046
32-20,53209443,19889
32-21,53213349,24799
32-22,53217255,4117
32-23,53221161,-32768
32-24,53225067,-31948
32-25,53228973,3254
32-26,53232879,23663
32-27,53236785,18675
32-28,53240691,19815
32-29,53244597,16173
32-30,53248503,-15513
32-31,53252409,-32768
32-32,53256315,-32359
32-1,53260013,-26110
32-2,53263919,82
32-3,53267825,20853
32-4,53271731,25382
32-5,53275637,15038
32-6,53279543,-21294
32-7,53283449,-32132
32-8,53287355,-2990
32-9,53291261,23453
32-10,53295167,21969
32-11,53299073,20618
32-12,53302979,25576
32-13,53306885,6025
32-14,53310791,-30414
32-15,53314697,-32536
32-16,53318603,-4709
32-17,53322509,21340
32-18,53326415,21999
32-19,53330321,21939
32-20,53334227,23690
32-21,53338133,-7019
32-22,53342039,-32768
32-23,53345945,-17576
32-24,53349851,17072
32-25,53353757,23509
32-26,53357663,19959
32-27,53361569,24964
32-28,53365475,10706
32-29,53369381,-22157
32-30,53373287,-32768
32-31,53377193,-32359
32-32,53381099,-16548
32-1,53385010,12084
32-2,53388916,23889
32-3,53392822,24441
32-4,53396728,7218
32-5,53400634,-29338
32-6,53404540,-32229
32-7,53408446,-1552
32-8,53412352,22388
32-9,53416258,21702
32-10,53420164,22379
32-11,53424070,24290
32-12,53427976,-4459
32-13,53431882,-32768
32-14,53435788,-25381
32-15,53439694,9795
32-16,53443600,24204
32-17,53447506,20162
32-18,53451412,24393
32-19,53455318,18366
32-20,53459224,-18310
32-21,53463130,-32768
32-22,53467036,-13787
32-23,53470942,17884
32-24,53474848,22738
32-25,53478754,20278
32-26,53482660,25796
32-27,53486566,6965
32-28,53490472,-27043
32-29,53494378,-32768
32-30,53498284,-26638
32-31,53502190,717
32-32,53506096,21071
32-1,53510008,25134
32-2,53513914,19188
32-3,53517820,3345
32-4,53521726,7011
32-5,53525632,22411
32-6,53529538,21861
32-7,53533444,19998
32-8,53537350,19484
32-9,53541256,23372
32-10,53545162,16432
32-11,53549068,-18728
32-12,53552974,-32768
32-13,53556880,-30799
32-14,53560786,-31925
32-15,53564692,-28312
32-16,53568598,-945
32-17,53572504,26111
32-18,53576410,10782
32-19,53580316,-28818
32-20,53584222,-27933
32-21,53588128,7014
32-22,53592034,24671
32-23,53595940,20767
32-24,53599846,23085
32-25,53603752,25299
32-26,53607658,-2928
32-27,53611564,-32190
32-28,53615470,-31788
32-29,53619376,-23882
32-30,53623282,-2454
32-31,53627188,19439
32-32,53631094,27853
32-1,53635006,18544
32-2,53638912,-13725
32-3,53642818,-31715
32-4,53646724,-31318
32-5,53650630,-19426
32-6,53654536,9110
32-7,53658442,24649
32-8,53662348,26784
32-9,53666254,12498
32-10,53670160,-25505
32-11,53674066,-31281
32-12,53677972,2481
32-13,53681878,24328
32-14,53685784,23419
32-15,53689690,23825
32-16,53693596,22683
32-17,53697502,16877
32-18,53701408,19587
32-19,53705314,23362
32-20,53709220,22237
32-21,53713126,22591
32-22,53717032,20026
32-23,53720938,23551
32-24,53724844,19393
32-25,53728750,-13572
32-26,53732656,-32768
32-27,53736562,-32359
32-28,53740468,-28930
32-29,53744374,-31594
32-30,53748280,-29092
32-31,53752186,1670
32-32,53756092,10348
32-1,53760003,-21769
32-2,53763909,-30715
32-3,53767815,-21157
32-4,53771721,7992
32-5,53775627,24185
32-6,53779533,24521
32-7,53783439,26277
32-8,53787345,3955
32-9,53791251,-31155
32-10,53795157,-29003
32-11,53799063,5375
32-12,53802969,25623
32-13,53806875,23136
32-14,53810781,25462
32-15,53814687,23651
32-16,53818593,-9913
32-17,53822499,-31572
32-18,53826405,-19066
32-19,53830311,15466
32-20,53834217,25226
32-21,53838123,19738
32-22,53842029,25321
32-23,53845935,15752
32-24,53849841,-22974
32-25,53853747,-31924
32-26,53857653,-6543
32-27,53861559,20836
32-28,53865465,19826
32-29,53869371,18083
32-30,53873277,24167
32-31,53877183,2183
32-32,53881089,-29518
32-1,53885184,-32141
32-2,53889090,-28064
32-3,53892996,-4273
32-4,53896902,19498
32-5,53900808,26258
32-6,53904714,22265
32-7,53908620,-9112
32-8,53912526,-32074
32-9,53916432,-15050
32-10,53920338,18880
32-11,53924244,25041
32-12,53928150,21127
32-13,53932056,26757
32-14,53935962,16384
32-15,53939868,-20852
32-16,53943774,-32579
32-17,53947680,-14184
32-18,53951586,16951
32-19,53955492,23780
32-20,53959398,21401
32-21,53963304,25876
32-22,53967210,5579
32-23,53971116,-32358
32-24,53975022,-31785
32-25,53978928,3696
32-26,53982834,24393
32-27,53986740,19515
32-28,53990646,20600
32-29,53994552,17388
32-30,53998458,-14511
32-31,54002364,-32768
32-32,54006270,-32359
32-1,54009999,-26278
32-2,54013905,-653
32-3,54017811,21083
32-4,54021717,26604
32-5,54025623,16306
32-6,54029529,-20458
32-7,54033435,-32165
32-8,54037341,-2711
32-9,54041247,23295
32-10,54045153,23168
32-11,54049059,22933
32-12,54052965,23147
32-13,54056871,17763
32-14,54060777,18810
32-15,54064683,22797
32-16,54068589,21894
32-17,54072495,22155
32-18,54076401,19850
32-19,54080307,21949
32-20,54084213,22193
32-21,54088119,-7135
32-22,54092025,-32768
32-23,54095931,-32359
32-24,54099837,-30179
32-25,54103743,-31578
32-26,54107649,-10351
32-27,54111555,19482
32-28,54115461,10726
32-29,54119367,-22941
32-30,54123273,-31146
32-31,54127179,-21645
32-32,54131085,8004
32-1,54134996,23779
32-2,54138902,23209
32-3,54142808,26497
32-4,54146714,7848
32-5,54150620,-26962
32-6,54154526,-31269
32-7,54158432,-19020
32-8,54162338,11297
32-9,54166244,24695
32-10,54170150,24144
32-11,54174056,25420
32-12,54177962,-2402
32-13,54181868,-31682
32-14,54185774,-19350
32-15,54189680,16403
32-16,54193586,25790
32-17,54197492,21093
32-18,54201398,26237
32-19,54205304,19693
32-20,54209210,-15787
32-21,54213116,-32215
32-22,54217022,-19276
32-23,54220928,13797
32-24,54224834,24426
32-25,54228740,22204
32-26,54232646,26798
32-27,54236552,9113
32-28,54240458,-25939
32-29,54244364,-32455
32-30,54248270,-25087
32-31,54252176,4143
32-32,54256082,22294
32-1,54259994,24609
32-2,54263900,23532
32-3,54267806,-4081
32-4,54271712,-32619
32-5,54275618,-32212
32-6,54279524,-25767
32-7,54283430,1072
32-8,54287336,22024
32-9,54291242,26461
32-10,54295148,20023
32-11,54299054,-15896
32-12,54302960,-32160
32-13,54306866,-2523
32-14,54310772,24805
32-15,54314678,23264
32-16,54318584,21380
32-17,54322490,26938
32-18,54326396,10917
32-19,54330302,-26484
32-20,54334208,-32739
32-21,54338114,-9349
32-22,54342020,19622
32-23,54345926,22960
32-24,54349832,22378
32-25,54353738,25245
32-26,54357644,-1673
32-27,54361550,-32768
32-28,54365456,-32359
32-29,54369362,-18525
32-30,54373268,3481
32-31,54377174,20483
32-32,54381080,27571
32-1,54384992,19086
32-2,54388898,-13938
32-3,54392804,-32434
32-4,54396710,-32028
32-5,54400616,-19527
32-6,54404522,9318
32-7,54408428,24452
32-8,54412334,27277
32-9,54416240,12860
32-10,54420146,-26099
32-11,54424052,-28175
32-12,54427958,9539
32-13,54431864,26627
32-14,54435770,21640
32-15,54439676,23502
32-16,54443582,26216
32-17,54447488,954
32-18,54451394,-32768
32-19,54455300,-32194
32-20,54459206,515
32-21,54463112,23379
32-22,54467018,22346
32-23,54470924,24578
32-24,54474830,22487
32-25,54478736,-12758
32-26,54482642,-32768
32-27,54486548,-19460
32-28,54490454,5721
32-29,54494360,15607
32-30,54498266,19020
32-31,54502172,26796
32-32,54506078,12048
32-1,54509989,-23546
32-2,54513895,-32768
32-3,54517801,-32359
32-4,54521707,-13831
32-5,54525613,14450
32-6,54529519,25371
32-7,54533425,25276
32-8,54537331,2470
32-9,54541237,-32628
32-10,54545143,-25911
32-11,54549049,11050
32-12,54552955,25806
32-13,54556861,21311
32-14,54560767,24809
32-15,54564673,23088
32-16,54568579,-10659
32-17,54572485,-32768
32-18,54576391,-19222
32-19,54580297,15123
32-20,54584203,24709
32-21,54588109,20784
32-22,54592015,26031
32-23,54595921,15051
32-24,54599827,-23922
32-25,54603733,-32768
32-26,54607639,-7067
32-27,54611545,20375
32-28,54615451,19336
32-29,54619357,17728
32-30,54623263,23787
32-31,54627169,1941
32-32,54631075,-30079
32-1,54635231,-32768
32-2,54639137,-26837
32-3,54643043,157
32-4,54646949,21565
32-5,54650855,25439
32-6,54654761,22230
32-7,54658667,-8998
32-8,54662573,-32768
32-9,54666479,-15978
32-10,54670385,18137
32-11,54674291,24665
32-12,54678197,20486
32-13,54682103,26029
32-14,54686009,15841
32-15,54689915,-22405
32-16,54693821,-32768
32-17,54697727,-9466
32-18,54701633,20365
32-19,54705539,23351
32-20,54709445,21105
32-21,54713351,26002
32-22,54717257,5101
32-23,54721163,-32524
32-24,54725069,-32598
32-25,54728975,2026
32-26,54732881,23755
32-27,54736787,19738
32-28,54740693,20529
32-29,54744599,17298
32-30,54748505,-13955
32-31,54752411,-32768
32-32,54756317,-32359
32-1,54759984,-22154
32-2,54763890,6906
32-3,54767796,23726
32-4,54771702,26167
32-5,54775608,16745
32-6,54779514,-20256
32-7,54783420,-32346
32-8,54787326,-5439
32-9,54791232,22694
32-10,54795138,23324
32-11,54799044,21412
32-12,54802950,26416
32-13,54806856,6463
32-14,54810762,-31315
32-15,54814668,-32739
32-16,54818574,413
32-17,54822480,23260
32-18,54826386,21416
32-19,54830292,22440
32-20,54834198,23577
32-21,54838104,-6182
32-22,54842010,-32768
32-23,54845916,-24613
32-24,54849822,10575
32-25,54853728,24106
32-26,54857634,21224
32-27,54861540,24803
32-28,54865446,11538
32-29,54869352,-22070
32-30,54873258,-32768
32-31,54877164,-32359
32-32,54881070,-22790
32-1,54884982,4431
32-2,54888888,22969
32-3,54892794,26311
32-4,54896700,7405
32-5,54900606,-29678
32-6,54904512,-30451
32-7,54908418,5620
32-8,54912324,25346
32-9,54916230,21746
32-10,54920136,23154
32-11,54924042,25064
32-12,54927948,-3404
32-13,54931854,-32768
32-14,54935760,-25183
32-15,54939666,10602
32-16,54943572,25041
32-17,54947478,20612
32-18,54951384,24675
32-19,54955290,19524
32-20,54959196,-17001
32-21,54963102,-32768
32-22,54967008,-13685
32-23,54970914,18518
32-24,54974820,23430
32-25,54978726,20633
32-26,54982632,26246
32-27,54986538,7925
32-28,54990444,-26385
32-29,54994350,-32768
32-30,54998256,-28329
32-31,55002162,-1307
32-32,55006068,20379
32-1,55009980,24781
32-2,55013886,22848
32-3,55017792,-3864
32-4,55021698,-32768
32-5,55025604,-32359
32-6,55029510,-22790
32-7,55033416,6000
32-8,55037322,23219
32-9,55041228,25208
32-10,55045134,19897
32-11,55049040,-14703
32-12,55052946,-32417
32-13,55056852,-10082
32-14,55060758,21099
32-15,55064664,23974
32-16,55068570,20725
32-17,55072476,26580
32-18,55076382,11655
32-19,55080288,-27278
32-20,55084194,-32768
32-21,55088100,-2557
32-22,55092006,22900
32-23,55095912,21794
32-24,55099818,21973
32-25,55103724,25326
32-26,55107630,-1532
32-27,55111536,-32768
32-28,55115442,-32359
32-29,55119348,-18194
32-30,55123254,4065
32-31,55127160,20577
32-32,55131066,27068
32-1,55134977,19074
32-2,55138883,-12927
32-3,55142789,-32453
32-4,55146695,-32047
32-5,55150601,-15137
32-6,55154507,13533
32-7,55158413,24513
32-8,55162319,26036
32-9,55166225,13501
32-10,55170131,-25093
32-11,55174037,-32116
32-12,55177943,984
32-13,55181849,24790
32-14,55185755,22616
32-15,55189661,22718
32-16,55193567,26112
32-17,55197473,1514
32-18,55201379,-32768
32-19,55205285,-32056
32-20,55209191,972
32-21,55213097,23546
32-22,55217003,21818
32-23,55220909,23950
32-24,55224815,22427
32-25,55228721,-13263
32-26,55232627,-32768
32-27,55236533,-13343
32-28,55240439,12548
32-29,55244345,17462
32-30,55248251,18645
32-31,55252157,26658
32-32,55256063,12196
32-1,55260097,-23501
32-2,55264003,-32768
32-3,55267909,-32359
32-4,55271815,-18287
32-5,55275721,10458
32-6,55279627,25002
32-7,55283533,25777
32-8,55287439,1932
32-9,55291345,-32517
32-10,55295251,-20435
32-11,55299157,16428
32-12,55303063,25573
32-13,55306969,20312
32-14,55310875,24804
32-15,55314781,22035
32-16,55318687,-10087
32-17,55322593,-32768
32-18,55326499,-24936
32-19,55330405,9024
32-20,55334311,24188
32-21,55338217,21196
32-22,55342123,25249
32-23,55346029,15246
32-24,55349935,-23451
32-25,55353841,-32768
32-26,55357747,-7704
32-27,55361653,19863
32-28,55365559,19169
32-29,55369465,17624
32-30,55373371,23894
32-31,55377277,2275
32-32,55381183,-30001
32-1,55384973,-32768
32-2,55388879,-26868
32-3,55392785,-23
32-4,55396691,21026
32-5,55400597,24905
32-6,55404503,22160
32-7,55408409,-10017
32-8,55412315,-32751
32-9,55416221,-9359
32-10,55420127,22106
32-11,55424033,23429
32-12,55427939,20001
32-13,55431845,25969
32-14,55435751,15080
32-15,55439657,-21456
32-16,55443563,-32768
32-17,55447469,-16223
32-18,55451375,15454
32-19,55455281,23476
32-20,55459187,21125
32-21,55463093,25616
32-22,55466999,5524
32-23,55470905,-32333
32-24,55474811,-32621
32-25,55478717,1950
32-26,55482623,23707
32-27,55486529,19484
32-28,55490435,19892
32-29,55494341,16701
32-30,55498247,-14664
32-31,55502153,-32768
32-32,55506059,-32359
32-1,55509970,-25621
32-2,55513876,895
32-3,55517782,21554
32-4,55521688,26165
32-5,55525594,16052
32-6,55529500,-20519
32-7,55533406,-32188
32-8,55537312,-4597
32-9,55541218,23100
32-10,55545124,23115
32-11,55549030,21418
32-12,55552936,26689
32-13,55556842,6960
32-14,55560748,-30990
32-15,55564654,-32610
32-16,55568560,835
32-17,55572466,23426
32-18,55576372,21492
32-19,55580278,22585
32-20,55584184,23873
32-21,55588090,-6047
32-22,55591996,-32768
32-23,55595902,-23632
32-24,55599808,11477
32-25,55603714,24084
32-26,55607620,21076
32-27,55611526,24891
32-28,55615432,11859
32-29,55619338,-21901
32-30,55623244,-32768
32-31,55627150,-32359
32-32,55631056,-23416
32-1,55634968,3477
32-2,55638874,22706
32-3,55642780,26677
32-4,55646686,7656
32-5,55650592,-29743
32-6,55654498,-30319
32-7,55658404,6050
32-8,55662310,25592
32-9,55666216,21815
32-10,55670122,23421
32-11,55674028,25173
32-12,55677934,-3727
32-13,55681840,-32768
32-14,55685746,-25254
32-15,55689652,10228
32-16,55693558,24676
32-17,55697464,20551
32-18,55701370,24812
32-19,55705276,19253
32-20,55709182,-17443
32-21,55713088,-32768
32-22,55716994,-14068
32-23,55720900,18124
32-24,55724806,23526
32-25,55728712,20784
32-26,55732618,26415
32-27,55736524,7815
32-28,55740430,-26660
32-29,55744336,-32768
32-30,55748242,-28561
32-31,55752148,-2142
32-32,55756054,20011
32-1,55759965,25070
32-2,55763871,22546
32-3,55767777,-4846
32-4,55771683,-32762
32-5,55775589,-32353
32-6,55779495,-22992
32-7,55783401,5676
32-8,55787307,23203
32-9,55791213,25444
32-10,55795119,19768
32-11,55799025,-15176
32-12,55802931,-32400
32-13,55806837,-9733
32-14,55810743,21177
32-15,55814649,23935
32-16,55818555,20934
32-17,55822461,26702
32-18,55826367,11567
32-19,55830273,-27090
32-20,55834179,-32768
32-21,55838085,-4109
32-22,55841991,22244
32-23,55845897,22243
32-24,55849803,22344
32-25,55853709,25466
32-26,55857615,-1617
32-27,55861521,-32768
32-28,55865427,-32359
32-29,55869333,-19679
32-30,55873239,2600
32-31,55877145,20384
32-32,55881051,27284
32-1,55885116,19469
32-2,55889022,-12811
32-3,55892928,-32422
32-4,55896834,-32017
32-5,55900740,-19181
32-6,55904646,8805
32-7,55908552,24249
32-8,55912458,26466
32-9,55916364,12904
32-10,55920270,-24328
32-11,55924176,-31981
32-12,55928082,-4359
32-13,55931988,22603
32-14,55935894,23444
32-15,55939800,22356
32-16,55943706,26389
32-17,55947612,1771
32-18,55951518,-32736
32-19,55955424,-27332
32-20,55959330,9009
32-21,55963236,25653
32-22,55967142,21193
32-23,55971048,24776
32-24,55974954,22770
32-25,55978860,-12153
32-26,55982766,-32768
32-27,55986672,-19366
32-28,55990578,6197
32-29,55994484,16187
32-30,55998390,19376
32-31,56002296,26577
32-32,56006202,12935
32-1,56009961,-22114
32-2,56013867,-32768
32-3,56017773,-31020
32-4,56021679,-7086
32-5,56025585,18648
32-6,56029491,24457
32-7,56033397,25007
32-8,56037303,3549
32-9,56041209,-32768
32-10,56045115,-26650
32-11,56049021,10303
32-12,56052927,25208
32-13,56056833,20683
32-14,56060739,24147
32-15,56064645,22600
32-16,56068551,-9955
32-17,56072457,-32768
32-18,56076363,-22621
32-19,56080269,11752
32-20,56084175,24417
32-21,56088081,20662
32-22,56091987,25147
32-23,56095893,15489
32-24,56099799,-23296
32-25,56103705,-32768
32-26,56107611,-5983
32-27,56111517,21125
32-28,56115423,18795
32-29,56119329,16846
32-30,56123235,23329
32-31,56127141,2581
32-32,56131047,-29508
32-1,56134958,-32768
32-2,56138864,-26727
32-3,56142770,449
32-4,56146676,21386
32-5,56150582,24941
32-6,56154488,22384
32-7,56158394,-8223
32-8,56162300,-32768
32-9,56166206,-16016
32-10,56170112,18290
32-11,56174018,24533
32-12,56177924,20350
32-13,56181830,25859
32-14,56185736,16165
32-15,56189642,-20780
32-16,56193548,-32768
32-17,56197454,-15399
32-18,56201360,16458
32-19,56205266,23813
32-20,56209172,20923
32-21,56213078,26050
32-22,56216984,5927
32-23,56220890,-32611
32-24,56224796,-28460
32-25,56228702,8655
32-26,56232608,24999
32-27,56236514,18393
32-28,56240420,20229
32-29,56244326,17194
32-30,56248232,-14596
32-31,56252138,-32768
32-32,56256044,-32359
32-1,56259956,-29067
32-2,56263862,-6527
32-3,56267768,18202
32-4,56271674,27023
32-5,56275580,16408
32-6,56279486,-20971
32-7,56283392,-32020
32-8,56287298,2922
32-9,56291204,25709
32-10,56295110,21908
32-11,56299016,21676
32-12,56302922,26739
32-13,56306828,7463
32-14,56310734,-29463
32-15,56314640,-32584
32-16,56318546,-5502
32-17,56322452,21161
32-18,56326358,22592
32-19,56330264,22552
32-20,56334170,24007
32-21,56338076,-5424
32-22,56341982,-32768
32-23,56345888,-23861
32-24,56349794,11499
32-25,56353700,24140
32-26,56357606,20883
32-27,56361512,24511
32-28,56365418,11706
32-29,56369324,-20926
32-30,56373230,-32768
32-31,56377136,-32359
32-32,56381042,-11581
32-1,56385045,16001
32-2,56388951,24102
32-3,56392857,24928
32-4,56396763,8588
32-5,56400669,-28847
32-6,56404575,-32372
32-7,56408481,-2471
32-8,56412387,22295
32-9,56416293,21945
32-10,56420199,22124
32-11,56424105,24415
32-12,56428011,-3825
32-13,56431917,-32768
32-14,56435823,-25662
32-15,56439729,9535
32-16,56443635,24381
32-17,56447541,20457
32-18,56451447,24584
32-19,56455353,19482
32-20,56459259,-16946
32-21,56463165,-32768
32-22,56467071,-14309
32-23,56470977,17896
32-24,56474883,23224
32-25,56478789,20458
32-26,56482695,26086
32-27,56486601,7734
32-28,56490507,-26568
32-29,56494413,-32768
32-30,56498319,-28679
32-31,56502225,-2342
32-32,56506131,19875
32-1,56509951,25044
32-2,56513857,22883
32-3,56517763,-4330
32-4,56521669,-32767
32-5,56525575,-32357
32-6,56529481,-22962
32-7,56533387,5568
32-8,56537293,23036
32-9,56541199,25242
32-10,56545105,19688
32-11,56549011,-15048
32-12,56552917,-32400
32-13,56556823,-9125
32-14,56560729,20855
32-15,56564635,23265
32-16,56568541,22134
32-17,56572447,22902
32-18,56576353,16774
32-19,56580259,16355
32-20,56584165,21804
32-21,56588071,21395
32-22,56591977,21450
32-23,56595883,19652
32-24,56599789,20626
32-25,56603695,22924
32-26,56607601,-2627
32-27,56611507,-32768
32-28,56615413,-32768
32-29,56619319,-29329
32-30,56623225,-31993
32-31,56627131,-30522
32-32,56631037,-2138
32-1,56634949,16337
32-2,56638855,-12485
32-3,56642761,-31235
32-4,56646667,-21894
32-5,56650573,9989
32-6,56654479,24275
32-7,56658385,22338
32-8,56662291,26511
32-9,56666197,13707
32-10,56670103,-24604
32-11,56674009,-31476
32-12,56677915,-6172
32-13,56681821,21759
32-14,56685727,23824
32-15,56689633,22676
32-16,56693539,26223
32-17,56697445,1669
32-18,56701351,-32210
32-19,56705257,-29144
32-20,56709163,5580
32-21,56713069,24763
32-22,56716975,21640
32-23,56720881,24726
32-24,56724787,22236
32-25,56728693,-12567
32-26,56732599,-32525
32-27,56736505,-20990
32-28,56740411,3502
32-29,56744317,14392
32-30,56748223,18746
32-31,56752129,26539
32-32,56756035,12345
32-1,56759947,-22601
32-2,56763853,-32520
32-3,56767759,-31496
32-4,56771665,-9593
32-5,56775571,17276
32-6,56779477,24785
32-7,56783383,24863
32-8,56787289,3291
32-9,56791195,-32481
32-10,56795101,-26965
32-11,56799007,9643
32-12,56802913,25274
32-13,56806819,20921
32-14,56810725,24071
32-15,56814631,22210
32-16,56818537,-9695
32-17,56822443,-32768
32-18,56826349,-25219
32-19,56830255,8165
32-20,56834161,23669
32-21,56838067,20971
32-22,56841973,24875
32-23,56845879,15255
32-24,56849785,-23286
32-25,56853691,-32768
32-26,56857597,-7092
32-27,56861503,20403
32-28,56865409,19098
32-29,56869315,17253
32-30,56873221,24166
32-31,56877127,3102
32-32,56881033,-29570
32-1,56884944,-32768
32-2,56888850,-29539
32-3,56892756,-7448
32-4,56896662,17477
32-5,56900568,25761
32-6,56904474,22212
32-7,56908380,-8539
32-8,56912286,-32610
32-9,56916192,-15905
32-10,56920098,18368
32-11,56924004,24535
32-12,56927910,20321
32-13,56931816,26001
32-14,56935722,16860
32-15,56939628,-21116
32-16,56943534,-32768
32-17,56947440,-9160
32-18,56951346,20753
32-19,56955252,23246
32-20,56959158,21054
32-21,56963064,26007
32-22,56966970,6083
32-23,56970876,-31326
32-24,56974782,-32768
32-25,56978688,-1490
32-26,56982594,22882
32-27,56986500,20348
32-28,56990406,20123
32-29,56994312,17324
32-30,56998218,-13868
32-31,57002124,-32768
32-32,57006030,-32359
32-1,57009942,-26199
32-2,57013848,-334
32-3,57017754,21066
32-4,57021660,26297
32-5,57025566,16859
32-6,57029472,-19623
32-7,57033378,-32183
32-8,57037284,-4364
32-9,57041190,23405
32-10,57045096,23197
32-11,57049002,21355
32-12,57052908,27053
32-13,57056814,8366
32-14,57060720,-30208
32-15,57064626,-32643
32-16,57068532,2038
32-17,57072438,24164
32-18,57076344,21415
32-19,57080250,22618
32-20,57084156,23886
32-21,57088062,-4753
32-22,57091968,-32768
32-23,57095874,-28339
32-24,57099780,5715
32-25,57103686,23338
32-26,57107592,21612
32-27,57111498,24311
32-28,57115404,12456
32-29,57119310,-20271
32-30,57123216,-32768
32-31,57127122,-32359
32-32,57131028,-12177
32-1,57134939,15313
32-2,57138845,23540
32-3,57142751,24960
32-4,57146657,8765
32-5,57150563,-29459
32-6,57154469,-31267
32-7,57158375,5412
32-8,57162281,24134
32-9,57166187,21145
32-10,57170093,23799
32-11,57173999,20796
32-12,57177905,7978
32-13,57181811,12955
32-14,57185717,23097
32-15,57189623,21404
32-16,57193529,20512
32-17,57197435,19147
32-18,57201341,23120
32-19,57205247,16326
32-20,57209153,-18874
32-21,57213059,-32768
32-22,57216965,-31929
32-23,57220871,-31541
32-24,57224777,-16131
32-25,57228683,14080
32-26,57232589,27830
32-27,57236495,7511
32-28,57240401,-25122
32-29,57244307,-31670
32-30,57248213,-24109
32-31,57252119,5419
32-32,57256025,22367
32-1,57259937,24250
32-2,57263843,24107
32-3,57267749,-2946
32-4,57271655,-31890
32-5,57275561,-31491
32-6,57279467,-26067
32-7,57283373,8
32-8,57287279,21864
32-9,57291185,26768
32-10,57295091,20628
32-11,57298997,-14815
32-12,57302903,-31455
32-13,57306809,-2574
32-14,57310715,24990
32-15,57314621,23482
32-16,57318527,21525
32-17,57322433,27448
32-18,57326339,12091
32-19,57330245,-25213
32-20,57334151,-32086
32-21,57338057,-10099
32-22,57341963,19211
32-23,57345869,23275
32-24,57349775,22467
32-25,57353681,25700
32-26,57357587,-515
32-27,57361493,-32688
32-28,57365399,-32280
32-29,57369305,-19303
32-30,57373211,2753
32-31,57377117,20167
